-116.707459	16.000000
-114.037859	38.000000
-111.371194	32.333333
-108.705281	23.666667
-106.042300	25.666667
-103.377890	-8.000000
-100.716410	20.666667
-98.053501	30.666667
-95.395698	25.000000
-92.736466	25.000000
-90.077982	-31.333333
-87.422422	4.666667
-84.765434	11.333333
-82.113544	15.333333
-79.460224	3.000000
-76.809823	-8.000000
-74.157993	-16.333333
-71.511254	17.333333
-68.863086	-10.000000
-66.215660	-3.666667
-63.571148	28.333333
-60.925208	41.000000
-58.284349	-1.000000
-55.642061	29.333333
-53.002682	44.000000
-50.361873	29.000000
-47.721805	-24.333333
-45.086809	20.333333
-42.450385	22.333333
-39.816863	36.333333
-37.181913	5.000000
-34.552028	7.666667
-31.918551	-16.666667
-29.290136	58.333333
-26.662455	13.666667
-24.033345	45.333333
-21.409292	39.000000
-18.781650	32.666667
-16.159061	4.333333
-13.537204	57.666667
-10.916077	84.000000
-8.295680	149.333333
-5.678172	351.666667
-3.059235	1070.333333
-0.443183	2422.666667
2.172140	2492.333333
4.786736	1103.666667
7.398449	134.666667
10.011591	7.000000
12.619699	80.333333
15.231389	38.000000
17.838048	-3.333333
20.446135	3.333333
23.053498	26.000000
25.655836	-13.666667
28.261752	62.000000
30.862646	42.666667
33.464968	25.333333
36.062273	17.333333
38.663153	24.333333
41.259018	25.000000
43.856312	21.333333
46.452886	1.333333
49.044451	44.333333
51.637444	38.666667
54.227576	25.000000
56.819136	20.666667
59.407836	34.000000
61.997963	34.000000
64.583091	46.666667
67.169647	26.000000
69.755489	38.666667
72.338477	34.000000
74.922891	49.000000
77.500177	23.666667
80.081029	40.000000
82.659032	30.333333
85.236325	50.666667
87.815044	58.000000
90.388781	50.333333
92.963946	28.000000
95.536267	77.000000
98.107880	39.000000
100.676653	74.000000
103.246853	45.666667
105.814215	82.666667
108.383002	65.333333
110.948953	122.333333
113.512069	71.000000
116.078741	105.333333
118.636192	223.000000
121.199328	270.000000
123.757504	404.666667
126.319235	589.333333
128.876009	864.666667
131.434210	1272.333333
133.987457	1945.000000
136.540007	2713.333333
139.096107	3729.333333
141.647259	4776.333333
144.197714	5840.666667
146.747471	6607.333333
149.294409	7118.666667
151.840652	7403.666667
154.388320	7530.666667
156.935292	7558.666667
159.477329	7531.333333
162.018672	7518.333333
164.559322	7454.666667
167.101398	7460.000000
169.640662	7479.000000
172.177118	7397.333333
174.712882	7376.000000
177.250072	7282.333333
179.786571	7352.666667
182.320264	7331.000000
184.851153	7276.666667
187.381355	7309.000000
189.912981	7309.666667
192.441806	7316.666667
194.967832	7292.333333
197.493172	7252.000000
200.019937	7251.333333
202.543906	7225.333333
205.067190	7274.333333
207.589789	7279.000000
210.109595	7366.000000
212.628718	7169.333333
215.147158	7293.000000
217.667022	7227.666667
220.179885	7218.666667
222.696279	7301.333333
225.211991	7404.000000
227.722813	7430.000000
230.235060	7301.333333
232.744525	7302.666667
235.253311	7270.000000
237.761418	7343.000000
240.270950	7293.000000
242.775601	7394.333333
245.279576	7404.000000
247.784975	7484.000000
250.285499	7409.333333
252.789547	7386.333333
255.286623	7456.666667
257.787223	7549.666667
260.285051	7376.333333
262.782206	7511.666667
265.278688	7579.333333
267.770307	7401.666667
270.265446	7582.000000
272.757818	7533.666667
275.249520	7502.000000
277.738459	7612.333333
280.228822	7503.666667
282.716422	7522.000000
285.201263	7498.666667
287.689619	7458.000000
290.171035	7524.666667
292.655965	7485.666667
295.136050	7591.000000
297.619647	7675.000000
300.098401	7571.000000
302.578579	7709.666667
305.056004	7509.666667
307.532766	7591.666667
310.008865	7570.000000
312.482215	7587.666667
314.954903	7526.000000
317.426930	7540.333333
319.898296	7719.666667
322.366917	7758.666667
324.834880	7741.000000
327.304264	7718.333333
329.768826	7659.000000
332.236892	7763.000000
334.700138	7550.666667
337.162726	7594.666667
339.624658	7574.333333
342.085933	7533.666667
344.544474	7686.666667
347.004437	7572.333333
349.461667	7531.000000
351.918243	7459.000000
354.374165	7472.000000
356.827357	7380.666667
359.281972	7263.333333
361.731785	7404.000000
364.185094	7306.333333
366.633605	7201.333333
369.081464	7161.666667
371.530746	7265.666667
373.975234	7112.666667
376.421144	6977.333333
378.866404	6988.000000
381.308946	7068.666667
383.750840	6845.000000
386.192087	6912.666667
388.630618	6813.000000
391.070571	6697.666667
393.507810	6760.000000
395.942337	6667.000000
398.380352	6638.666667
400.813590	6694.666667
403.248249	6578.000000
405.678136	6615.000000
408.111508	6579.000000
410.540110	6577.000000
412.968070	6525.000000
415.397452	6502.000000
417.822068	6557.666667
420.248106	6464.666667
422.673503	6476.333333
425.098260	6480.666667
427.518259	6458.000000
429.939679	6386.333333
432.358402	6406.333333
434.778546	6454.666667
437.195995	6501.000000
439.614864	6400.666667
442.031040	6412.333333
444.442468	6481.333333
446.857374	6441.333333
449.269589	6436.666667
451.681170	6484.333333
454.092117	6517.333333
456.500378	6552.333333
458.908006	6503.000000
461.315002	6477.666667
463.721367	6444.333333
466.125049	6553.333333
468.528101	6487.000000
470.930523	6544.000000
473.332315	6433.666667
475.731430	6454.333333
478.131964	6452.333333
480.531869	6372.000000
482.927051	6492.000000
485.325700	6363.666667
487.719629	6410.000000
490.112932	6377.333333
492.505609	6359.666667
494.897661	6331.666667
497.291131	6309.666667
499.679889	6304.000000
502.065981	6346.333333
504.453493	6211.666667
506.840382	6302.000000
509.224607	6270.333333
511.610250	6281.333333
513.993232	6340.333333
516.373553	6294.666667
518.755293	6288.333333
521.134374	6371.333333
523.514874	6374.333333
525.892716	6409.000000
528.267903	6274.666667
530.642472	6350.333333
533.018459	6321.000000
535.391794	6232.333333
537.766546	6144.000000
540.136613	6230.666667
542.506064	6194.000000
544.876933	6154.000000
547.243122	6141.666667
549.610729	6111.666667
551.975690	6031.666667
554.340038	5986.000000
556.703773	5868.000000
559.068926	5900.000000
561.429407	5834.666667
563.791306	5785.000000
566.150564	5719.000000
568.507185	5661.666667
570.867250	5675.000000
573.220624	5615.000000
575.577443	5485.000000
577.931627	5582.666667
580.285202	5432.666667
582.638170	5434.000000
584.988505	5378.000000
587.340258	5440.333333
589.685334	5359.666667
592.035874	5281.666667
594.379740	5155.000000
596.729068	5148.666667
599.073747	5255.000000
601.415802	5121.000000
603.759274	5031.000000
606.100123	5102.333333
608.440370	5108.333333
610.777996	5021.666667
613.119057	5007.333333
615.455480	5115.000000
617.793320	5042.333333
620.128543	5049.000000
622.461150	4937.333333
624.795173	4994.666667
627.126582	5110.666667
629.457393	4937.000000
631.787607	5037.000000
634.117222	5019.666667
636.442214	4965.333333
638.772648	5073.000000
641.098461	5057.666667
643.421666	5116.333333
645.746288	5199.333333
648.068304	5053.000000
650.389726	4986.000000
652.708546	5146.000000
655.028781	5073.000000
657.348423	5207.333333
659.665464	5170.666667
661.981913	5232.666667
664.295764	5137.666667
666.611031	5286.000000
668.923701	5247.333333
671.237786	5281.000000
673.547271	5299.000000
675.858172	5359.666667
678.166480	5235.000000
680.474200	5301.666667
682.783334	5404.333333
685.087876	5392.333333
687.391832	5468.333333
689.695202	5499.333333
691.999986	5535.333333
694.300184	5505.666667
696.601796	5627.000000
698.902823	5550.000000
701.199269	5578.333333
703.497130	5668.000000
705.794407	5732.666667
708.091101	5694.666667
710.383219	5686.000000
712.678748	5757.666667
714.969703	5831.666667
717.262073	5743.333333
719.551868	5762.000000
721.841082	5892.666667
724.129717	5878.333333
726.415779	5993.666667
728.703256	5990.666667
730.988161	5998.666667
733.272489	6150.000000
735.554248	6056.666667
737.837421	5938.666667
740.120017	6145.666667
742.398057	6157.666667
744.677512	6225.333333
746.956390	6199.000000
749.234694	6252.000000
751.508448	6334.666667
753.783615	6247.000000
756.058209	6326.666667
758.330244	6392.333333
760.603692	6451.333333
762.874582	6565.666667
765.142916	6544.333333
767.412663	6518.000000
769.679856	6610.333333
771.946478	6589.666667
774.212530	6645.666667
776.476031	6638.333333
778.740945	6753.333333
781.005289	6709.000000
783.265104	6732.333333
785.526331	6748.666667
787.786991	6861.333333
790.045105	6859.000000
792.300674	6757.000000
794.559634	6917.333333
796.812095	6927.333333
799.069922	6874.333333
801.323231	6904.000000
803.574000	6916.000000
805.826181	6963.333333
808.075823	7096.333333
810.326878	7058.333333
812.573421	6969.000000
814.821376	7078.666667
817.066797	7138.000000
819.313629	7011.333333
821.559900	6996.000000
823.801666	7087.666667
826.046816	7125.333333
828.285493	7121.000000
830.527552	7251.333333
832.765113	7244.000000
835.004086	7240.666667
837.240532	7246.333333
839.478389	7234.666667
841.713721	7323.000000
843.946530	7585.333333
846.180750	7377.666667
848.412447	7431.333333
850.643590	7543.333333
852.874178	7569.333333
855.104212	7692.333333
857.333692	7781.666667
859.558690	7877.000000
861.787063	7991.666667
864.010956	7920.333333
866.236261	8232.333333
868.457090	8269.666667
870.681291	8196.000000
872.901019	8362.333333
875.122157	8538.666667
877.342745	8635.000000
879.560824	8678.333333
881.780312	8801.333333
883.995334	8811.000000
886.209808	8885.000000
888.423735	9150.666667
890.637115	9021.000000
892.849947	9117.000000
895.062233	9010.333333
897.272016	9137.000000
899.481254	9196.000000
901.689947	9048.333333
903.896141	8972.333333
906.103744	9009.666667
908.308849	8911.000000
910.513411	8870.666667
912.715478	8790.666667
914.918954	8730.000000
917.119936	8667.333333
919.320376	8535.000000
921.522225	8466.000000
923.717683	8315.666667
925.916500	8144.333333
928.110878	7970.666667
930.308614	7786.666667
932.501914	7723.333333
934.696623	7498.666667
936.888846	7393.333333
939.080530	7421.333333
941.271677	7349.333333
943.460341	7143.000000
945.648469	7256.000000
947.834116	7071.666667
950.023115	7167.333333
952.207691	7060.666667
954.391732	7102.333333
956.579123	7118.000000
958.758210	7133.000000
960.940648	6994.333333
963.122552	7051.666667
965.301981	7119.333333
967.478938	7103.666667
969.657303	7084.000000
971.837075	7161.000000
974.010498	7120.666667
976.187267	7152.666667
978.359629	7005.666667
980.533399	6957.000000
982.702765	6904.666667
984.875475	6916.000000
987.045720	6904.000000
989.215436	6806.666667
991.384623	6849.000000
993.549413	6747.333333
995.717544	6692.333333
997.881281	6559.666667
1000.046424	6532.000000
1002.209108	6472.666667
1004.371267	6374.666667
1006.530969	6437.000000
1008.690146	6338.000000
1010.850730	6329.666667
1013.008859	6177.000000
1015.166465	6066.000000
1017.323547	5994.333333
1019.480105	6019.666667
1021.632284	6020.333333
1023.785870	5885.333333
1025.938934	5806.000000
1028.089549	5835.666667
1030.241571	5762.000000
1032.389219	5748.333333
1034.540199	5673.000000
1036.686808	5626.000000
1038.832898	5689.666667
1040.978470	5740.666667
1043.125447	5639.666667
1045.266135	5694.000000
1047.410153	5465.333333
1049.551730	5560.333333
1051.692791	5596.333333
1053.835256	5451.666667
1055.971442	5449.333333
1058.110953	5491.000000
1060.246110	5493.333333
1062.384591	5316.000000
1064.518718	5267.333333
1066.652332	5424.666667
1068.787351	5367.000000
1070.918020	5283.666667
1073.050094	5245.000000
1075.179739	5253.333333
1077.308872	5234.666667
1079.437493	5181.666667
1081.565603	5196.000000
1083.691287	5126.666667
1085.816461	5059.333333
1087.943039	5026.333333
1090.065279	5094.333333
1092.188924	5065.666667
1094.308234	4979.333333
1096.432774	4849.333333
1098.551068	4938.333333
1100.670767	4799.000000
1102.788047	4794.333333
1104.904821	4811.333333
1107.021088	4791.000000
1109.134939	4807.333333
1111.250195	4589.000000
1113.361127	4619.333333
1115.475372	4563.000000
1117.585296	4544.333333
1119.696624	4521.000000
1121.807447	4434.333333
1123.913954	4467.666667
1126.023771	4441.333333
1128.129273	4458.666667
1130.236178	4410.000000
1132.336868	4343.666667
1134.442770	4397.666667
1136.544363	4268.333333
1138.647359	4333.666667
1140.749854	4321.000000
1142.846142	4175.000000
1144.947637	4184.666667
1147.044830	4189.000000
1149.141525	4183.666667
1151.237721	4181.000000
1153.333420	4160.666667
1155.428620	4051.666667
1157.521424	4071.666667
1159.615631	4049.666667
1161.703646	4003.666667
1163.796859	4025.333333
1165.883884	3961.000000
1167.974208	3998.000000
1170.060244	3916.000000
1172.149579	3997.000000
1174.232732	3930.333333
1176.317287	3877.000000
1178.403244	3840.333333
1180.484919	3893.000000
1182.567996	3858.333333
1184.648687	3816.000000
1186.728886	3864.000000
1188.808594	3814.000000
1190.887811	3826.333333
1192.964646	3813.333333
1195.039100	3733.333333
1197.116845	3756.333333
1199.190321	3793.666667
1201.265197	3747.333333
1203.335806	3758.666667
1205.407816	3719.000000
1207.477451	3752.666667
1209.548486	3682.333333
1211.619033	3818.000000
1213.685319	3754.333333
1215.753006	3734.000000
1217.818321	3711.333333
1219.885036	3648.333333
1221.947495	3685.000000
1224.013239	3611.333333
1226.074729	3736.666667
1228.137620	3722.666667
1230.198143	3775.666667
1232.258182	3767.000000
1234.317739	3663.666667
1236.374930	3791.666667
1238.431640	3784.666667
1240.485986	3704.666667
1242.543614	3778.666667
1244.598879	3806.333333
1246.649903	3652.666667
1248.702327	3729.000000
1250.754271	3743.333333
1252.803857	3688.666667
1254.852964	3719.000000
1256.901593	3713.000000
1258.949743	3739.000000
1260.997414	3713.000000
1263.040855	3741.333333
1265.087572	3700.666667
1267.131935	3729.666667
1269.175822	3707.333333
1271.217357	3787.000000
1273.256543	3726.333333
1275.299002	3709.000000
1277.337238	3698.333333
1279.376873	3735.666667
1281.416033	3668.000000
1283.450974	3735.000000
1285.487314	3687.666667
1287.521310	3679.000000
1289.556703	3669.000000
1291.587884	3768.000000
1293.620462	3654.333333
1295.652569	3782.333333
1297.682335	3737.333333
1299.713498	3698.000000
1301.740455	3699.000000
1303.768809	3701.000000
1305.792958	3712.000000
1307.820373	3747.666667
1309.843585	3707.000000
1311.868195	3710.666667
1313.890471	3778.000000
1315.914144	3737.000000
1317.935484	3599.333333
1319.956356	3663.666667
1321.976761	3719.333333
1323.992973	3860.666667
1326.010582	3651.666667
1328.025863	3758.666667
1330.044403	3722.666667
1332.058754	3689.000000
1334.070779	3702.000000
1336.086061	3769.666667
1338.097158	3662.666667
1340.109652	3667.333333
1342.117963	3743.333333
1344.129529	3713.666667
1346.135057	3744.666667
1348.143840	3642.333333
1350.148445	3768.666667
1352.156304	3697.333333
1354.163701	3742.666667
1356.165067	3772.000000
1358.167829	3709.000000
1360.170132	3736.666667
1362.171975	3679.333333
1364.173358	3743.000000
1366.172428	3774.333333
1368.171039	3783.333333
1370.169192	3686.666667
1372.166886	3787.333333
1374.160418	3706.000000
1376.155345	3693.333333
1378.149816	3653.333333
1380.143830	3728.333333
1382.135537	3669.000000
1384.126789	3682.000000
1386.115735	3596.333333
1388.106076	3650.333333
1390.095962	3683.333333
1392.083544	3681.666667
1394.070673	3631.000000
1396.055500	3558.666667
1398.041722	3620.333333
1400.025644	3637.333333
1402.009113	3695.666667
1403.992129	3639.333333
1405.972848	3662.666667
1407.954961	3654.666667
1409.934778	3571.666667
1411.914143	3612.000000
1413.889370	3644.333333
1415.867835	3656.333333
1417.844007	3676.666667
1419.819730	3651.333333
1421.795003	3692.666667
1423.767985	3709.000000
1425.740519	3613.000000
1427.712605	3628.000000
1429.684244	3622.000000
1431.651754	3686.666667
1433.624338	3636.666667
1435.589116	3679.333333
1437.558967	3629.333333
1439.524694	3702.666667
1441.491813	3658.666667
1443.456649	3593.666667
1445.417365	3646.333333
1447.383149	3677.666667
1449.342978	3671.333333
1451.304201	3646.333333
1453.266816	3583.666667
1455.225316	3616.666667
1457.183373	3699.666667
1459.140989	3644.666667
1461.098162	3573.333333
1463.053060	3739.666667
1465.009351	3671.666667
1466.963367	3655.666667
1468.916942	3664.333333
1470.868245	3608.000000
1472.820941	3652.333333
1474.771364	3641.666667
1476.721349	3591.333333
1478.670895	3672.000000
1480.618172	3596.666667
1482.563181	3504.000000
1484.509583	3580.000000
1486.455547	3690.333333
1488.401074	3575.000000
1490.344335	3615.666667
1492.287161	3611.000000
1494.227723	3573.333333
1496.169676	3656.666667
1498.109367	3550.000000
1500.048624	3562.666667
1501.987445	3555.000000
1503.924007	3500.666667
1505.861960	3613.333333
1507.797654	3593.666667
1509.732915	3615.666667
1511.665920	3558.666667
1513.598492	3595.000000
1515.530632	3553.333333
1517.462340	3579.333333
1519.391794	3554.666667
1521.322639	3537.000000
1523.253052	3593.666667
1525.179393	3560.000000
1527.107125	3532.000000
1529.032606	3586.333333
1530.957658	3519.000000
1532.882281	3580.333333
1534.806475	3502.666667
1536.728421	3505.666667
1538.651758	3535.666667
1540.572848	3578.333333
1542.491694	3698.666667
1544.411930	3545.000000
1546.329923	3534.666667
1548.247489	3519.333333
1550.162813	3602.000000
1552.079527	3556.333333
1553.992186	3532.666667
1555.908049	3555.333333
1557.821672	3560.333333
1559.733057	3614.000000
1561.645832	3545.000000
1563.554557	3614.333333
1565.464671	3515.000000
1567.374362	3484.666667
1569.283630	3569.000000
1571.190664	3522.666667
1573.095465	3555.000000
1575.001655	3525.000000
1576.905613	3573.666667
1578.809150	3613.333333
1580.712267	3511.333333
1582.613154	3634.333333
1584.515430	3547.666667
1586.415478	3462.666667
1588.316913	3557.000000
1590.214315	3518.666667
1592.111298	3525.000000
1594.007863	3454.333333
1595.905816	3491.333333
1597.797934	3542.666667
1599.693245	3476.000000
1601.588139	3617.333333
1603.480811	3549.666667
1605.373066	3485.333333
1607.263102	3471.666667
1609.152722	3519.000000
1611.041927	3462.666667
1612.930717	3540.333333
1614.817289	3409.666667
1616.705249	3536.666667
1618.589192	3488.333333
1620.474522	3555.000000
1622.359439	3478.333333
1624.242142	3570.000000
1626.126232	3531.000000
1628.006310	3541.333333
1629.887776	3475.333333
1631.767031	3473.666667
1633.647672	3523.000000
1635.522509	3440.000000
1637.402327	3420.000000
1639.278141	3466.333333
1641.153544	3456.333333
1643.030333	3432.000000
1644.901326	3497.666667
1646.775500	3478.000000
1648.645675	3460.333333
1650.519032	3456.000000
1652.390184	3464.666667
1654.259136	3486.666667
1656.129472	3512.666667
1657.995816	3531.333333
1659.863545	3460.000000
1661.729075	3426.666667
1663.595991	3411.666667
1665.458918	3357.000000
1667.323230	3460.000000
1669.185346	3399.666667
1671.047057	3390.000000
1672.910154	3328.666667
1674.771055	3418.333333
1676.629764	3366.666667
1678.488069	3373.000000
1680.347759	3366.000000
1682.201681	3337.000000
1684.058777	3362.000000
1685.915470	3353.333333
1687.768186	3400.333333
1689.624074	3380.333333
1691.475988	3441.666667
1693.327501	3386.666667
1695.178613	3360.333333
1697.029325	3334.666667
1698.879635	3341.333333
1700.727762	3316.666667
1702.577273	3266.000000
1704.421035	3282.333333
1706.269746	3295.000000
1708.112711	3276.666667
1709.958843	3331.333333
1711.801012	3293.666667
1713.646347	3322.000000
1715.485941	3304.666667
1717.326919	3331.333333
1719.169280	3315.666667
1721.007685	3317.666667
1722.847473	3312.333333
1724.685086	3229.000000
1726.522303	3250.000000
1728.357347	3263.333333
1730.193774	3269.666667
1732.028029	3292.333333
1733.861889	3275.666667
1735.695355	3228.000000
1737.524876	3293.666667
1739.357555	3285.333333
1741.186290	3265.000000
1743.018182	3304.000000
1744.846132	3243.666667
1746.673691	3212.333333
1748.500857	3296.666667
1750.327632	3228.333333
1752.154015	3239.333333
1753.976462	3354.666667
1755.802064	3251.333333
1757.623731	3312.333333
1759.446780	3303.666667
1761.267667	3199.000000
1763.088166	3328.333333
1764.910045	3224.666667
1766.726226	3259.666667
1768.545558	3243.666667
1770.360963	3343.333333
1772.179518	3229.666667
1773.994148	3301.000000
1775.808391	3279.000000
1777.622248	3242.666667
1779.435718	3273.000000
1781.247035	3242.333333
1783.059732	3215.666667
1784.872044	3253.000000
1786.680438	3200.666667
1788.490212	3252.000000
1790.296072	3240.000000
1792.105077	3212.333333
1793.910169	3236.000000
1795.716642	3289.000000
1797.522731	3183.666667
1799.324909	3235.000000
1801.130232	3287.000000
1802.931646	3182.000000
1804.734440	3281.000000
1806.533328	3230.000000
1808.333597	3225.333333
1810.133484	3171.333333
1811.931229	3310.000000
1813.728594	3168.666667
1815.525579	3168.333333
1817.322183	3164.333333
1819.116648	3199.333333
1820.912492	3194.666667
1822.702681	3307.666667
1824.497767	3220.000000
1826.287201	3205.000000
1828.079771	3219.666667
1829.870206	3163.666667
1831.658507	3229.000000
1833.449943	3194.666667
1835.235733	3159.000000
1837.022903	3250.666667
1838.807941	3203.666667
1840.596113	3170.000000
1842.380399	3102.333333
1844.162555	3217.333333
1845.946091	3193.666667
1847.727498	3151.333333
1849.510284	3129.000000
1851.289189	3201.333333
1853.069474	3170.000000
1854.847632	3087.666667
1856.627169	3157.666667
1858.404581	3163.333333
1860.179869	3136.333333
1861.956535	3190.666667
1863.731079	3126.666667
1865.507001	3157.000000
1867.277302	3134.666667
1869.050731	3140.333333
1870.822040	3162.666667
1872.592978	3195.000000
1874.365294	3141.333333
1876.131996	3219.000000
1877.901824	3181.666667
1879.667788	3112.333333
1881.436875	3157.000000
1883.202101	3193.666667
1884.966959	3111.666667
1886.733194	3193.666667
1888.495570	3102.333333
1890.257579	3148.333333
1892.019220	3096.000000
1893.780495	3112.000000
1895.541402	3131.666667
1897.301943	3122.666667
1899.060374	3154.666667
1900.818439	3145.666667
1902.574397	3117.333333
1904.331731	3074.666667
1906.088700	3110.000000
1907.843562	3088.333333
1909.596320	3085.000000
1911.348713	3096.333333
1913.102483	3016.333333
1914.854149	3089.666667
1916.603713	3105.333333
1918.354652	3099.666667
1920.105229	3022.000000
1921.851966	3125.333333
1923.600080	3145.333333
1925.346094	3102.666667
1927.093483	3010.000000
1928.838775	3104.000000
1930.581969	3126.333333
1932.326538	3107.666667
1934.069012	3027.333333
1935.811125	3017.333333
1937.552878	3066.666667
1939.294271	3070.000000
1941.033571	3064.666667
1942.772512	3144.666667
1944.511094	3105.000000
1946.247585	3016.333333
1947.983718	3072.666667
1949.721225	3129.000000
1951.454910	3052.000000
1953.189970	3075.333333
1954.922941	3021.666667
1956.655556	3085.333333
1958.387815	3081.666667
1960.119717	3091.333333
1961.849533	3102.333333
1963.577264	3137.333333
1965.306370	3036.666667
1967.035121	3141.333333
1968.761788	3097.000000
1970.488101	3093.000000
1972.215787	3035.333333
1973.937937	3084.333333
1975.663188	3062.333333
1977.384632	3092.000000
1979.109177	3068.666667
1980.831641	3055.333333
1982.550303	3062.333333
1984.272063	3112.333333
1985.990021	3061.000000
1987.709352	3040.000000
1989.424884	3078.333333
1991.145236	3081.000000
1992.861790	3087.333333
1994.574547	3102.666667
1996.290400	3088.333333
1998.004181	3049.666667
1999.717612	3018.333333
2001.428972	3071.000000
2003.141704	3101.333333
2004.850646	3072.333333
2006.562680	3096.333333
2008.269206	3051.000000
2009.978823	3076.000000
2011.686374	3082.666667
2013.393576	3045.333333
2015.098713	3055.333333
2016.803504	3031.666667
2018.509666	3079.000000
2020.212046	2979.666667
2021.915797	3099.000000
2023.617486	3062.333333
2025.318830	3116.333333
2027.019828	3030.666667
2028.718765	3042.000000
2030.419074	3006.666667
2032.115608	3087.666667
2033.813513	3044.666667
2035.509359	3134.333333
2037.208291	3049.000000
2038.901737	3056.000000
2040.596554	3029.666667
2042.291029	3113.333333
2043.981735	3068.666667
2045.675525	3091.000000
2047.365548	3059.666667
2049.056942	3009.666667
2050.746283	3070.333333
2052.436994	3031.333333
2054.123942	3027.000000
2055.810551	3029.666667
2057.498529	3043.666667
2059.182748	2987.333333
2060.868338	3004.000000
2062.553588	3002.000000
2064.236789	2977.000000
2065.921361	3044.333333
2067.600470	2983.666667
2069.284364	2999.666667
2070.962797	2986.666667
2072.644308	2927.000000
2074.322067	3020.666667
2075.999490	2998.666667
2077.678282	2980.666667
2079.355032	2972.333333
2081.029740	2993.333333
2082.705817	2936.000000
2084.379853	3002.333333
2086.053555	2930.333333
2087.726921	2963.333333
2089.398248	3010.333333
2091.069241	2950.666667
2092.739900	2990.666667
2094.410225	2922.333333
2096.080216	2984.333333
2097.748171	2895.000000
2099.415793	2917.000000
2101.081380	2902.333333
2102.748336	2931.666667
2104.413259	2967.666667
2106.077850	2958.000000
2107.740409	2984.333333
2109.404336	3085.333333
2111.066232	2973.666667
2112.727798	2978.666667
2114.389032	2935.666667
2116.048238	2895.000000
2117.707113	2982.666667
2119.365659	2971.333333
2121.023874	2925.333333
2122.678367	2911.000000
2124.335924	2918.000000
2125.993152	2990.000000
2127.646658	2915.000000
2129.301532	2949.333333
2130.952687	2911.333333
2132.606905	2918.333333
2134.257406	2949.000000
2135.909273	3008.000000
2137.555732	2932.666667
2139.206946	2846.000000
2140.854446	2902.666667
2142.503313	2975.666667
2144.150161	2911.333333
2145.796684	2945.000000
2147.442881	2968.333333
2149.085370	2903.000000
2150.730917	2897.666667
2152.372757	2892.000000
2154.017654	2874.666667
2155.658845	2885.000000
2157.299714	2900.333333
2158.940258	2865.666667
2160.578790	2887.333333
2162.218688	2894.666667
2163.854886	2865.333333
2165.492450	2902.666667
2167.129692	2876.000000
2168.764924	2854.666667
2170.399835	2866.333333
2172.034423	2774.666667
2173.668691	2872.333333
2175.299265	2791.000000
2176.932891	2793.333333
2178.562825	2847.666667
2180.194124	2791.333333
2181.823418	2921.000000
2183.452393	2858.000000
2185.081048	2847.000000
2186.709384	2870.666667
2188.335718	2857.000000
2189.961733	2846.333333
2191.585746	2832.666667
2193.211125	2797.000000
2194.834503	2728.333333
2196.459246	2837.000000
2198.080308	2857.000000
2199.701053	2770.333333
2201.323163	2846.000000
2202.943275	2814.000000
2204.561390	2765.333333
2206.179190	2875.666667
2207.796675	2810.000000
2209.413844	2785.000000
2211.030698	2704.666667
2212.647236	2824.000000
2214.261782	2827.333333
2215.874335	2857.000000
2217.488252	2773.666667
2219.100178	2787.000000
2220.713467	2833.000000
2222.324766	2763.666667
2223.934075	2805.666667
2225.544748	2822.000000
2227.153432	2777.333333
2228.761803	2780.000000
2230.368188	2803.333333
2231.975936	2749.666667
2233.581697	2782.000000
2235.187147	2775.333333
2236.790612	2740.333333
2238.395440	2763.000000
2239.998284	2795.000000
2241.599145	2743.000000
2243.201369	2784.666667
2244.801611	2744.333333
2246.403215	2823.666667
2248.001166	2821.333333
2249.600480	2772.333333
2251.197814	2701.666667
2252.794840	2783.000000
2254.393228	2777.666667
2255.987967	2792.666667
2257.580729	2825.333333
2259.174854	2727.333333
2260.770340	2777.000000
2262.362181	2771.666667
2263.953716	2749.666667
2265.546613	2751.333333
2267.134200	2658.333333
2268.726483	2791.333333
2270.313460	2727.333333
2271.903464	2742.666667
2273.488164	2687.000000
2275.077558	2749.666667
2276.661650	2750.666667
2278.247102	2710.333333
2279.830586	2738.666667
2281.417095	2719.333333
2282.999971	2708.666667
2284.582544	2644.666667
2286.164813	2720.000000
2287.743452	2783.000000
2289.325116	2697.333333
2290.903151	2692.333333
2292.484209	2665.000000
2294.061640	2621.333333
2295.637108	2577.666667
2297.215598	2637.666667
2298.790464	2603.000000
2300.365029	2637.000000
2301.939294	2584.000000
2303.513258	2674.333333
2305.086921	2577.333333
2306.660285	2625.000000
2308.230030	2600.333333
2309.799476	2567.666667
2311.371940	2643.333333
2312.939130	2661.333333
2314.509338	2591.000000
2316.075931	2629.333333
2317.643884	2665.000000
2319.209881	2589.333333
2320.775581	2622.666667
2322.340983	2597.666667
2323.904432	2640.000000
2325.469240	2702.333333
2327.030440	2704.666667
2328.594654	2584.333333
2330.153606	2636.666667
2331.715573	2599.333333
2333.275588	2608.000000
2334.835309	2652.000000
2336.393080	2582.333333
2337.950556	2612.666667
2339.507738	2581.000000
2341.062972	2666.333333
2342.617913	2527.333333
2344.172559	2639.666667
2345.726912	2677.666667
2347.280972	2596.333333
2348.834737	2642.666667
2350.386558	2626.000000
2351.936437	2604.333333
2353.489323	2620.333333
2355.036966	2606.666667
2356.587618	2543.333333
2358.134678	2607.333333
2359.683096	2569.000000
2361.231223	2612.333333
2362.775761	2611.666667
2364.321657	2541.666667
2365.865615	2582.000000
2367.410930	2547.666667
2368.952660	2622.666667
2370.495747	2585.000000
2372.036898	2538.000000
2373.577760	2543.666667
2375.118333	2636.666667
2376.658617	2564.000000
2378.198612	2557.333333
2379.735029	2619.333333
2381.274447	2587.000000
2382.810287	2547.000000
2384.347485	2569.666667
2385.881107	2624.000000
2387.417729	2597.000000
2388.952421	2588.000000
2390.485183	2563.000000
2392.017658	2486.333333
2393.548205	2574.333333
2395.081750	2589.000000
2396.610084	2560.333333
2398.139774	2591.333333
2399.669179	2581.666667
2401.198299	2518.000000
2402.727134	2565.000000
2404.250763	2545.000000
2405.779028	2521.000000
2407.302091	2516.333333
2408.829787	2551.666667
2410.350644	2478.666667
2411.876134	2549.000000
2413.398063	2547.333333
2414.921348	2489.000000
2416.442711	2527.000000
2417.962155	2500.333333
2419.482954	2583.000000
2421.001835	2485.333333
2422.520433	2538.333333
2424.037114	2516.333333
2425.555149	2479.333333
2427.072903	2475.666667
2428.587106	2456.666667
2430.101028	2525.333333
2431.614670	2459.000000
2433.129667	2476.000000
2434.641115	2491.666667
2436.153918	2500.333333
2437.664807	2478.000000
2439.175418	2513.000000
2440.684117	2472.666667
2442.195802	2497.333333
2443.703944	2441.000000
2445.211808	2532.000000
2446.719394	2436.333333
2448.223439	2461.000000
2449.730469	2379.333333
2451.235591	2455.666667
2452.740436	2490.666667
2454.243374	2429.666667
2455.746036	2454.000000
2457.248421	2508.666667
2458.748901	2410.000000
2460.250734	2434.666667
2461.750662	2431.666667
2463.250315	2370.666667
2464.749693	2392.000000
2466.247168	2459.333333
2467.742741	2319.000000
2469.241294	2382.666667
2470.736319	2376.666667
2472.232696	2402.666667
2473.725547	2389.000000
2475.219751	2364.000000
2476.713681	2374.000000
2478.204087	2368.000000
2479.697471	2415.666667
2481.188957	2447.333333
2482.678546	2394.666667
2484.167863	2380.000000
2485.655284	2381.000000
2487.145681	2441.666667
2488.632560	2383.000000
2490.120790	2376.000000
2491.605503	2355.000000
2493.089947	2318.666667
2494.575741	2358.333333
2496.059644	2310.666667
2497.544897	2361.333333
2499.025017	2374.333333
2500.508110	2405.000000
2501.989312	2322.000000
2503.470245	2388.666667
2504.949289	2391.666667
2506.428064	2390.333333
2507.906571	2392.666667
2509.384810	2375.333333
2510.862780	2348.333333
2512.337245	2391.000000
2513.814680	2382.666667
2515.288611	2369.333333
2516.763892	2360.333333
2518.238906	2353.000000
2519.710419	2432.333333
2521.183283	2403.000000
2522.654264	2379.666667
2524.126595	2400.666667
2525.593812	2447.666667
2527.063996	2341.666667
2528.532299	2290.333333
2530.000337	2384.666667
2531.468110	2335.333333
2532.935618	2329.000000
2534.402861	2418.000000
2535.866612	2371.666667
2537.331713	2401.333333
2538.794937	2366.333333
2540.259510	2358.000000
2541.720595	2373.000000
2543.183029	2334.000000
2544.645200	2323.666667
2546.103885	2347.333333
2547.567141	2304.333333
2549.025302	2403.333333
2550.484811	2294.333333
2551.939226	2333.666667
2553.398212	2282.666667
2554.855326	2350.000000
2556.310569	2289.000000
2557.765550	2293.333333
2559.218663	2345.333333
2560.673124	2311.000000
2562.125715	2320.333333
2563.578047	2363.000000
2565.028512	2340.000000
2566.481932	2296.666667
2567.930270	2238.333333
2569.381563	2297.000000
2570.830991	2268.333333
2572.276946	2301.000000
2573.725856	2271.000000
2575.171296	2284.333333
2576.618083	2331.000000
2578.063008	2275.666667
2579.507674	2315.666667
2580.953688	2297.666667
2582.396236	2234.333333
2583.840131	2298.666667
2585.280561	2246.000000
2586.722338	2291.000000
2588.162256	2320.666667
2589.603521	2249.333333
2591.041324	2258.000000
2592.482077	2301.333333
2593.917768	2277.000000
2595.356408	2323.666667
2596.793190	2333.666667
2598.228117	2287.000000
2599.665991	2255.333333
2601.098808	2317.000000
2602.532972	2288.333333
2603.965282	2313.333333
2605.398938	2222.000000
2606.830741	2172.000000
2608.262290	2278.666667
2609.693587	2202.000000
2611.123031	2259.333333
2612.552223	2208.000000
2613.979565	2220.666667
2615.408252	2227.666667
2616.836688	2211.000000
2618.261676	2265.333333
2619.688011	2212.666667
2621.112497	2290.666667
2622.538329	2193.000000
2623.960717	2240.000000
2625.384451	2238.333333
2626.806338	2211.666667
2628.227976	2189.666667
2629.647768	2253.333333
2631.068906	2181.000000
2632.489794	2206.000000
2633.907244	2172.000000
2635.327633	2251.333333
2636.744585	2241.666667
2638.161288	2205.000000
2639.577743	2265.333333
2640.993950	2154.666667
2642.409909	2122.000000
2643.824027	2154.000000
2645.237897	2209.333333
2646.649929	2146.333333
2648.063304	2165.000000
2649.473250	2199.333333
2650.886132	2213.666667
2652.295585	2140.333333
2653.704792	2183.666667
2655.112163	2216.000000
2656.522468	2165.666667
2657.930938	2199.333333
2659.337572	2197.000000
2660.743961	2127.000000
2662.148516	2217.333333
2663.554415	2166.333333
2664.958481	2212.000000
2666.362302	2129.666667
2667.765879	2147.000000
2669.167625	2279.666667
2670.570714	2148.666667
2671.970385	2215.666667
2673.371400	2157.000000
2674.768999	2172.000000
2676.169527	2173.333333
2677.566641	2133.666667
2678.965098	2121.666667
2680.361728	2186.000000
2681.758115	2180.000000
2683.154260	2251.333333
2684.548579	2147.000000
2685.944241	2143.000000
2687.336494	2184.666667
2688.730089	2137.666667
2690.121860	2063.000000
2691.514974	2127.333333
2692.906264	2133.333333
2694.295731	2122.000000
2695.684958	2128.333333
2697.073946	2115.000000
2698.464275	2086.000000
2699.849621	2129.666667
2701.237890	2123.000000
2702.624339	2174.666667
2704.010549	2090.666667
2705.396520	2160.000000
2706.779093	2075.666667
2708.163008	2092.000000
2709.546685	2075.000000
2710.930123	2126.666667
2712.310167	2116.333333
2713.691551	2097.666667
2715.071121	2118.333333
2716.452031	2071.000000
2717.831127	2126.666667
2719.208409	2094.666667
2720.587032	2078.000000
2721.963842	2141.333333
2723.340415	2127.000000
2724.716753	2132.333333
2726.091280	2109.000000
2727.467147	2091.666667
2728.839627	2070.000000
2730.215023	2024.666667
2731.585459	2040.000000
2732.957236	2062.000000
2734.328778	2052.333333
2735.698512	2104.333333
2737.069587	2086.333333
2738.438853	2074.000000
2739.807886	2053.666667
2741.175113	2115.666667
2742.542106	2110.333333
2743.908867	2055.333333
2745.275396	2055.000000
2746.640119	2056.000000
2748.004610	2023.666667
2749.368870	2036.333333
2750.732897	2033.000000
2752.096693	2038.666667
2753.457115	2014.333333
2754.820447	1990.333333
2756.178837	2051.000000
2757.540137	2046.000000
2758.898067	2023.666667
2760.258905	2005.000000
2761.617944	1913.666667
2762.973614	2005.333333
2764.332192	2001.666667
2765.687403	2019.666667
2767.042385	1946.333333
2768.395571	2008.333333
2769.751662	1992.000000
2771.104390	1968.000000
2772.456890	1954.333333
2773.809161	1964.333333
2775.162770	1974.666667
2776.513019	2017.666667
2777.861473	2027.000000
2779.212833	1974.000000
2780.560833	2005.666667
2781.910171	1944.333333
2783.257717	1971.333333
2784.605037	1960.666667
2785.952130	1961.666667
2787.297432	1989.666667
2788.642507	1938.000000
2789.987357	1994.000000
2791.331981	1905.666667
2792.673253	1939.000000
2794.015863	1998.000000
2795.358247	1940.666667
2796.700406	1970.333333
2798.039216	1909.333333
2799.380926	1925.000000
2800.719288	1956.333333
2802.058986	1895.333333
2803.396900	1982.333333
2804.733029	1922.000000
2806.068934	1960.000000
2807.406177	1966.666667
2808.741636	1958.000000
2810.076872	1983.333333
2811.410325	1964.666667
2812.745115	1934.666667
2814.076565	1947.666667
2815.410910	1934.000000
2816.740357	1891.000000
2818.071141	1938.000000
2819.401703	1915.666667
2820.730486	1924.666667
2822.060605	1907.666667
2823.388946	1925.333333
2824.717066	1915.666667
2826.043408	1928.666667
2827.371087	1862.666667
2828.695432	1928.333333
2830.021114	1909.333333
2831.345020	1949.333333
2832.668707	1869.333333
2833.993729	1855.666667
2835.315421	1873.333333
2836.636895	1919.666667
2837.958150	1915.333333
2839.279186	1876.000000
2840.598449	1884.666667
2841.919048	1922.000000
2843.237876	1858.333333
2844.556485	1879.333333
2845.873323	1862.333333
2847.189944	1885.666667
2848.506348	1861.000000
2849.820982	1833.666667
2851.136952	1827.000000
2852.449601	1875.000000
2853.763585	1858.333333
2855.077353	1864.333333
2856.390904	1963.333333
2857.702689	1867.333333
2859.012707	1895.333333
2860.324060	1849.333333
2861.632098	1887.000000
2862.941470	1874.333333
2864.250628	1902.000000
2865.559570	1816.333333
2866.866748	1914.333333
2868.172164	1845.333333
2869.478913	1872.333333
2870.783901	1870.000000
2872.088675	1870.333333
2873.391687	1876.000000
2874.697580	1839.666667
2875.998619	1903.333333
2877.300992	1884.333333
2878.601605	1873.333333
2879.903552	1852.666667
2881.205285	1832.666667
2882.503715	1887.333333
2883.803478	1868.000000
2885.101484	1804.333333
2886.399278	1829.666667
2887.695316	1837.000000
2888.992687	1770.000000
2890.288302	1823.000000
2891.583706	1842.333333
2892.878899	1841.333333
2894.170795	1853.333333
2895.465567	1812.666667
2896.757042	1846.666667
2898.049850	1828.000000
2899.342448	1785.000000
2900.631752	1891.666667
2901.922388	1759.000000
2903.211273	1790.333333
2904.501490	1779.000000
2905.788416	1835.000000
2907.076674	1784.333333
2908.363183	1806.000000
2909.649483	1865.666667
2910.935576	1761.333333
2912.219920	1832.666667
2913.507135	1771.000000
2914.789524	1787.000000
2916.073245	1805.666667
2917.355220	1815.000000
2918.636987	1774.666667
2919.917010	1823.333333
2921.199902	1842.666667
2922.481049	1848.333333
2923.758914	1778.333333
2925.039648	1791.333333
2926.317101	1777.333333
2927.594348	1763.000000
2928.869853	1867.000000
2930.148226	1779.000000
2931.421785	1778.000000
2932.698211	1781.333333
2933.972896	1762.000000
2935.245840	1776.000000
2936.520116	1772.333333
2937.792652	1721.333333
2939.064983	1737.666667
2940.334042	1785.333333
2941.605966	1740.000000
2942.876152	1757.666667
2944.146134	1780.333333
2945.415913	1728.000000
2946.683956	1755.000000
2947.950262	1684.333333
2949.216367	1742.333333
2950.483801	1762.333333
2951.749501	1763.000000
2953.014998	1732.000000
2954.280293	1797.666667
2955.542323	1762.666667
2956.805683	1728.333333
2958.068842	1707.000000
2959.330269	1753.666667
2960.593025	1764.333333
2961.854049	1706.333333
2963.113343	1689.333333
2964.372437	1763.000000
2965.631330	1737.333333
2966.890023	1773.000000
2968.148516	1691.000000
2969.405280	1730.666667
2970.661844	1712.000000
2971.916681	1709.000000
2973.172846	1713.333333
2974.425757	1745.333333
2975.679997	1746.000000
2976.934037	1777.666667
2978.186353	1629.333333
2979.438469	1756.000000
2980.688861	1741.000000
2981.942108	1756.000000
2983.190578	1697.000000
2984.441903	1743.000000
2985.689978	1676.666667
2986.937857	1673.666667
2988.185538	1702.666667
2989.433022	1684.666667
2990.678785	1629.000000
2991.924352	1659.333333
2993.171246	1682.333333
2994.414896	1615.000000
2995.659874	1683.333333
2996.901608	1651.333333
2998.146194	1679.666667
2999.389061	1728.000000
3000.628687	1654.000000
3001.871163	1652.000000
3003.110399	1701.000000
3004.350963	1689.666667
3005.589810	1628.666667
3006.828463	1669.333333
3008.065400	1665.333333
3009.303665	1624.666667
3010.540214	1591.666667
3011.776570	1634.666667
3013.012732	1549.333333
3014.247180	1646.000000
3015.481436	1675.000000
3016.715498	1649.333333
3017.947848	1617.333333
3019.178486	1662.000000
3020.411970	1647.666667
3021.643742	1620.666667
3022.873804	1590.666667
3024.103673	1640.333333
3025.331833	1613.333333
3026.561320	1637.333333
3027.789097	1582.000000
3029.016683	1575.000000
3030.245596	1582.333333
3031.469766	1590.333333
3032.696779	1612.000000
3033.920568	1563.000000
3035.145684	1676.333333
3036.369093	1602.000000
3037.592312	1633.000000
3038.813826	1628.000000
3040.038181	1641.333333
3041.257801	1591.666667
3042.478747	1578.333333
3043.699504	1548.666667
3044.918557	1584.000000
3046.138935	1589.000000
3047.356097	1561.000000
3048.574585	1571.333333
3049.791370	1582.666667
3051.007968	1596.666667
3052.224377	1596.666667
3053.437574	1596.666667
3054.653608	1580.333333
3055.866430	1577.000000
3057.082089	1571.000000
3058.293025	1587.666667
3059.505286	1530.333333
3060.717361	1540.000000
3061.929248	1569.333333
3063.139439	1556.000000
3064.349443	1549.333333
3065.559261	1601.666667
3066.767383	1564.666667
3067.975320	1574.666667
3069.181561	1539.000000
3070.389127	1580.666667
3071.594998	1571.000000
3072.800685	1561.333333
3074.006186	1577.000000
3075.209994	1570.000000
3076.415126	1593.000000
3077.618565	1581.666667
3078.820313	1592.666667
3080.021876	1554.666667
3081.223256	1478.333333
3082.424452	1553.000000
3083.623958	1481.666667
3084.823281	1544.000000
3086.023927	1505.333333
3087.222883	1535.666667
3088.418645	1569.000000
3089.617236	1553.000000
3090.812633	1492.666667
3092.009353	1521.666667
3093.202881	1485.333333
3094.399237	1551.333333
3095.593907	1515.333333
3096.785385	1550.666667
3097.981196	1563.000000
3099.172312	1497.666667
3100.364752	1529.666667
3101.554004	1557.000000
3102.746081	1507.000000
3103.936475	1502.666667
3105.123683	1470.000000
3106.312213	1489.666667
3107.502066	1506.666667
3108.688735	1511.000000
3109.875223	1499.000000
3111.061533	1491.666667
3112.249164	1464.333333
3113.433613	1518.666667
3114.616383	1535.666667
3115.801975	1485.000000
3116.985888	1461.666667
3118.168122	1511.333333
3119.350177	1453.000000
3120.532054	1453.333333
3121.713753	1491.000000
3122.893775	1513.333333
3124.072120	1439.000000
3125.253285	1510.333333
3126.431275	1476.333333
3127.609089	1474.666667
3128.786725	1533.333333
3129.962686	1445.666667
3131.138470	1451.000000
3132.315576	1486.666667
3133.491007	1486.000000
3134.664765	1465.666667
3135.836850	1502.666667
3137.010257	1464.333333
3138.183487	1478.666667
3139.355046	1465.666667
3140.527925	1465.333333
3141.697637	1446.000000
3142.868670	1427.666667
3144.038033	1520.333333
3145.205725	1449.333333
3146.376233	1511.000000
3147.542083	1403.666667
3148.712241	1510.333333
3149.877743	1454.333333
3151.043070	1475.333333
3152.208224	1477.666667
3153.373205	1425.000000
3154.539505	1454.333333
3155.701153	1484.000000
3156.864120	1387.666667
3158.026915	1432.666667
3159.189537	1427.666667
3160.350494	1426.000000
3161.511278	1398.000000
3162.671890	1435.000000
3163.830838	1447.666667
3164.989615	1395.000000
3166.148220	1413.000000
3167.306652	1410.666667
3168.464914	1455.333333
3169.621513	1492.333333
3170.776451	1377.333333
3171.932708	1446.666667
3173.087304	1379.333333
3174.241730	1402.333333
3175.394496	1418.000000
3176.547091	1385.000000
3177.699517	1390.666667
3178.851773	1388.000000
3180.003858	1411.666667
3181.152798	1423.000000
3182.304544	1427.333333
3183.454632	1369.000000
3184.603064	1400.333333
3185.751326	1399.666667
3186.899420	1390.666667
3188.047345	1461.333333
3189.193614	1400.333333
3190.339715	1381.000000
3191.484162	1398.000000
3192.628441	1425.000000
3193.772552	1407.000000
3194.917980	1370.000000
3196.060270	1414.000000
3197.202393	1338.666667
3198.344348	1405.000000
3199.486136	1376.333333
3200.627757	1398.666667
3201.766243	1397.000000
3202.906046	1390.333333
3204.047167	1335.333333
3205.185153	1397.333333
3206.321490	1373.666667
3207.457661	1354.000000
3208.595149	1370.666667
3209.730989	1340.666667
3210.868146	1346.333333
3212.000690	1372.333333
3213.137516	1381.000000
3214.269730	1362.000000
3215.403261	1409.000000
3216.536628	1360.000000
3217.666867	1311.333333
3218.799904	1358.000000
3219.929815	1376.000000
3221.061042	1349.000000
3222.189145	1322.333333
3223.320044	1268.333333
3224.449299	1287.000000
3225.576911	1298.666667
3226.701400	1318.666667
3227.830165	1304.000000
3228.955808	1299.333333
3230.081289	1300.333333
3231.205128	1298.000000
3232.331761	1338.666667
3233.453797	1334.666667
3234.577149	1317.000000
3235.700339	1314.333333
3236.823366	1320.333333
3237.944755	1315.000000
3239.065981	1303.000000
3240.185570	1259.333333
3241.304997	1277.000000
3242.422786	1270.000000
3243.543367	1250.333333
3244.660835	1344.000000
3245.778142	1294.333333
3246.895289	1261.000000
3248.010800	1329.000000
3249.127625	1378.000000
3250.241341	1342.333333
3251.357846	1375.666667
3252.472717	1367.000000
3253.584479	1316.666667
3254.696081	1324.333333
3255.808999	1342.000000
3256.921757	1303.333333
3258.031409	1285.000000
3259.142376	1305.666667
3260.253184	1347.666667
3261.362360	1289.666667
3262.469906	1328.000000
3263.578765	1260.666667
3264.687467	1304.333333
3265.793066	1328.666667
3266.899979	1321.000000
3268.005263	1313.000000
3269.111861	1327.666667
3270.215359	1293.000000
3271.320172	1336.666667
3272.424827	1275.000000
3273.526383	1351.000000
3274.627783	1277.333333
3275.730497	1304.000000
3276.833055	1313.666667
3277.932516	1341.000000
3279.034761	1277.333333
3280.133910	1283.666667
3281.231435	1248.000000
3282.328804	1263.333333
3283.428955	1276.333333
3284.526014	1289.000000
3285.622917	1266.000000
3286.719665	1333.666667
3287.811855	1292.333333
3288.908293	1254.666667
3290.003109	1202.000000
3291.097771	1283.666667
3292.190811	1266.000000
3293.283696	1305.666667
3294.374962	1292.000000
3295.467539	1270.333333
3296.558497	1216.000000
3297.647835	1234.666667
3298.737020	1232.000000
3299.827518	1273.000000
3300.914931	1228.000000
3302.002191	1207.666667
3303.090764	1254.666667
3304.179185	1241.333333
3305.263058	1177.000000
3306.351173	1266.666667
3307.436206	1273.333333
3308.519624	1223.000000
3309.604354	1266.000000
3310.687468	1272.666667
3311.771895	1220.000000
3312.853243	1250.000000
3313.935903	1201.666667
3315.016949	1212.000000
3316.097844	1254.666667
3317.177125	1273.000000
3318.256256	1319.666667
3319.336699	1197.000000
3320.414067	1233.000000
3321.492747	1212.000000
3322.569815	1276.333333
3323.646734	1287.000000
3324.722041	1268.000000
3325.797199	1195.666667
3326.873668	1181.000000
3327.947067	1212.000000
3329.020317	1192.666667
3330.094877	1242.000000
3331.167829	1203.333333
3332.239172	1182.000000
3333.311826	1202.000000
3334.381414	1213.333333
3335.452312	1187.666667
3336.521603	1184.000000
3337.592205	1165.666667
3338.661200	1214.666667
3339.728589	1214.666667
3340.794373	1183.333333
3341.864383	1153.666667
3342.931330	1193.666667
3343.995215	1171.333333
3345.061868	1214.333333
3346.126916	1198.000000
3347.190361	1170.000000
3348.253660	1169.333333
3349.316812	1217.333333
3350.379818	1196.666667
3351.442678	1164.000000
3352.503936	1173.666667
3353.562137	1143.000000
3354.624558	1139.333333
3355.683924	1200.666667
3356.743144	1174.666667
3357.803673	1145.333333
3358.859694	1158.333333
3359.918478	1172.000000
3360.972755	1096.333333
3362.029796	1148.333333
3363.085238	1165.333333
3364.141990	1187.666667
3365.197143	1139.000000
3366.250699	1184.333333
3367.302659	1178.000000
3368.357380	1197.333333
3369.409052	1180.333333
3370.460581	1154.000000
3371.513418	1187.000000
3372.563208	1156.000000
3373.614307	1152.666667
3374.662360	1156.000000
3375.713172	1152.333333
3376.760940	1161.666667
3377.808565	1182.666667
3378.856047	1181.000000
3379.901937	1173.666667
3380.949135	1167.333333
3381.993291	1152.333333
3383.040205	1178.666667
3384.085527	1161.000000
3385.127808	1152.666667
3386.169949	1175.333333
3387.213397	1174.666667
3388.256704	1100.666667
3389.298422	1207.000000
3390.339998	1181.000000
3391.381433	1224.333333
3392.421280	1146.666667
3393.459538	1103.333333
3394.499104	1122.333333
3395.538530	1175.000000
3396.576368	1140.000000
3397.612619	1201.000000
3398.648731	1150.333333
3399.686150	1155.000000
3400.720536	1161.333333
3401.756229	1168.666667
3402.791783	1116.000000
3403.824306	1132.000000
3404.859582	1178.666667
3405.891827	1131.000000
3406.923934	1141.000000
3407.954457	1151.666667
3408.986287	1103.333333
3410.017979	1128.333333
3411.046643	1121.333333
3412.075170	1126.333333
3413.105003	1115.666667
3414.134699	1174.333333
3415.161369	1099.000000
3416.189346	1126.333333
3417.214298	1120.000000
3418.242000	1159.666667
3419.266679	1097.333333
3420.292664	1126.666667
3421.317069	1102.666667
3422.341338	1125.000000
3423.364028	1149.000000
3424.386582	1098.333333
3425.410442	1109.000000
3426.431282	1142.666667
3427.451986	1165.333333
3428.473997	1135.000000
3429.492989	1070.333333
3430.511845	1105.000000
3431.532008	1094.333333
3432.549154	1108.666667
