-116.707459	42.666667
-114.037859	-21.333333
-111.371194	-1.333333
-108.705281	-7.000000
-106.042300	12.000000
-103.377890	10.666667
-100.716410	19.000000
-98.053501	-1.333333
-95.395698	11.000000
-92.736466	34.333333
-90.077982	28.666667
-87.422422	13.666667
-84.765434	16.333333
-82.113544	18.000000
-79.460224	15.333333
-76.809823	48.333333
-74.157993	37.666667
-71.511254	13.666667
-68.863086	34.666667
-66.215660	20.000000
-63.571148	19.666667
-60.925208	17.666667
-58.284349	29.666667
-55.642061	51.333333
-53.002682	19.333333
-50.361873	35.333333
-47.721805	33.333333
-45.086809	23.000000
-42.450385	59.333333
-39.816863	20.333333
-37.181913	35.000000
-34.552028	13.666667
-31.918551	21.333333
-29.290136	45.000000
-26.662455	53.333333
-24.033345	39.666667
-21.409292	35.666667
-18.781650	16.333333
-16.159061	46.333333
-13.537204	50.666667
-10.916077	77.000000
-8.295680	145.333333
-5.678172	493.333333
-3.059235	1424.000000
-0.443183	3255.666667
2.172140	3223.333333
4.786736	1505.000000
7.398449	167.333333
10.011591	46.000000
12.619699	43.333333
15.231389	40.666667
17.838048	54.666667
20.446135	26.000000
23.053498	36.000000
25.655836	29.666667
28.261752	24.333333
30.862646	21.666667
33.464968	54.000000
36.062273	46.666667
38.663153	49.333333
41.259018	21.333333
43.856312	50.666667
46.452886	13.333333
49.044451	34.000000
51.637444	25.333333
54.227576	69.333333
56.819136	47.666667
59.407836	58.333333
61.997963	45.666667
64.583091	46.666667
67.169647	37.333333
69.755489	50.666667
72.338477	39.333333
74.922891	33.000000
77.500177	45.333333
80.081029	59.000000
82.659032	49.000000
85.236325	68.666667
87.815044	60.333333
90.388781	50.000000
92.963946	17.666667
95.536267	43.333333
98.107880	48.666667
100.676653	101.000000
103.246853	56.666667
105.814215	67.000000
108.383002	70.000000
110.948953	59.000000
113.512069	143.000000
116.078741	172.000000
118.636192	184.333333
121.199328	243.333333
123.757504	334.333333
126.319235	510.000000
128.876009	802.666667
131.434210	1107.333333
133.987457	1670.000000
136.540007	2404.000000
139.096107	3409.333333
141.647259	4433.666667
144.197714	5323.333333
146.747471	6067.333333
149.294409	6511.666667
151.840652	6744.000000
154.388320	6888.000000
156.935292	6946.333333
159.477329	6974.000000
162.018672	6837.333333
164.559322	6875.666667
167.101398	6813.333333
169.640662	6858.666667
172.177118	6747.666667
174.712882	6726.666667
177.250072	6818.666667
179.786571	6731.000000
182.320264	6786.000000
184.851153	6721.333333
187.381355	6686.000000
189.912981	6642.000000
192.441806	6715.666667
194.967832	6556.666667
197.493172	6626.000000
200.019937	6571.333333
202.543906	6541.666667
205.067190	6630.666667
207.589789	6561.666667
210.109595	6604.666667
212.628718	6577.000000
215.147158	6560.000000
217.667022	6615.000000
220.179885	6534.000000
222.696279	6567.666667
225.211991	6648.666667
227.722813	6581.666667
230.235060	6637.333333
232.744525	6728.333333
235.253311	6734.666667
237.761418	6741.666667
240.270950	6672.000000
242.775601	6782.666667
245.279576	6732.666667
247.784975	6638.000000
250.285499	6792.000000
252.789547	6743.000000
255.286623	6756.333333
257.787223	6692.000000
260.285051	6728.666667
262.782206	6904.000000
265.278688	6896.333333
267.770307	6804.000000
270.265446	6779.666667
272.757818	6856.000000
275.249520	6867.000000
277.738459	6814.666667
280.228822	6771.666667
282.716422	6740.000000
285.201263	6812.333333
287.689619	6768.000000
290.171035	6844.333333
292.655965	6845.333333
295.136050	6835.000000
297.619647	6754.333333
300.098401	6867.666667
302.578579	6816.333333
305.056004	6848.000000
307.532766	6863.333333
310.008865	6844.333333
312.482215	6874.333333
314.954903	6841.000000
317.426930	6802.666667
319.898296	6833.666667
322.366917	6956.333333
324.834880	7051.000000
327.304264	6951.333333
329.768826	6909.000000
332.236892	6857.333333
334.700138	6985.666667
337.162726	6892.666667
339.624658	6837.666667
342.085933	6981.333333
344.544474	6901.666667
347.004437	6935.333333
349.461667	6741.666667
351.918243	6823.666667
354.374165	6810.333333
356.827357	6707.666667
359.281972	6799.666667
361.731785	6626.666667
364.185094	6707.333333
366.633605	6736.000000
369.081464	6552.333333
371.530746	6507.333333
373.975234	6420.666667
376.421144	6394.333333
378.866404	6394.333333
381.308946	6456.000000
383.750840	6324.000000
386.192087	6290.666667
388.630618	6203.000000
391.070571	6110.666667
393.507810	6175.000000
395.942337	6148.666667
398.380352	6009.000000
400.813590	6099.333333
403.248249	6073.000000
405.678136	5990.333333
408.111508	6003.666667
410.540110	6039.666667
412.968070	5904.000000
415.397452	5935.333333
417.822068	5899.000000
420.248106	5862.000000
422.673503	5928.333333
425.098260	5884.333333
427.518259	5948.666667
429.939679	5964.333333
432.358402	5935.000000
434.778546	5999.000000
437.195995	5933.666667
439.614864	5882.666667
442.031040	5937.000000
444.442468	5968.333333
446.857374	5939.000000
449.269589	5821.333333
451.681170	5877.666667
454.092117	5946.666667
456.500378	5870.333333
458.908006	5909.000000
461.315002	5963.000000
463.721367	5847.666667
466.125049	5882.333333
468.528101	5889.333333
470.930523	5854.666667
473.332315	5851.666667
475.731430	5831.666667
478.131964	5869.666667
480.531869	5800.666667
482.927051	5723.000000
485.325700	5865.333333
487.719629	5788.000000
490.112932	5792.000000
492.505609	5782.000000
494.897661	5832.666667
497.291131	5775.666667
499.679889	5711.000000
502.065981	5716.000000
504.453493	5672.666667
506.840382	5810.000000
509.224607	5814.333333
511.610250	5775.666667
513.993232	5705.666667
516.373553	5771.000000
518.755293	5782.666667
521.134374	5654.666667
523.514874	5701.000000
525.892716	5693.000000
528.267903	5755.666667
530.642472	5641.333333
533.018459	5673.000000
535.391794	5726.333333
537.766546	5689.000000
540.136613	5664.333333
542.506064	5583.000000
544.876933	5633.666667
547.243122	5520.666667
549.610729	5545.333333
551.975690	5397.000000
554.340038	5417.000000
556.703773	5346.333333
559.068926	5430.666667
561.429407	5361.666667
563.791306	5285.333333
566.150564	5185.000000
568.507185	5186.333333
570.867250	5189.666667
573.220624	5101.333333
575.577443	5161.333333
577.931627	5122.666667
580.285202	4955.000000
582.638170	4887.333333
584.988505	4918.666667
587.340258	4907.000000
589.685334	4826.333333
592.035874	4850.333333
594.379740	4778.000000
596.729068	4792.333333
599.073747	4668.333333
601.415802	4703.333333
603.759274	4701.333333
606.100123	4634.000000
608.440370	4677.666667
610.777996	4648.666667
613.119057	4719.333333
615.455480	4601.333333
617.793320	4639.666667
620.128543	4637.000000
622.461150	4577.666667
624.795173	4678.666667
627.126582	4693.000000
629.457393	4700.000000
631.787607	4486.333333
634.117222	4716.333333
636.442214	4651.333333
638.772648	4620.333333
641.098461	4643.666667
643.421666	4666.000000
645.746288	4730.333333
648.068304	4647.666667
650.389726	4728.000000
652.708546	4688.333333
655.028781	4714.333333
657.348423	4813.333333
659.665464	4683.666667
661.981913	4728.333333
664.295764	4720.666667
666.611031	4748.000000
668.923701	4839.000000
671.237786	4842.000000
673.547271	4815.000000
675.858172	4929.333333
678.166480	4830.000000
680.474200	4835.333333
682.783334	4897.666667
685.087876	5002.333333
687.391832	4970.666667
689.695202	5026.333333
691.999986	5037.333333
694.300184	5135.666667
696.601796	5198.666667
698.902823	5115.666667
701.199269	5244.666667
703.497130	5219.666667
705.794407	5226.000000
708.091101	5141.000000
710.383219	5317.333333
712.678748	5249.666667
714.969703	5378.000000
717.262073	5346.666667
719.551868	5260.666667
721.841082	5447.000000
724.129717	5404.333333
726.415779	5428.666667
728.703256	5411.333333
730.988161	5474.666667
733.272489	5446.333333
735.554248	5561.333333
737.837421	5555.333333
740.120017	5588.333333
742.398057	5601.666667
744.677512	5618.000000
746.956390	5722.333333
749.234694	5728.000000
751.508448	5793.666667
753.783615	5759.333333
756.058209	5845.000000
758.330244	5761.333333
760.603692	5842.333333
762.874582	5910.666667
765.142916	5934.333333
767.412663	5899.666667
769.679856	5957.666667
771.946478	6052.000000
774.212530	6032.333333
776.476031	6032.333333
778.740945	6021.666667
781.005289	6114.666667
783.265104	6100.333333
785.526331	6140.333333
787.786991	6178.000000
790.045105	6185.000000
792.300674	6152.333333
794.559634	6245.000000
796.812095	6168.666667
799.069922	6146.666667
801.323231	6226.333333
803.574000	6204.666667
805.826181	6326.333333
808.075823	6302.000000
810.326878	6257.666667
812.573421	6304.000000
814.821376	6337.666667
817.066797	6418.333333
819.313629	6250.333333
821.559900	6432.666667
823.801666	6362.666667
826.046816	6422.333333
828.285493	6427.000000
830.527552	6503.333333
832.765113	6595.333333
835.004086	6631.666667
837.240532	6589.333333
839.478389	6552.333333
841.713721	6590.666667
843.946530	6670.666667
846.180750	6715.666667
848.412447	6724.000000
850.643590	6800.000000
852.874178	6804.333333
855.104212	6914.333333
857.333692	7015.333333
859.558690	7058.333333
861.787063	7140.666667
864.010956	7157.666667
866.236261	7260.333333
868.457090	7375.666667
870.681291	7527.333333
872.901019	7547.000000
875.122157	7645.666667
877.342745	7711.666667
879.560824	7829.000000
881.780312	7859.000000
883.995334	8083.666667
886.209808	8022.666667
888.423735	8091.333333
890.637115	8031.000000
892.849947	8139.000000
895.062233	8190.666667
897.272016	8206.333333
899.481254	8156.000000
901.689947	8123.666667
903.896141	8190.333333
906.103744	8049.666667
908.308849	8038.666667
910.513411	8078.000000
912.715478	7910.333333
914.918954	7877.000000
917.119936	7785.666667
919.320376	7694.000000
921.522225	7436.000000
923.717683	7461.000000
925.916500	7299.666667
928.110878	7237.666667
930.308614	6978.666667
932.501914	6897.000000
934.696623	6931.000000
936.888846	6704.666667
939.080530	6478.666667
941.271677	6651.333333
943.460341	6612.000000
945.648469	6407.000000
947.834116	6447.000000
950.023115	6504.000000
952.207691	6523.333333
954.391732	6533.333333
956.579123	6398.333333
958.758210	6528.666667
960.940648	6368.000000
963.122552	6367.333333
965.301981	6556.333333
967.478938	6392.666667
969.657303	6469.666667
971.837075	6421.000000
974.010498	6444.333333
976.187267	6398.000000
978.359629	6299.666667
980.533399	6314.333333
982.702765	6248.000000
984.875475	6116.333333
987.045720	6176.333333
989.215436	6234.666667
991.384623	6142.666667
993.549413	6050.666667
995.717544	5966.333333
997.881281	5924.333333
1000.046424	5813.666667
1002.209108	5862.666667
1004.371267	5863.666667
1006.530969	5722.333333
1008.690146	5608.000000
1010.850730	5590.000000
1013.008859	5529.666667
1015.166465	5503.000000
1017.323547	5323.666667
1019.480105	5390.333333
1021.632284	5475.000000
1023.785870	5342.000000
1025.938934	5310.666667
1028.089549	5225.000000
1030.241571	5276.666667
1032.389219	5261.666667
1034.540199	5253.333333
1036.686808	5155.000000
1038.832898	5091.000000
1040.978470	5110.000000
1043.125447	5133.666667
1045.266135	5084.666667
1047.410153	5024.333333
1049.551730	4939.333333
1051.692791	5034.000000
1053.835256	5005.666667
1055.971442	5002.000000
1058.110953	4935.333333
1060.246110	4943.333333
1062.384591	4922.000000
1064.518718	4823.000000
1066.652332	4896.333333
1068.787351	4756.666667
1070.918020	4885.333333
1073.050094	4819.666667
1075.179739	4836.333333
1077.308872	4784.000000
1079.437493	4758.666667
1081.565603	4677.666667
1083.691287	4740.000000
1085.816461	4594.666667
1087.943039	4643.666667
1090.065279	4608.000000
1092.188924	4665.333333
1094.308234	4600.333333
1096.432774	4497.333333
1098.551068	4478.666667
1100.670767	4539.666667
1102.788047	4442.666667
1104.904821	4334.333333
1107.021088	4287.000000
1109.134939	4381.000000
1111.250195	4314.333333
1113.361127	4270.666667
1115.475372	4150.666667
1117.585296	4258.000000
1119.696624	4152.666667
1121.807447	4176.666667
1123.913954	4046.666667
1126.023771	4034.000000
1128.129273	4118.666667
1130.236178	4067.666667
1132.336868	3946.000000
1134.442770	3973.000000
1136.544363	3919.333333
1138.647359	4057.000000
1140.749854	3873.333333
1142.846142	3877.000000
1144.947637	3824.666667
1147.044830	3897.666667
1149.141525	3815.333333
1151.237721	3808.666667
1153.333420	3847.333333
1155.428620	3725.333333
1157.521424	3815.333333
1159.615631	3717.333333
1161.703646	3666.333333
1163.796859	3809.333333
1165.883884	3632.666667
1167.974208	3750.333333
1170.060244	3674.666667
1172.149579	3609.666667
1174.232732	3612.666667
1176.317287	3682.666667
1178.403244	3515.333333
1180.484919	3630.000000
1182.567996	3545.000000
1184.648687	3598.666667
1186.728886	3515.666667
1188.808594	3524.000000
1190.887811	3499.666667
1192.964646	3483.333333
1195.039100	3543.000000
1197.116845	3543.666667
1199.190321	3535.000000
1201.265197	3504.333333
1203.335806	3490.000000
1205.407816	3527.666667
1207.477451	3478.333333
1209.548486	3487.666667
1211.619033	3514.666667
1213.685319	3463.000000
1215.753006	3585.333333
1217.818321	3500.666667
1219.885036	3459.666667
1221.947495	3478.333333
1224.013239	3435.000000
1226.074729	3509.666667
1228.137620	3486.333333
1230.198143	3569.000000
1232.258182	3374.333333
1234.317739	3474.666667
1236.374930	3492.333333
1238.431640	3474.666667
1240.485986	3451.000000
1242.543614	3458.333333
1244.598879	3379.000000
1246.649903	3508.333333
1248.702327	3481.000000
1250.754271	3470.333333
1252.803857	3513.333333
1254.852964	3452.666667
1256.901593	3426.333333
1258.949743	3488.333333
1260.997414	3451.000000
1263.040855	3506.333333
1265.087572	3400.000000
1267.131935	3421.333333
1269.175822	3461.000000
1271.217357	3476.333333
1273.256543	3493.333333
1275.299002	3400.333333
1277.337238	3499.333333
1279.376873	3512.000000
1281.416033	3454.666667
1283.450974	3492.000000
1285.487314	3387.000000
1287.521310	3466.333333
1289.556703	3413.666667
1291.587884	3483.666667
1293.620462	3366.000000
1295.652569	3606.333333
1297.682335	3527.000000
1299.713498	3454.666667
1301.740455	3558.666667
1303.768809	3571.333333
1305.792958	3509.666667
1307.820373	3441.666667
1309.843585	3458.333333
1311.868195	3513.333333
1313.890471	3554.666667
1315.914144	3576.666667
1317.935484	3428.000000
1319.956356	3519.666667
1321.976761	3423.666667
1323.992973	3478.333333
1326.010582	3485.666667
1328.025863	3493.000000
1330.044403	3527.000000
1332.058754	3560.666667
1334.070779	3449.666667
1336.086061	3540.333333
1338.097158	3477.000000
1340.109652	3423.666667
1342.117963	3508.000000
1344.129529	3499.666667
1346.135057	3533.000000
1348.143840	3584.000000
1350.148445	3506.333333
1352.156304	3611.333333
1354.163701	3548.333333
1356.165067	3448.000000
1358.167829	3490.333333
1360.170132	3512.666667
1362.171975	3518.000000
1364.173358	3503.333333
1366.172428	3481.000000
1368.171039	3459.333333
1370.169192	3474.000000
1372.166886	3513.666667
1374.160418	3424.000000
1376.155345	3504.000000
1378.149816	3473.333333
1380.143830	3467.000000
1382.135537	3439.666667
1384.126789	3528.333333
1386.115735	3404.333333
1388.106076	3473.000000
1390.095962	3434.000000
1392.083544	3481.000000
1394.070673	3417.333333
1396.055500	3522.666667
1398.041722	3409.666667
1400.025644	3395.333333
1402.009113	3336.333333
1403.992129	3386.666667
1405.972848	3449.333333
1407.954961	3458.000000
1409.934778	3440.333333
1411.914143	3407.666667
1413.889370	3358.666667
1415.867835	3375.000000
1417.844007	3416.666667
1419.819730	3451.000000
1421.795003	3359.000000
1423.767985	3343.333333
1425.740519	3375.666667
1427.712605	3356.000000
1429.684244	3366.666667
1431.651754	3309.000000
1433.624338	3383.000000
1435.589116	3379.000000
1437.558967	3357.000000
1439.524694	3361.000000
1441.491813	3318.000000
1443.456649	3369.666667
1445.417365	3369.000000
1447.383149	3292.666667
1449.342978	3219.333333
1451.304201	3408.666667
1453.266816	3354.333333
1455.225316	3390.000000
1457.183373	3302.000000
1459.140989	3403.000000
1461.098162	3287.666667
1463.053060	3334.000000
1465.009351	3356.666667
1466.963367	3378.333333
1468.916942	3391.333333
1470.868245	3290.666667
1472.820941	3408.000000
1474.771364	3387.000000
1476.721349	3318.333333
1478.670895	3331.333333
1480.618172	3328.666667
1482.563181	3333.000000
1484.509583	3343.666667
1486.455547	3386.333333
1488.401074	3337.333333
1490.344335	3369.666667
1492.287161	3321.666667
1494.227723	3330.000000
1496.169676	3330.333333
1498.109367	3393.666667
1500.048624	3363.333333
1501.987445	3323.666667
1503.924007	3390.333333
1505.861960	3322.333333
1507.797654	3339.000000
1509.732915	3273.000000
1511.665920	3416.000000
1513.598492	3267.666667
1515.530632	3334.333333
1517.462340	3275.333333
1519.391794	3343.666667
1521.322639	3284.333333
1523.253052	3336.333333
1525.179393	3351.666667
1527.107125	3357.666667
1529.032606	3296.666667
1530.957658	3337.666667
1532.882281	3384.333333
1534.806475	3330.000000
1536.728421	3351.000000
1538.651758	3342.000000
1540.572848	3357.000000
1542.491694	3400.666667
1544.411930	3387.000000
1546.329923	3412.666667
1548.247489	3400.666667
1550.162813	3431.333333
1552.079527	3344.333333
1553.992186	3358.333333
1555.908049	3456.333333
1557.821672	3468.666667
1559.733057	3487.000000
1561.645832	3411.333333
1563.554557	3419.666667
1565.464671	3452.333333
1567.374362	3413.666667
1569.283630	3464.000000
1571.190664	3432.666667
1573.095465	3488.000000
1575.001655	3485.000000
1576.905613	3433.333333
1578.809150	3338.333333
1580.712267	3430.333333
1582.613154	3397.333333
1584.515430	3345.666667
1586.415478	3265.333333
1588.316913	3308.333333
1590.214315	3242.333333
1592.111298	3317.000000
1594.007863	3308.666667
1595.905816	3317.666667
1597.797934	3274.000000
1599.693245	3262.333333
1601.588139	3355.666667
1603.480811	3292.333333
1605.373066	3278.000000
1607.263102	3342.666667
1609.152722	3286.666667
1611.041927	3231.666667
1612.930717	3250.666667
1614.817289	3235.000000
1616.705249	3286.000000
1618.589192	3192.666667
1620.474522	3220.666667
1622.359439	3259.333333
1624.242142	3187.000000
1626.126232	3301.333333
1628.006310	3221.333333
1629.887776	3181.000000
1631.767031	3160.333333
1633.647672	3222.333333
1635.522509	3162.666667
1637.402327	3185.333333
1639.278141	3142.666667
1641.153544	3135.000000
1643.030333	3196.333333
1644.901326	3157.666667
1646.775500	3233.333333
1648.645675	3201.000000
1650.519032	3138.666667
1652.390184	3237.666667
1654.259136	3158.333333
1656.129472	3205.000000
1657.995816	3182.666667
1659.863545	3082.000000
1661.729075	3147.333333
1663.595991	3192.666667
1665.458918	3126.666667
1667.323230	3172.666667
1669.185346	3189.666667
1671.047057	3111.333333
1672.910154	3136.666667
1674.771055	3109.000000
1676.629764	3115.333333
1678.488069	3075.666667
1680.347759	3152.666667
1682.201681	3130.333333
1684.058777	3154.666667
1685.915470	3125.666667
1687.768186	3105.333333
1689.624074	3128.000000
1691.475988	3081.333333
1693.327501	3089.666667
1695.178613	3132.333333
1697.029325	3107.666667
1698.879635	3046.000000
1700.727762	3123.666667
1702.577273	3183.333333
1704.421035	3032.000000
1706.269746	3119.666667
1708.112711	3010.000000
1709.958843	3174.666667
1711.801012	3120.000000
1713.646347	3036.333333
1715.485941	3076.666667
1717.326919	3145.666667
1719.169280	3072.333333
1721.007685	3063.333333
1722.847473	3044.333333
1724.685086	2993.333333
1726.522303	3041.000000
1728.357347	3021.333333
1730.193774	3018.666667
1732.028029	3009.333333
1733.861889	2991.666667
1735.695355	3054.000000
1737.524876	3020.333333
1739.357555	3001.333333
1741.186290	2962.666667
1743.018182	2942.666667
1744.846132	2963.333333
1746.673691	3022.333333
1748.500857	2952.666667
1750.327632	2993.666667
1752.154015	2993.000000
1753.976462	3093.333333
1755.802064	2998.666667
1757.623731	3022.000000
1759.446780	3012.000000
1761.267667	2985.000000
1763.088166	2958.000000
1764.910045	2954.000000
1766.726226	2971.666667
1768.545558	2979.333333
1770.360963	2958.666667
1772.179518	2989.333333
1773.994148	2935.666667
1775.808391	2982.333333
1777.622248	2906.333333
1779.435718	2934.666667
1781.247035	2884.000000
1783.059732	2950.000000
1784.872044	2956.666667
1786.680438	2920.000000
1788.490212	2949.333333
1790.296072	2883.333333
1792.105077	2942.666667
1793.910169	2982.333333
1795.716642	2864.333333
1797.522731	2948.000000
1799.324909	2930.000000
1801.130232	2972.666667
1802.931646	2900.000000
1804.734440	2932.333333
1806.533328	2892.000000
1808.333597	2936.333333
1810.133484	2962.000000
1811.931229	2900.666667
1813.728594	2899.000000
1815.525579	2927.333333
1817.322183	2944.333333
1819.116648	3018.666667
1820.912492	2938.333333
1822.702681	2948.666667
1824.497767	2947.333333
1826.287201	2906.333333
1828.079771	2948.000000
1829.870206	2951.666667
1831.658507	2882.000000
1833.449943	2910.000000
1835.235733	2901.000000
1837.022903	2897.000000
1838.807941	2901.000000
1840.596113	2909.333333
1842.380399	2934.666667
1844.162555	2991.333333
1845.946091	2891.333333
1847.727498	2894.000000
1849.510284	2925.000000
1851.289189	2895.666667
1853.069474	2834.666667
1854.847632	2875.666667
1856.627169	2833.666667
1858.404581	2962.000000
1860.179869	2855.666667
1861.956535	2910.666667
1863.731079	2902.000000
1865.507001	2800.333333
1867.277302	2884.666667
1869.050731	2825.333333
1870.822040	2814.333333
1872.592978	2769.666667
1874.365294	2894.000000
1876.131996	2822.666667
1877.901824	2867.000000
1879.667788	2918.666667
1881.436875	2803.666667
1883.202101	2907.333333
1884.966959	2861.333333
1886.733194	2865.000000
1888.495570	2863.000000
1890.257579	2842.666667
1892.019220	2874.666667
1893.780495	2839.000000
1895.541402	2847.333333
1897.301943	2809.666667
1899.060374	2815.333333
1900.818439	2856.666667
1902.574397	2796.000000
1904.331731	2877.000000
1906.088700	2825.333333
1907.843562	2841.666667
1909.596320	2802.000000
1911.348713	2829.333333
1913.102483	2792.000000
1914.854149	2882.000000
1916.603713	2860.000000
1918.354652	2811.000000
1920.105229	2793.666667
1921.851966	2861.333333
1923.600080	2790.000000
1925.346094	2807.666667
1927.093483	2798.333333
1928.838775	2841.000000
1930.581969	2833.666667
1932.326538	2820.333333
1934.069012	2785.333333
1935.811125	2786.000000
1937.552878	2847.000000
1939.294271	2816.333333
1941.033571	2803.666667
1942.772512	2810.000000
1944.511094	2790.000000
1946.247585	2799.333333
1947.983718	2810.833333
1949.721225	2822.333333
1951.454910	2809.666667
1953.189970	2785.000000
1954.922941	2799.333333
1956.655556	2886.000000
1958.387815	2813.666667
1960.119717	2786.333333
1961.849533	2876.333333
1963.577264	2805.000000
1965.306370	2814.333333
1967.035121	2827.333333
1968.761788	2836.000000
1970.488101	2838.333333
1972.215787	2835.000000
1973.937937	2830.666667
1975.663188	2816.000000
1977.384632	2768.000000
1979.109177	2847.666667
1980.831641	2829.333333
1982.550303	2905.666667
1984.272063	2846.000000
1985.990021	2767.666667
1987.709352	2847.333333
1989.424884	2726.333333
1991.145236	2840.333333
1992.861790	2833.666667
1994.574547	2850.666667
1996.290400	2844.000000
1998.004181	2849.333333
1999.717612	2784.333333
2001.428972	2829.000000
2003.141704	2766.666667
2004.850646	2786.666667
2006.562680	2848.333333
2008.269206	2789.666667
2009.978823	2860.333333
2011.686374	2822.333333
2013.393576	2756.333333
2015.098713	2791.333333
2016.803504	2819.666667
2018.509666	2766.333333
2020.212046	2718.333333
2021.915797	2786.000000
2023.617486	2765.666667
2025.318830	2806.666667
2027.019828	2783.000000
2028.718765	2775.666667
2030.419074	2815.666667
2032.115608	2818.000000
2033.813513	2806.333333
2035.509359	2826.000000
2037.208291	2795.666667
2038.901737	2832.000000
2040.596554	2754.666667
2042.291029	2807.333333
2043.981735	2790.666667
2045.675525	2828.000000
2047.365548	2835.666667
2049.056942	2807.000000
2050.746283	2810.666667
2052.436994	2842.000000
2054.123942	2786.000000
2055.810551	2781.666667
2057.498529	2803.666667
2059.182748	2791.333333
2060.868338	2767.333333
2062.553588	2830.666667
2064.236789	2759.000000
2065.921361	2738.333333
2067.600470	2737.000000
2069.284364	2728.666667
2070.962797	2742.000000
2072.644308	2665.333333
2074.322067	2700.333333
2075.999490	2762.000000
2077.678282	2730.666667
2079.355032	2692.000000
2081.029740	2740.000000
2082.705817	2797.666667
2084.379853	2759.666667
2086.053555	2748.000000
2087.726921	2770.000000
2089.398248	2751.333333
2091.069241	2713.000000
2092.739900	2792.000000
2094.410225	2758.333333
2096.080216	2705.666667
2097.748171	2759.000000
2099.415793	2693.333333
2101.081380	2667.666667
2102.748336	2779.333333
2104.413259	2665.666667
2106.077850	2758.666667
2107.740409	2737.666667
2109.404336	2786.000000
2111.066232	2710.333333
2112.727798	2777.000000
2114.389032	2766.000000
2116.048238	2752.666667
2117.707113	2817.333333
2119.365659	2792.000000
2121.023874	2746.333333
2122.678367	2769.666667
2124.335924	2739.000000
2125.993152	2678.666667
2127.646658	2799.000000
2129.301532	2714.333333
2130.952687	2736.333333
2132.606905	2741.666667
2134.257406	2619.666667
2135.909273	2728.666667
2137.555732	2646.666667
2139.206946	2700.666667
2140.854446	2741.666667
2142.503313	2669.333333
2144.150161	2698.333333
2145.796684	2709.333333
2147.442881	2711.666667
2149.085370	2731.666667
2150.730917	2652.666667
2152.372757	2702.666667
2154.017654	2653.666667
2155.658845	2672.333333
2157.299714	2729.666667
2158.940258	2728.666667
2160.578790	2662.333333
2162.218688	2648.666667
2163.854886	2669.333333
2165.492450	2607.000000
2167.129692	2709.666667
2168.764924	2669.666667
2170.399835	2581.333333
2172.034423	2674.000000
2173.668691	2641.000000
2175.299265	2648.666667
2176.932891	2578.333333
2178.562825	2656.333333
2180.194124	2589.000000
2181.823418	2595.333333
2183.452393	2655.666667
2185.081048	2589.666667
2186.709384	2620.666667
2188.335718	2592.000000
2189.961733	2584.666667
2191.585746	2640.666667
2193.211125	2652.333333
2194.834503	2618.000000
2196.459246	2621.333333
2198.080308	2644.666667
2199.701053	2558.666667
2201.323163	2617.000000
2202.943275	2609.666667
2204.561390	2562.000000
2206.179190	2531.666667
2207.796675	2557.333333
2209.413844	2532.666667
2211.030698	2626.333333
2212.647236	2583.000000
2214.261782	2591.666667
2215.874335	2597.666667
2217.488252	2550.000000
2219.100178	2581.333333
2220.713467	2506.333333
2222.324766	2603.333333
2223.934075	2592.000000
2225.544748	2597.000000
2227.153432	2536.333333
2228.761803	2550.333333
2230.368188	2589.000000
2231.975936	2548.666667
2233.581697	2609.333333
2235.187147	2604.000000
2236.790612	2616.666667
2238.395440	2495.000000
2239.998284	2613.000000
2241.599145	2528.666667
2243.201369	2528.666667
2244.801611	2530.000000
2246.403215	2615.000000
2248.001166	2541.666667
2249.600480	2574.000000
2251.197814	2523.333333
2252.794840	2588.666667
2254.393228	2598.333333
2255.987967	2549.000000
2257.580729	2577.333333
2259.174854	2561.000000
2260.770340	2556.000000
2262.362181	2556.000000
2263.953716	2568.333333
2265.546613	2551.666667
2267.134200	2565.666667
2268.726483	2492.666667
2270.313460	2483.666667
2271.903464	2519.000000
2273.488164	2466.333333
2275.077558	2549.333333
2276.661650	2520.666667
2278.247102	2580.666667
2279.830586	2493.000000
2281.417095	2520.666667
2282.999971	2571.666667
2284.582544	2472.333333
2286.164813	2491.000000
2287.743452	2454.666667
2289.325116	2429.666667
2290.903151	2451.333333
2292.484209	2417.333333
2294.061640	2442.500000
2295.637108	2467.666667
2297.215598	2388.333333
2298.790464	2424.000000
2300.365029	2512.000000
2301.939294	2471.666667
2303.513258	2427.333333
2305.086921	2464.000000
2306.660285	2399.000000
2308.230030	2413.000000
2309.799476	2422.666667
2311.371940	2447.000000
2312.939130	2392.666667
2314.509338	2370.333333
2316.075931	2459.666667
2317.643884	2470.333333
2319.209881	2427.666667
2320.775581	2436.333333
2322.340983	2478.666667
2323.904432	2396.000000
2325.469240	2421.333333
2327.030440	2455.333333
2328.594654	2488.333333
2330.153606	2485.666667
2331.715573	2432.000000
2333.275588	2425.000000
2334.835309	2372.000000
2336.393080	2431.333333
2337.950556	2359.000000
2339.507738	2490.666667
2341.062972	2560.333333
2342.617913	2439.000000
2344.172559	2489.666667
2345.726912	2417.333333
2347.280972	2464.000000
2348.834737	2445.000000
2350.386558	2449.000000
2351.936437	2440.333333
2353.489323	2413.000000
2355.036966	2458.000000
2356.587618	2381.333333
2358.134678	2415.000000
2359.683096	2413.333333
2361.231223	2471.333333
2362.775761	2448.666667
2364.321657	2405.666667
2365.865615	2437.666667
2367.410930	2463.333333
2368.952660	2362.000000
2370.495747	2392.000000
2372.036898	2429.666667
2373.577760	2432.000000
2375.118333	2427.333333
2376.658617	2396.000000
2378.198612	2366.000000
2379.735029	2352.333333
2381.274447	2464.000000
2382.810287	2358.666667
2384.347485	2432.666667
2385.881107	2345.666667
2387.417729	2358.333333
2388.952421	2437.666667
2390.485183	2377.333333
2392.017658	2328.000000
2393.548205	2380.333333
2395.081750	2356.000000
2396.610084	2410.000000
2398.139774	2343.000000
2399.669179	2307.333333
2401.198299	2394.666667
2402.727134	2374.666667
2404.250763	2297.000000
2405.779028	2350.666667
2407.302091	2324.000000
2408.829787	2355.000000
2410.350644	2331.000000
2411.876134	2364.333333
2413.398063	2342.333333
2414.921348	2365.666667
2416.442711	2334.666667
2417.962155	2372.000000
2419.482954	2333.000000
2421.001835	2416.666667
2422.520433	2373.000000
2424.037114	2405.333333
2425.555149	2369.000000
2427.072903	2372.333333
2428.587106	2320.000000
2430.101028	2362.333333
2431.614670	2357.333333
2433.129667	2304.333333
2434.641115	2299.333333
2436.153918	2358.666667
2437.664807	2304.333333
2439.175418	2297.000000
2440.684117	2339.333333
2442.195802	2349.666667
2443.703944	2282.333333
2445.211808	2292.666667
2446.719394	2285.333333
2448.223439	2285.000000
2449.730469	2321.666667
2451.235591	2317.333333
2452.740436	2357.333333
2454.243374	2302.333333
2455.746036	2261.000000
2457.248421	2336.000000
2458.748901	2265.000000
2460.250734	2229.666667
2461.750662	2282.000000
2463.250315	2209.666667
2464.749693	2291.666667
2466.247168	2196.666667
2467.742741	2253.666667
2469.241294	2219.666667
2470.736319	2216.666667
2472.232696	2188.666667
2473.725547	2212.666667
2475.219751	2252.333333
2476.713681	2254.666667
2478.204087	2286.333333
2479.697471	2165.000000
2481.188957	2151.666667
2482.678546	2240.333333
2484.167863	2187.666667
2485.655284	2189.666667
2487.145681	2210.333333
2488.632560	2259.000000
2490.120790	2233.666667
2491.605503	2279.333333
2493.089947	2236.333333
2494.575741	2176.666667
2496.059644	2135.000000
2497.544897	2200.000000
2499.025017	2255.666667
2500.508110	2217.333333
2501.989312	2234.333333
2503.470245	2179.333333
2504.949289	2307.333333
2506.428064	2249.666667
2507.906571	2196.666667
2509.384810	2231.333333
2510.862780	2177.333333
2512.337245	2214.000000
2513.814680	2170.000000
2515.288611	2231.333333
2516.763892	2200.333333
2518.238906	2186.666667
2519.710419	2196.333333
2521.183283	2214.000000
2522.654264	2238.333333
2524.126595	2220.333333
2525.593812	2217.000000
2527.063996	2167.666667
2528.532299	2186.666667
2530.000337	2174.333333
2531.468110	2228.666667
2532.935618	2228.333333
2534.402861	2204.000000
2535.866612	2226.333333
2537.331713	2164.333333
2538.794937	2220.666667
2540.259510	2175.000000
2541.720595	2194.666667
2543.183029	2203.333333
2544.645200	2118.000000
2546.103885	2257.000000
2547.567141	2176.000000
2549.025302	2188.666667
2550.484811	2151.333333
2551.939226	2165.333333
2553.398212	2198.333333
2554.855326	2185.333333
2556.310569	2156.000000
2557.765550	2162.666667
2559.218663	2201.333333
2560.673124	2129.333333
2562.125715	2173.333333
2563.578047	2154.000000
2565.028512	2147.666667
2566.481932	2136.666667
2567.930270	2146.333333
2569.381563	2185.666667
2570.830991	2202.000000
2572.276946	2161.666667
2573.725856	2192.333333
2575.171296	2171.666667
2576.618083	2137.666667
2578.063008	2204.666667
2579.507674	2216.000000
2580.953688	2201.666667
2582.396236	2193.000000
2583.840131	2167.666667
2585.280561	2128.333333
2586.722338	2130.333333
2588.162256	2134.000000
2589.603521	2141.333333
2591.041324	2158.666667
2592.482077	2111.000000
2593.917768	2118.666667
2595.356408	2143.666667
2596.793190	2089.666667
2598.228117	2172.333333
2599.665991	2097.666667
2601.098808	2095.666667
2602.532972	2068.000000
2603.965282	2170.333333
2605.398938	2138.000000
2606.830741	2161.333333
2608.262290	2102.666667
2609.693587	2130.666667
2611.123031	2171.000000
2612.552223	2165.000000
2613.979565	2105.000000
2615.408252	2157.333333
2616.836688	2167.333333
2618.261676	2125.666667
2619.688011	2117.000000
2621.112497	2144.666667
2622.538329	2049.666667
2623.960717	2188.000000
2625.384451	2140.000000
2626.806338	2123.333333
2628.227976	2162.666667
2629.647768	2072.000000
2631.068906	2122.666667
2632.489794	2083.000000
2633.907244	2079.000000
2635.327633	2163.666667
2636.744585	2142.333333
2638.161288	2144.333333
2639.577743	2015.666667
2640.993950	2083.666667
2642.409909	2050.333333
2643.824027	2081.333333
2645.237897	2071.666667
2646.649929	2065.333333
2648.063304	2131.666667
2649.473250	2090.333333
2650.886132	2113.000000
2652.295585	2078.333333
2653.704792	2025.333333
2655.112163	2078.000000
2656.522468	2078.666667
2657.930938	2065.333333
2659.337572	2059.333333
2660.743961	1983.666667
2662.148516	2099.333333
2663.554415	2053.333333
2664.958481	2097.666667
2666.362302	2036.666667
2667.765879	2086.000000
2669.167625	2096.333333
2670.570714	2065.333333
2671.970385	2075.000000
2673.371400	2078.666667
2674.768999	2053.333333
2676.169527	2130.666667
2677.566641	2054.666667
2678.965098	2043.666667
2680.361728	2149.000000
2681.758115	1997.666667
2683.154260	2049.000000
2684.548579	2043.666667
2685.944241	1989.333333
2687.336494	2001.000000
2688.730089	1989.666667
2690.121860	2010.000000
2691.514974	2034.000000
2692.906264	2019.333333
2694.295731	1993.666667
2695.684958	1992.666667
2697.073946	1973.000000
2698.464275	2000.000000
2699.849621	2001.666667
2701.237890	1938.000000
2702.624339	2036.000000
2704.010549	2050.333333
2705.396520	1995.000000
2706.779093	1988.333333
2708.163008	1975.000000
2709.546685	2002.333333
2710.930123	1967.333333
2712.310167	1955.000000
2713.691551	1967.000000
2715.071121	1929.333333
2716.452031	2001.333333
2717.831127	2001.333333
2719.208409	1962.333333
2720.587032	1994.666667
2721.963842	1952.000000
2723.340415	1990.333333
2724.716753	1943.333333
2726.091280	2052.000000
2727.467147	1960.666667
2728.839627	1919.000000
2730.215023	1919.333333
2731.585459	2001.666667
2732.957236	1977.000000
2734.328778	1958.666667
2735.698512	1939.333333
2737.069587	1941.000000
2738.438853	1976.333333
2739.807886	1924.666667
2741.175113	1932.000000
2742.542106	1967.333333
2743.908867	1975.666667
2745.275396	1905.333333
2746.640119	1976.000000
2748.004610	1941.666667
2749.368870	1970.666667
2750.732897	1936.000000
2752.096693	1894.333333
2753.457115	1952.666667
2754.820447	1941.666667
2756.178837	1918.000000
2757.540137	1908.000000
2758.898067	1916.333333
2760.258905	1878.333333
2761.617944	1864.333333
2762.973614	1912.333333
2764.332192	1832.000000
2765.687403	1878.000000
2767.042385	1938.000000
2768.395571	1900.666667
2769.751662	1833.333333
2771.104390	1869.333333
2772.456890	1905.000000
2773.809161	1918.000000
2775.162770	1894.000000
2776.513019	1911.666667
2777.861473	1832.000000
2779.212833	1862.333333
2780.560833	1904.000000
2781.910171	1937.000000
2783.257717	1854.666667
2784.605037	1886.000000
2785.952130	1857.666667
2787.297432	1867.000000
2788.642507	1826.000000
2789.987357	1818.000000
2791.331981	1857.666667
2792.673253	1814.333333
2794.015863	1870.333333
2795.358247	1782.666667
2796.700406	1835.666667
2798.039216	1871.666667
2799.380926	1822.666667
2800.719288	1839.000000
2802.058986	1794.333333
2803.396900	1842.333333
2804.733029	1885.333333
2806.068934	1867.000000
2807.406177	1822.666667
2808.741636	1818.666667
2810.076872	1830.333333
2811.410325	1810.000000
2812.745115	1813.666667
2814.076565	1853.666667
2815.410910	1860.666667
2816.740357	1798.000000
2818.071141	1836.666667
2819.401703	1870.666667
2820.730486	1835.333333
2822.060605	1842.000000
2823.388946	1772.333333
2824.717066	1798.000000
2826.043408	1780.666667
2827.371087	1883.000000
2828.695432	1825.333333
2830.021114	1851.000000
2831.345020	1794.000000
2832.668707	1824.666667
2833.993729	1763.000000
2835.315421	1833.000000
2836.636895	1747.000000
2837.958150	1797.000000
2839.279186	1748.666667
2840.598449	1775.666667
2841.919048	1755.000000
2843.237876	1730.333333
2844.556485	1737.333333
2845.873323	1751.333333
2847.189944	1713.666667
2848.506348	1702.333333
2849.820982	1798.666667
2851.136952	1769.666667
2852.449601	1773.666667
2853.763585	1744.333333
2855.077353	1740.000000
2856.390904	1713.666667
2857.702689	1776.000000
2859.012707	1740.666667
2860.324060	1820.333333
2861.632098	1749.000000
2862.941470	1686.000000
2864.250628	1809.333333
2865.559570	1783.666667
2866.866748	1837.666667
2868.172164	1755.666667
2869.478913	1766.333333
2870.783901	1726.666667
2872.088675	1775.333333
2873.391687	1748.333333
2874.697580	1768.000000
2875.998619	1744.000000
2877.300992	1709.333333
2878.601605	1776.000000
2879.903552	1713.000000
2881.205285	1715.333333
2882.503715	1668.666667
2883.803478	1747.666667
2885.101484	1731.666667
2886.399278	1777.000000
2887.695316	1739.000000
2888.992687	1760.666667
2890.288302	1769.333333
2891.583706	1668.666667
2892.878899	1752.000000
2894.170795	1728.666667
2895.465567	1816.000000
2896.757042	1731.000000
2898.049850	1733.666667
2899.342448	1730.333333
2900.631752	1745.333333
2901.922388	1656.000000
2903.211273	1693.666667
2904.501490	1667.333333
2905.788416	1770.000000
2907.076674	1754.000000
2908.363183	1720.000000
2909.649483	1759.333333
2910.935576	1742.333333
2912.219920	1659.333333
2913.507135	1697.333333
2914.789524	1710.333333
2916.073245	1730.333333
2917.355220	1659.000000
2918.636987	1666.666667
2919.917010	1626.333333
2921.199902	1723.666667
2922.481049	1682.000000
2923.758914	1736.333333
2925.039648	1662.333333
2926.317101	1687.333333
2927.594348	1631.666667
2928.869853	1697.333333
2930.148226	1625.000000
2931.421785	1716.333333
2932.698211	1662.666667
2933.972896	1712.333333
2935.245840	1656.333333
2936.520116	1643.666667
2937.792652	1623.333333
2939.064983	1652.000000
2940.334042	1748.000000
2941.605966	1663.000000
2942.876152	1661.333333
2944.146134	1587.333333
2945.415913	1604.333333
2946.683956	1648.000000
2947.950262	1583.333333
2949.216367	1658.333333
2950.483801	1634.666667
2951.749501	1581.666667
2953.014998	1611.333333
2954.280293	1627.000000
2955.542323	1633.333333
2956.805683	1660.666667
2958.068842	1565.000000
2959.330269	1639.666667
2960.593025	1629.333333
2961.854049	1594.333333
2963.113343	1585.333333
2964.372437	1630.000000
2965.631330	1628.333333
2966.890023	1639.333333
2968.148516	1601.666667
2969.405280	1561.333333
2970.661844	1590.000000
2971.916681	1567.666667
2973.172846	1589.333333
2974.425757	1604.333333
2975.679997	1556.666667
2976.934037	1573.000000
2978.186353	1592.000000
2979.438469	1616.666667
2980.688861	1598.333333
2981.942108	1554.666667
2983.190578	1629.666667
2984.441903	1620.333333
2985.689978	1592.000000
2986.937857	1580.000000
2988.185538	1554.666667
2989.433022	1579.666667
2990.678785	1587.666667
2991.924352	1569.666667
2993.171246	1570.666667
2994.414896	1626.333333
2995.659874	1593.000000
2996.901608	1542.000000
2998.146194	1525.333333
2999.389061	1566.333333
3000.628687	1584.666667
3001.871163	1563.333333
3003.110399	1573.666667
3004.350963	1558.000000
3005.589810	1570.333333
3006.828463	1583.000000
3008.065400	1606.000000
3009.303665	1545.000000
3010.540214	1578.333333
3011.776570	1571.000000
3013.012732	1547.333333
3014.247180	1518.000000
3015.481436	1549.666667
3016.715498	1554.000000
3017.947848	1551.666667
3019.178486	1560.000000
3020.411970	1532.333333
3021.643742	1539.000000
3022.873804	1508.000000
3024.103673	1537.666667
3025.331833	1529.000000
3026.561320	1463.000000
3027.789097	1483.333333
3029.016683	1575.666667
3030.245596	1546.000000
3031.469766	1540.333333
3032.696779	1471.666667
3033.920568	1569.666667
3035.145684	1479.333333
3036.369093	1537.666667
3037.592312	1514.666667
3038.813826	1520.000000
3040.038181	1511.666667
3041.257801	1498.666667
3042.478747	1495.333333
3043.699504	1511.666667
3044.918557	1515.666667
3046.138935	1476.000000
3047.356097	1446.333333
3048.574585	1529.666667
3049.791370	1481.333333
3051.007968	1504.333333
3052.224377	1498.000000
3053.437574	1451.333333
3054.653608	1491.000000
3055.866430	1506.333333
3057.082089	1457.666667
3058.293025	1532.666667
3059.505286	1471.333333
3060.717361	1474.666667
3061.929248	1505.000000
3063.139439	1458.333333
3064.349443	1524.333333
3065.559261	1501.666667
3066.767383	1503.333333
3067.975320	1485.666667
3069.181561	1492.000000
3070.389127	1463.000000
3071.594998	1490.666667
3072.800685	1518.333333
3074.006186	1486.000000
3075.209994	1445.000000
3076.415126	1390.666667
3077.618565	1496.333333
3078.820313	1481.000000
3080.021876	1435.666667
3081.223256	1482.666667
3082.424452	1469.333333
3083.623958	1466.333333
3084.823281	1456.666667
3086.023927	1485.000000
3087.222883	1426.000000
3088.418645	1473.000000
3089.617236	1426.000000
3090.812633	1431.000000
3092.009353	1489.000000
3093.202881	1469.000000
3094.399237	1464.333333
3095.593907	1463.666667
3096.785385	1431.333333
3097.981196	1470.000000
3099.172312	1458.666667
3100.364752	1449.666667
3101.554004	1471.000000
3102.746081	1399.666667
3103.936475	1436.666667
3105.123683	1458.666667
3106.312213	1405.333333
3107.502066	1428.333333
3108.688735	1462.666667
3109.875223	1400.666667
3111.061533	1411.000000
3112.249164	1433.666667
3113.433613	1422.666667
3114.616383	1405.666667
3115.801975	1384.666667
3116.985888	1387.666667
3118.168122	1420.333333
3119.350177	1367.666667
3120.532054	1427.000000
3121.713753	1382.000000
3122.893775	1430.666667
3124.072120	1382.333333
3125.253285	1392.666667
3126.431275	1378.333333
3127.609089	1378.666667
3128.786725	1355.666667
3129.962686	1389.333333
3131.138470	1371.000000
3132.315576	1412.666667
3133.491007	1453.000000
3134.664765	1415.000000
3135.836850	1359.333333
3137.010257	1395.000000
3138.183487	1414.333333
3139.355046	1366.333333
3140.527925	1375.333333
3141.697637	1352.666667
3142.868670	1390.333333
3144.038033	1433.000000
3145.205725	1404.333333
3146.376233	1401.000000
3147.542083	1347.666667
3148.712241	1377.333333
3149.877743	1349.333333
3151.043070	1359.666667
3152.208224	1382.333333
3153.373205	1432.000000
3154.539505	1348.333333
3155.701153	1366.666667
3156.864120	1385.666667
3158.026915	1326.000000
3159.189537	1372.333333
3160.350494	1381.000000
3161.511278	1305.333333
3162.671890	1319.666667
3163.830838	1315.333333
3164.989615	1345.333333
3166.148220	1350.333333
3167.306652	1354.666667
3168.464914	1342.666667
3169.621513	1366.000000
3170.776451	1311.666667
3171.932708	1303.000000
3173.087304	1310.666667
3174.241730	1346.000000
3175.394496	1266.333333
3176.547091	1302.333333
3177.699517	1297.000000
3178.851773	1272.333333
3180.003858	1239.333333
3181.152798	1308.666667
3182.304544	1303.000000
3183.454632	1289.333333
3184.603064	1280.333333
3185.751326	1333.000000
3186.899420	1336.666667
3188.047345	1251.000000
3189.193614	1383.000000
3190.339715	1321.000000
3191.484162	1333.333333
3192.628441	1281.666667
3193.772552	1384.000000
3194.917980	1321.333333
3196.060270	1374.333333
3197.202393	1314.000000
3198.344348	1326.000000
3199.486136	1286.000000
3200.627757	1321.333333
3201.766243	1278.000000
3202.906046	1309.666667
3204.047167	1307.666667
3205.185153	1283.000000
3206.321490	1274.666667
3207.457661	1288.666667
3208.595149	1311.000000
3209.730989	1303.000000
3210.868146	1324.333333
3212.000690	1337.333333
3213.137516	1308.333333
3214.269730	1245.333333
3215.403261	1304.666667
3216.536628	1293.000000
3217.666867	1287.000000
3218.799904	1262.333333
3219.929815	1289.000000
3221.061042	1256.000000
3222.189145	1227.666667
3223.320044	1269.333333
3224.449299	1272.000000
3225.576911	1272.666667
3226.701400	1202.333333
3227.830165	1218.333333
3228.955808	1283.333333
3230.081289	1276.333333
3231.205128	1251.333333
3232.331761	1240.333333
3233.453797	1291.000000
3234.577149	1238.333333
3235.700339	1224.000000
3236.823366	1231.666667
3237.944755	1250.333333
3239.065981	1213.000000
3240.185570	1275.000000
3241.304997	1206.000000
3242.422786	1233.333333
3243.543367	1211.000000
3244.660835	1241.666667
3245.778142	1239.666667
3246.895289	1263.666667
3248.010800	1229.000000
3249.127625	1267.000000
3250.241341	1251.000000
3251.357846	1290.000000
3252.472717	1257.666667
3253.584479	1239.000000
3254.696081	1238.000000
3255.808999	1258.000000
3256.921757	1199.000000
3258.031409	1280.333333
3259.142376	1189.000000
3260.253184	1262.000000
3261.362360	1204.000000
3262.469906	1198.333333
3263.578765	1226.333333
3264.687467	1225.666667
3265.793066	1231.000000
3266.899979	1200.666667
3268.005263	1211.333333
3269.111861	1163.333333
3270.215359	1232.333333
3271.320172	1226.333333
3272.424827	1202.000000
3273.526383	1225.666667
3274.627783	1228.000000
3275.730497	1207.333333
3276.833055	1271.333333
3277.932516	1222.333333
3279.034761	1255.333333
3280.133910	1228.000000
3281.231435	1242.000000
3282.328804	1207.333333
3283.428955	1226.333333
3284.526014	1265.333333
3285.622917	1172.333333
3286.719665	1233.000000
3287.811855	1144.333333
3288.908293	1215.333333
3290.003109	1141.333333
3291.097771	1185.333333
3292.190811	1202.333333
3293.283696	1212.666667
3294.374962	1169.666667
3295.467539	1190.000000
3296.558497	1198.000000
3297.647835	1223.000000
3298.737020	1196.333333
3299.827518	1214.333333
3300.914931	1162.333333
3302.002191	1189.333333
3303.090764	1171.333333
3304.179185	1164.333333
3305.263058	1198.333333
3306.351173	1197.666667
3307.436206	1165.666667
3308.519624	1231.000000
3309.604354	1139.666667
3310.687468	1171.000000
3311.771895	1198.333333
3312.853243	1158.666667
3313.935903	1187.000000
3315.016949	1180.666667
3316.097844	1217.000000
3317.177125	1119.000000
3318.256256	1130.333333
3319.336699	1172.666667
3320.414067	1170.666667
3321.492747	1236.333333
3322.569815	1167.000000
3323.646734	1237.333333
3324.722041	1159.333333
3325.797199	1142.000000
3326.873668	1148.333333
3327.947067	1151.000000
3329.020317	1161.000000
3330.094877	1132.000000
3331.167829	1105.333333
3332.239172	1217.666667
3333.311826	1171.333333
3334.381414	1136.333333
3335.452312	1120.000000
3336.521603	1130.666667
3337.592205	1106.666667
3338.661200	1113.333333
3339.728589	1160.333333
3340.794373	1110.333333
3341.864383	1149.666667
3342.931330	1160.666667
3343.995215	1189.666667
3345.061868	1123.000000
3346.126916	1114.333333
3347.190361	1150.333333
3348.253660	1090.333333
3349.316812	1148.000000
3350.379818	1136.333333
3351.442678	1107.333333
3352.503936	1151.666667
3353.562137	1123.333333
3354.624558	1104.333333
3355.683924	1121.000000
3356.743144	1105.333333
3357.803673	1134.000000
3358.859694	1103.666667
3359.918478	1137.000000
3360.972755	1136.333333
3362.029796	1156.333333
3363.085238	1134.333333
3364.141990	1115.333333
3365.197143	1124.333333
3366.250699	1168.666667
3367.302659	1108.666667
3368.357380	1113.000000
3369.409052	1158.333333
3370.460581	1139.666667
3371.513418	1133.333333
3372.563208	1102.666667
3373.614307	1128.666667
3374.662360	1140.000000
3375.713172	1099.666667
3376.760940	1114.666667
3377.808565	1116.333333
3378.856047	1149.000000
3379.901937	1068.666667
3380.949135	1147.333333
3381.993291	1084.000000
3383.040205	1120.000000
3384.085527	1126.333333
3385.127808	1089.666667
3386.169949	1102.666667
3387.213397	1102.000000
3388.256704	1067.333333
3389.298422	1110.666667
3390.339998	1094.666667
3391.381433	1097.666667
3392.421280	1109.666667
3393.459538	1089.333333
3394.499104	1112.333333
3395.538530	1062.000000
3396.576368	1127.666667
3397.612619	1097.000000
3398.648731	1132.333333
3399.686150	1106.333333
3400.720536	1075.666667
3401.756229	1066.333333
3402.791783	1054.666667
3403.824306	1098.666667
3404.859582	1099.000000
3405.891827	1040.333333
3406.923934	1093.666667
3407.954457	1127.333333
3408.986287	1049.333333
3410.017979	1086.666667
3411.046643	1054.333333
3412.075170	1090.333333
3413.105003	1034.666667
3414.134699	1094.666667
3415.161369	1073.666667
3416.189346	1095.000000
3417.214298	1092.666667
3418.242000	1021.333333
3419.266679	1089.000000
3420.292664	1105.666667
3421.317069	1114.333333
3422.341338	1089.000000
3423.364028	1077.333333
3424.386582	1057.000000
3425.410442	1065.000000
3426.431282	1084.000000
3427.451986	1044.666667
3428.473997	1033.333333
3429.492989	1074.333333
3430.511845	1078.666667
3431.532008	1076.333333
3432.549154	1058.000000
