-116.707459	6.333333
-114.037859	22.666667
-111.371194	7.000000
-108.705281	27.000000
-106.042300	7.000000
-103.377890	36.000000
-100.716410	-11.000000
-98.053501	8.333333
-95.395698	9.666667
-92.736466	13.666667
-90.077982	3.666667
-87.422422	9.333333
-84.765434	6.666667
-82.113544	2.666667
-79.460224	-9.000000
-76.809823	-4.666667
-74.157993	-12.666667
-71.511254	6.333333
-68.863086	17.333333
-66.215660	18.333333
-63.571148	15.000000
-60.925208	5.333333
-58.284349	-4.333333
-55.642061	49.000000
-53.002682	12.000000
-50.361873	35.000000
-47.721805	26.000000
-45.086809	3.333333
-42.450385	-1.000000
-39.816863	22.333333
-37.181913	7.333333
-34.552028	38.333333
-31.918551	43.666667
-29.290136	30.666667
-26.662455	10.666667
-24.033345	22.000000
-21.409292	10.666667
-18.781650	33.666667
-16.159061	28.333333
-13.537204	47.000000
-10.916077	57.666667
-8.295680	174.000000
-5.678172	517.666667
-3.059235	1700.333333
-0.443183	4212.333333
2.172140	4045.000000
4.786736	1853.000000
7.398449	259.000000
10.011591	56.666667
12.619699	31.000000
15.231389	3.000000
17.838048	13.333333
20.446135	1.666667
23.053498	24.333333
25.655836	39.666667
28.261752	17.666667
30.862646	-5.333333
33.464968	26.000000
36.062273	42.333333
38.663153	30.000000
41.259018	10.000000
43.856312	14.000000
46.452886	15.000000
49.044451	22.666667
51.637444	29.000000
54.227576	23.000000
56.819136	-5.333333
59.407836	50.333333
61.997963	-1.000000
64.583091	15.666667
67.169647	34.666667
69.755489	21.000000
72.338477	28.333333
74.922891	37.000000
77.500177	35.000000
80.081029	-10.333333
82.659032	3.333333
85.236325	49.666667
87.815044	5.333333
90.388781	14.666667
92.963946	25.666667
95.536267	41.000000
98.107880	59.000000
100.676653	40.666667
103.246853	16.666667
105.814215	51.666667
108.383002	44.666667
110.948953	66.333333
113.512069	79.000000
116.078741	75.000000
118.636192	137.000000
121.199328	191.333333
123.757504	218.000000
126.319235	369.666667
128.876009	448.333333
131.434210	697.333333
133.987457	1080.333333
136.540007	1564.333333
139.096107	2169.333333
141.647259	2739.666667
144.197714	3336.666667
146.747471	3742.333333
149.294409	4112.333333
151.840652	4260.666667
154.388320	4360.000000
156.935292	4444.666667
159.477329	4324.000000
162.018672	4251.666667
164.559322	4375.666667
167.101398	4337.333333
169.640662	4264.333333
172.177118	4270.666667
174.712882	4190.333333
177.250072	4196.666667
179.786571	4234.666667
182.320264	4175.000000
184.851153	4258.666667
187.381355	4200.333333
189.912981	4113.000000
192.441806	4125.666667
194.967832	4133.000000
197.493172	4062.333333
200.019937	4138.666667
202.543906	4142.000000
205.067190	4202.333333
207.589789	4061.000000
210.109595	4193.333333
212.628718	4160.666667
215.147158	4160.333333
217.667022	4128.000000
220.179885	4165.333333
222.696279	4111.000000
225.211991	4167.000000
227.722813	4141.333333
230.235060	4095.333333
232.744525	4218.666667
235.253311	4209.666667
237.761418	4196.333333
240.270950	4161.666667
242.775601	4213.333333
245.279576	4197.666667
247.784975	4167.333333
250.285499	4182.333333
252.789547	4263.000000
255.286623	4248.000000
257.787223	4258.666667
260.285051	4173.666667
262.782206	4262.000000
265.278688	4240.333333
267.770307	4334.666667
270.265446	4291.000000
272.757818	4198.333333
275.249520	4265.000000
277.738459	4295.666667
280.228822	4260.000000
282.716422	4186.333333
285.201263	4240.000000
287.689619	4270.666667
290.171035	4242.000000
292.655965	4207.333333
295.136050	4145.333333
297.619647	4310.000000
300.098401	4303.666667
302.578579	4257.333333
305.056004	4194.000000
307.532766	4261.666667
310.008865	4338.333333
312.482215	4188.000000
314.954903	4249.000000
317.426930	4177.666667
319.898296	4339.333333
322.366917	4380.000000
324.834880	4394.666667
327.304264	4328.333333
329.768826	4294.000000
332.236892	4386.333333
334.700138	4320.666667
337.162726	4275.000000
339.624658	4267.333333
342.085933	4181.666667
344.544474	4165.333333
347.004437	4166.333333
349.461667	4221.000000
351.918243	4210.333333
354.374165	4208.666667
356.827357	4212.333333
359.281972	4149.666667
361.731785	4196.333333
364.185094	4104.000000
366.633605	4067.000000
369.081464	3947.000000
371.530746	4028.333333
373.975234	4054.333333
376.421144	3986.666667
378.866404	3901.333333
381.308946	3890.666667
383.750840	3922.333333
386.192087	3840.666667
388.630618	3816.000000
391.070571	3890.000000
393.507810	3868.000000
395.942337	3740.000000
398.380352	3776.000000
400.813590	3778.000000
403.248249	3699.666667
405.678136	3740.000000
408.111508	3640.666667
410.540110	3834.333333
412.968070	3676.333333
415.397452	3682.666667
417.822068	3750.666667
420.248106	3787.000000
422.673503	3629.000000
425.098260	3692.666667
427.518259	3702.333333
429.939679	3716.000000
432.358402	3696.000000
434.778546	3643.333333
437.195995	3775.333333
439.614864	3781.000000
442.031040	3673.666667
444.442468	3673.333333
446.857374	3729.000000
449.269589	3648.333333
451.681170	3723.000000
454.092117	3696.333333
456.500378	3718.666667
458.908006	3641.666667
461.315002	3648.333333
463.721367	3663.000000
466.125049	3619.333333
468.528101	3605.666667
470.930523	3683.333333
473.332315	3627.000000
475.731430	3630.666667
478.131964	3663.666667
480.531869	3617.000000
482.927051	3657.333333
485.325700	3604.333333
487.719629	3634.000000
490.112932	3590.333333
492.505609	3666.666667
494.897661	3648.666667
497.291131	3575.000000
499.679889	3634.333333
502.065981	3552.333333
504.453493	3530.000000
506.840382	3605.666667
509.224607	3533.333333
511.610250	3575.666667
513.993232	3541.666667
516.373553	3539.333333
518.755293	3487.333333
521.134374	3437.000000
523.514874	3449.333333
525.892716	3477.333333
528.267903	3511.333333
530.642472	3567.333333
533.018459	3504.333333
535.391794	3471.000000
537.766546	3419.000000
540.136613	3452.666667
542.506064	3454.666667
544.876933	3415.333333
547.243122	3353.666667
549.610729	3330.333333
551.975690	3355.333333
554.340038	3359.333333
556.703773	3289.333333
559.068926	3363.666667
561.429407	3293.333333
563.791306	3230.000000
566.150564	3193.666667
568.507185	3213.666667
570.867250	3230.666667
573.220624	3121.000000
575.577443	3205.000000
577.931627	3131.000000
580.285202	3086.000000
582.638170	3035.666667
584.988505	3060.666667
587.340258	3036.666667
589.685334	3009.333333
592.035874	2988.666667
594.379740	3028.000000
596.729068	2966.666667
599.073747	2908.666667
601.415802	2973.333333
603.759274	2924.333333
606.100123	2903.333333
608.440370	2862.000000
610.777996	2937.333333
613.119057	2899.000000
615.455480	2890.333333
617.793320	2843.666667
620.128543	2863.333333
622.461150	2903.666667
624.795173	2878.333333
627.126582	2899.666667
629.457393	2940.666667
631.787607	2886.000000
634.117222	2945.000000
636.442214	2898.666667
638.772648	2949.666667
641.098461	2935.333333
643.421666	2917.000000
645.746288	2841.666667
648.068304	2944.333333
650.389726	2949.000000
652.708546	2941.666667
655.028781	2900.000000
657.348423	2958.333333
659.665464	3001.000000
661.981913	2960.000000
664.295764	2970.000000
666.611031	2984.000000
668.923701	3021.333333
671.237786	2965.333333
673.547271	2945.000000
675.858172	3072.333333
678.166480	3120.666667
680.474200	3088.000000
682.783334	3090.666667
685.087876	3067.000000
687.391832	3135.666667
689.695202	3124.666667
691.999986	3152.666667
694.300184	3105.333333
696.601796	3165.666667
698.902823	3110.000000
701.199269	3177.666667
703.497130	3235.000000
705.794407	3205.333333
708.091101	3239.000000
710.383219	3192.333333
712.678748	3245.000000
714.969703	3245.333333
717.262073	3278.000000
719.551868	3308.333333
721.841082	3271.000000
724.129717	3310.666667
726.415779	3331.333333
728.703256	3267.666667
730.988161	3322.000000
733.272489	3375.333333
735.554248	3292.666667
737.837421	3311.333333
740.120017	3445.000000
742.398057	3480.000000
744.677512	3510.000000
746.956390	3406.666667
749.234694	3567.000000
751.508448	3519.333333
753.783615	3521.000000
756.058209	3557.000000
758.330244	3624.333333
760.603692	3587.666667
762.874582	3608.000000
765.142916	3569.333333
767.412663	3622.000000
769.679856	3621.666667
771.946478	3662.666667
774.212530	3674.333333
776.476031	3684.000000
778.740945	3701.666667
781.005289	3793.000000
783.265104	3704.333333
785.526331	3662.000000
787.786991	3749.666667
790.045105	3778.666667
792.300674	3718.333333
794.559634	3746.333333
796.812095	3764.666667
799.069922	3841.333333
801.323231	3870.333333
803.574000	3841.333333
805.826181	3855.666667
808.075823	3808.000000
810.326878	3799.000000
812.573421	3810.000000
814.821376	3828.666667
817.066797	3919.333333
819.313629	3795.333333
821.559900	3855.000000
823.801666	3900.000000
826.046816	3868.666667
828.285493	3862.666667
830.527552	3847.666667
832.765113	3850.000000
835.004086	3938.666667
837.240532	3945.666667
839.478389	3987.333333
841.713721	4043.333333
843.946530	4023.666667
846.180750	4041.000000
848.412447	4149.333333
850.643590	4155.666667
852.874178	4095.666667
855.104212	4168.666667
857.333692	4324.000000
859.558690	4186.666667
861.787063	4310.000000
864.010956	4328.333333
866.236261	4342.666667
868.457090	4458.333333
870.681291	4466.666667
872.901019	4482.333333
875.122157	4569.666667
877.342745	4633.333333
879.560824	4687.333333
881.780312	4705.666667
883.995334	4795.666667
886.209808	4771.000000
888.423735	4928.333333
890.637115	4857.000000
892.849947	4856.333333
895.062233	4893.333333
897.272016	4835.666667
899.481254	4896.333333
901.689947	4892.333333
903.896141	4801.000000
906.103744	4830.666667
908.308849	4827.333333
910.513411	4792.333333
912.715478	4751.333333
914.918954	4679.000000
917.119936	4637.333333
919.320376	4616.000000
921.522225	4519.333333
923.717683	4450.333333
925.916500	4306.333333
928.110878	4342.000000
930.308614	4281.666667
932.501914	4214.666667
934.696623	4212.000000
936.888846	4069.666667
939.080530	4053.000000
941.271677	4161.000000
943.460341	3996.000000
945.648469	3957.666667
947.834116	3893.666667
950.023115	3995.333333
952.207691	3932.333333
954.391732	3938.000000
956.579123	3896.666667
958.758210	3965.000000
960.940648	3889.666667
963.122552	3962.000000
965.301981	3988.666667
967.478938	3933.000000
969.657303	3963.333333
971.837075	3965.333333
974.010498	3908.000000
976.187267	3940.333333
978.359629	3893.000000
980.533399	3872.666667
982.702765	3820.333333
984.875475	3856.333333
987.045720	3802.000000
989.215436	3781.333333
991.384623	3792.000000
993.549413	3685.666667
995.717544	3686.333333
997.881281	3742.333333
1000.046424	3624.333333
1002.209108	3656.666667
1004.371267	3568.333333
1006.530969	3711.666667
1008.690146	3602.000000
1010.850730	3540.333333
1013.008859	3510.666667
1015.166465	3455.666667
1017.323547	3369.666667
1019.480105	3355.666667
1021.632284	3344.000000
1023.785870	3374.666667
1025.938934	3327.333333
1028.089549	3251.666667
1030.241571	3239.666667
1032.389219	3271.666667
1034.540199	3219.666667
1036.686808	3209.333333
1038.832898	3200.000000
1040.978470	3283.333333
1043.125447	3250.666667
1045.266135	3253.333333
1047.410153	3216.333333
1049.551730	3184.000000
1051.692791	3163.666667
1053.835256	3167.666667
1055.971442	3187.666667
1058.110953	3135.000000
1060.246110	3084.000000
1062.384591	3126.000000
1064.518718	3128.333333
1066.652332	3111.333333
1068.787351	3029.333333
1070.918020	3123.333333
1073.050094	3074.000000
1075.179739	3039.333333
1077.308872	3013.333333
1079.437493	2976.000000
1081.565603	2915.666667
1083.691287	2997.333333
1085.816461	3004.000000
1087.943039	3000.666667
1090.065279	2939.000000
1092.188924	2915.666667
1094.308234	2849.333333
1096.432774	2931.666667
1098.551068	2848.666667
1100.670767	2824.333333
1102.788047	2876.000000
1104.904821	2836.333333
1107.021088	2778.666667
1109.134939	2814.000000
1111.250195	2867.666667
1113.361127	2773.666667
1115.475372	2705.000000
1117.585296	2676.000000
1119.696624	2661.666667
1121.807447	2668.333333
1123.913954	2611.666667
1126.023771	2629.000000
1128.129273	2658.000000
1130.236178	2657.000000
1132.336868	2610.333333
1134.442770	2586.666667
1136.544363	2606.666667
1138.647359	2643.333333
1140.749854	2602.333333
1142.846142	2548.333333
1144.947637	2538.666667
1147.044830	2490.000000
1149.141525	2518.000000
1151.237721	2545.333333
1153.333420	2517.333333
1155.428620	2462.333333
1157.521424	2483.666667
1159.615631	2487.333333
1161.703646	2398.000000
1163.796859	2414.000000
1165.883884	2423.000000
1167.974208	2397.666667
1170.060244	2442.000000
1172.149579	2455.666667
1174.232732	2447.333333
1176.317287	2427.000000
1178.403244	2455.666667
1180.484919	2395.666667
1182.567996	2415.333333
1184.648687	2425.333333
1186.728886	2344.666667
1188.808594	2355.333333
1190.887811	2390.333333
1192.964646	2365.333333
1195.039100	2327.333333
1197.116845	2323.000000
1199.190321	2273.000000
1201.265197	2324.000000
1203.335806	2342.000000
1205.407816	2359.000000
1207.477451	2270.666667
1209.548486	2318.000000
1211.619033	2351.333333
1213.685319	2333.333333
1215.753006	2331.000000
1217.818321	2323.666667
1219.885036	2373.333333
1221.947495	2357.333333
1224.013239	2355.000000
1226.074729	2310.000000
1228.137620	2352.666667
1230.198143	2368.666667
1232.258182	2316.666667
1234.317739	2318.333333
1236.374930	2284.666667
1238.431640	2355.666667
1240.485986	2329.666667
1242.543614	2354.333333
1244.598879	2390.666667
1246.649903	2429.666667
1248.702327	2311.333333
1250.754271	2309.666667
1252.803857	2383.666667
1254.852964	2321.666667
1256.901593	2309.333333
1258.949743	2415.000000
1260.997414	2282.000000
1263.040855	2398.000000
1265.087572	2351.666667
1267.131935	2358.666667
1269.175822	2357.666667
1271.217357	2343.000000
1273.256543	2317.000000
1275.299002	2383.333333
1277.337238	2392.333333
1279.376873	2424.666667
1281.416033	2383.000000
1283.450974	2424.666667
1285.487314	2361.000000
1287.521310	2429.333333
1289.556703	2423.333333
1291.587884	2412.333333
1293.620462	2430.000000
1295.652569	2424.000000
1297.682335	2370.333333
1299.713498	2456.000000
1301.740455	2476.000000
1303.768809	2418.333333
1305.792958	2469.333333
1307.820373	2421.000000
1309.843585	2458.333333
1311.868195	2436.333333
1313.890471	2502.000000
1315.914144	2489.000000
1317.935484	2421.333333
1319.956356	2546.666667
1321.976761	2494.333333
1323.992973	2472.000000
1326.010582	2484.000000
1328.025863	2495.333333
1330.044403	2436.000000
1332.058754	2462.000000
1334.070779	2459.666667
1336.086061	2500.333333
1338.097158	2435.000000
1340.109652	2432.333333
1342.117963	2482.333333
1344.129529	2481.000000
1346.135057	2417.000000
1348.143840	2414.333333
1350.148445	2541.000000
1352.156304	2494.666667
1354.163701	2495.000000
1356.165067	2450.666667
1358.167829	2440.000000
1360.170132	2425.666667
1362.171975	2422.000000
1364.173358	2535.000000
1366.172428	2441.666667
1368.171039	2391.000000
1370.169192	2452.333333
1372.166886	2444.000000
1374.160418	2377.000000
1376.155345	2418.333333
1378.149816	2420.000000
1380.143830	2431.333333
1382.135537	2378.666667
1384.126789	2316.333333
1386.115735	2363.666667
1388.106076	2356.333333
1390.095962	2365.666667
1392.083544	2429.666667
1394.070673	2341.666667
1396.055500	2438.000000
1398.041722	2356.333333
1400.025644	2402.666667
1402.009113	2402.333333
1403.992129	2312.333333
1405.972848	2375.666667
1407.954961	2333.333333
1409.934778	2338.333333
1411.914143	2423.333333
1413.889370	2329.000000
1415.867835	2412.666667
1417.844007	2343.000000
1419.819730	2361.000000
1421.795003	2367.000000
1423.767985	2412.666667
1425.740519	2386.666667
1427.712605	2368.666667
1429.684244	2343.333333
1431.651754	2427.333333
1433.624338	2357.000000
1435.589116	2341.000000
1437.558967	2401.666667
1439.524694	2328.000000
1441.491813	2341.666667
1443.456649	2325.333333
1445.417365	2383.333333
1447.383149	2381.666667
1449.342978	2329.333333
1451.304201	2364.666667
1453.266816	2313.000000
1455.225316	2331.333333
1457.183373	2328.000000
1459.140989	2333.333333
1461.098162	2374.000000
1463.053060	2284.333333
1465.009351	2376.000000
1466.963367	2379.333333
1468.916942	2343.333333
1470.868245	2329.333333
1472.820941	2331.666667
1474.771364	2356.333333
1476.721349	2412.666667
1478.670895	2350.666667
1480.618172	2253.333333
1482.563181	2347.333333
1484.509583	2358.333333
1486.455547	2396.666667
1488.401074	2357.666667
1490.344335	2267.000000
1492.287161	2319.666667
1494.227723	2280.333333
1496.169676	2295.666667
1498.109367	2316.333333
1500.048624	2304.333333
1501.987445	2309.333333
1503.924007	2303.666667
1505.861960	2344.000000
1507.797654	2311.666667
1509.732915	2324.333333
1511.665920	2351.333333
1513.598492	2353.000000
1515.530632	2391.333333
1517.462340	2380.000000
1519.391794	2331.000000
1521.322639	2354.666667
1523.253052	2322.000000
1525.179393	2358.333333
1527.107125	2362.666667
1529.032606	2365.666667
1530.957658	2338.666667
1532.882281	2437.000000
1534.806475	2398.000000
1536.728421	2381.000000
1538.651758	2361.000000
1540.572848	2337.000000
1542.491694	2349.666667
1544.411930	2348.666667
1546.329923	2383.666667
1548.247489	2376.666667
1550.162813	2393.333333
1552.079527	2432.333333
1553.992186	2472.333333
1555.908049	2444.333333
1557.821672	2472.666667
1559.733057	2520.333333
1561.645832	2498.333333
1563.554557	2485.666667
1565.464671	2495.000000
1567.374362	2513.000000
1569.283630	2492.333333
1571.190664	2538.000000
1573.095465	2437.333333
1575.001655	2466.666667
1576.905613	2509.333333
1578.809150	2442.666667
1580.712267	2428.333333
1582.613154	2390.666667
1584.515430	2447.666667
1586.415478	2428.000000
1588.316913	2321.000000
1590.214315	2447.333333
1592.111298	2348.333333
1594.007863	2401.000000
1595.905816	2336.666667
1597.797934	2405.333333
1599.693245	2288.666667
1601.588139	2434.333333
1603.480811	2318.333333
1605.373066	2310.666667
1607.263102	2238.333333
1609.152722	2312.333333
1611.041927	2249.666667
1612.930717	2276.000000
1614.817289	2260.000000
1616.705249	2280.666667
1618.589192	2227.000000
1620.474522	2221.666667
1622.359439	2224.666667
1624.242142	2241.000000
1626.126232	2243.333333
1628.006310	2226.000000
1629.887776	2248.666667
1631.767031	2177.333333
1633.647672	2158.000000
1635.522509	2243.000000
1637.402327	2175.666667
1639.278141	2224.666667
1641.153544	2133.333333
1643.030333	2186.000000
1644.901326	2221.333333
1646.775500	2221.000000
1648.645675	2203.666667
1650.519032	2157.000000
1652.390184	2204.666667
1654.259136	2133.333333
1656.129472	2181.333333
1657.995816	2186.000000
1659.863545	2186.666667
1661.729075	2183.333333
1663.595991	2129.000000
1665.458918	2187.666667
1667.323230	2130.666667
1669.185346	2219.000000
1671.047057	2132.666667
1672.910154	2108.333333
1674.771055	2124.333333
1676.629764	2127.333333
1678.488069	2109.333333
1680.347759	2085.000000
1682.201681	2141.333333
1684.058777	2143.333333
1685.915470	2134.333333
1687.768186	2146.666667
1689.624074	2049.333333
1691.475988	2126.000000
1693.327501	2124.666667
1695.178613	2126.000000
1697.029325	2144.666667
1698.879635	2099.000000
1700.727762	2083.000000
1702.577273	2125.666667
1704.421035	2101.333333
1706.269746	2092.000000
1708.112711	2151.666667
1709.958843	2143.666667
1711.801012	2052.000000
1713.646347	2072.666667
1715.485941	2052.333333
1717.326919	2095.666667
1719.169280	2128.666667
1721.007685	2114.333333
1722.847473	2093.666667
1724.685086	2097.666667
1726.522303	2095.000000
1728.357347	2111.000000
1730.193774	2070.333333
1732.028029	2072.000000
1733.861889	2065.000000
1735.695355	2001.000000
1737.524876	2011.000000
1739.357555	2035.333333
1741.186290	2072.666667
1743.018182	2058.666667
1744.846132	2020.000000
1746.673691	2022.000000
1748.500857	2015.000000
1750.327632	2047.333333
1752.154015	2001.666667
1753.976462	2057.333333
1755.802064	2000.333333
1757.623731	2085.333333
1759.446780	1986.333333
1761.267667	2006.333333
1763.088166	2026.333333
1764.910045	1958.666667
1766.726226	2077.666667
1768.545558	2065.000000
1770.360963	2017.000000
1772.179518	2008.666667
1773.994148	2011.666667
1775.808391	1945.000000
1777.622248	2031.333333
1779.435718	2097.333333
1781.247035	1966.666667
1783.059732	2040.000000
1784.872044	2005.000000
1786.680438	2035.000000
1788.490212	2019.333333
1790.296072	2037.000000
1792.105077	1986.666667
1793.910169	1998.666667
1795.716642	2076.666667
1797.522731	2084.666667
1799.324909	2020.000000
1801.130232	1983.000000
1802.931646	2034.000000
1804.734440	2016.000000
1806.533328	1963.000000
1808.333597	2017.666667
1810.133484	1998.000000
1811.931229	2017.333333
1813.728594	2006.333333
1815.525579	2078.333333
1817.322183	2007.000000
1819.116648	1976.666667
1820.912492	1978.000000
1822.702681	1983.000000
1824.497767	1984.666667
1826.287201	1980.000000
1828.079771	1971.000000
1829.870206	2013.666667
1831.658507	1994.000000
1833.449943	1987.666667
1835.235733	1986.666667
1837.022903	2003.000000
1838.807941	1978.333333
1840.596113	1975.333333
1842.380399	1975.666667
1844.162555	1948.333333
1845.946091	2013.000000
1847.727498	2018.666667
1849.510284	1971.666667
1851.289189	1957.333333
1853.069474	1979.000000
1854.847632	2025.333333
1856.627169	1993.333333
1858.404581	2006.000000
1860.179869	1946.666667
1861.956535	1983.000000
1863.731079	2017.666667
1865.507001	1945.666667
1867.277302	1917.000000
1869.050731	1978.000000
1870.822040	1976.333333
1872.592978	1971.000000
1874.365294	1973.333333
1876.131996	1984.000000
1877.901824	1981.000000
1879.667788	1950.333333
1881.436875	1962.333333
1883.202101	1962.333333
1884.966959	1911.333333
1886.733194	1906.000000
1888.495570	1929.000000
1890.257579	1909.333333
1892.019220	1911.333333
1893.780495	1996.666667
1895.541402	1950.333333
1897.301943	1958.666667
1899.060374	1970.333333
1900.818439	1920.000000
1902.574397	1892.666667
1904.331731	1943.333333
1906.088700	1871.000000
1907.843562	1930.000000
1909.596320	1953.000000
1911.348713	1930.333333
1913.102483	2005.000000
1914.854149	1924.666667
1916.603713	1879.000000
1918.354652	1896.000000
1920.105229	1889.333333
1921.851966	1913.000000
1923.600080	1878.000000
1925.346094	1930.000000
1927.093483	1896.333333
1928.838775	1911.666667
1930.581969	1907.666667
1932.326538	1920.000000
1934.069012	1881.333333
1935.811125	1886.333333
1937.552878	1896.666667
1939.294271	1940.000000
1941.033571	1905.666667
1942.772512	1892.000000
1944.511094	1878.666667
1946.247585	1868.333333
1947.983718	1909.000000
1949.721225	1949.666667
1951.454910	1894.000000
1953.189970	1946.666667
1954.922941	1958.333333
1956.655556	1916.000000
1958.387815	1912.333333
1960.119717	2017.000000
1961.849533	1950.333333
1963.577264	1959.666667
1965.306370	1958.333333
1967.035121	1952.666667
1968.761788	1923.333333
1970.488101	1952.666667
1972.215787	1836.666667
1973.937937	1888.333333
1975.663188	1920.333333
1977.384632	1928.333333
1979.109177	1882.333333
1980.831641	1939.666667
1982.550303	1920.333333
1984.272063	1977.000000
1985.990021	1942.333333
1987.709352	1958.666667
1989.424884	1950.000000
1991.145236	1973.000000
1992.861790	1903.666667
1994.574547	2000.333333
1996.290400	1898.666667
1998.004181	1911.000000
1999.717612	1911.333333
2001.428972	1953.666667
2003.141704	1876.333333
2004.850646	1942.666667
2006.562680	1929.333333
2008.269206	1965.333333
2009.978823	1893.000000
2011.686374	1993.333333
2013.393576	1944.666667
2015.098713	1904.666667
2016.803504	1905.000000
2018.509666	1948.333333
2020.212046	1970.333333
2021.915797	1935.000000
2023.617486	1919.666667
2025.318830	1990.000000
2027.019828	1900.666667
2028.718765	1947.000000
2030.419074	1958.000000
2032.115608	1986.000000
2033.813513	1946.000000
2035.509359	1943.000000
2037.208291	1960.000000
2038.901737	1902.666667
2040.596554	1975.000000
2042.291029	1915.666667
2043.981735	1878.000000
2045.675525	1938.000000
2047.365548	1893.333333
2049.056942	1878.333333
2050.746283	1946.333333
2052.436994	1906.000000
2054.123942	1859.333333
2055.810551	1887.333333
2057.498529	1885.333333
2059.182748	1919.000000
2060.868338	1849.666667
2062.553588	1914.000000
2064.236789	1847.333333
2065.921361	1907.000000
2067.600470	1847.000000
2069.284364	1909.000000
2070.962797	1857.333333
2072.644308	1912.000000
2074.322067	1849.666667
2075.999490	1830.333333
2077.678282	1862.333333
2079.355032	1893.333333
2081.029740	1843.666667
2082.705817	1871.333333
2084.379853	1869.333333
2086.053555	1874.000000
2087.726921	1910.000000
2089.398248	1893.666667
2091.069241	1834.000000
2092.739900	1856.000000
2094.410225	1856.333333
2096.080216	1828.000000
2097.748171	1876.666667
2099.415793	1861.000000
2101.081380	1852.000000
2102.748336	1883.000000
2104.413259	1902.666667
2106.077850	1896.666667
2107.740409	1916.000000
2109.404336	1845.333333
2111.066232	1917.000000
2112.727798	1905.333333
2114.389032	1908.666667
2116.048238	1910.666667
2117.707113	1889.000000
2119.365659	1894.666667
2121.023874	1872.333333
2122.678367	1866.000000
2124.335924	1876.333333
2125.993152	1883.333333
2127.646658	1887.666667
2129.301532	1909.666667
2130.952687	1886.333333
2132.606905	1859.666667
2134.257406	1899.666667
2135.909273	1873.666667
2137.555732	1899.666667
2139.206946	1876.666667
2140.854446	1931.333333
2142.503313	1937.666667
2144.150161	1874.000000
2145.796684	1825.666667
2147.442881	1906.000000
2149.085370	1859.000000
2150.730917	1888.333333
2152.372757	1902.666667
2154.017654	1894.666667
2155.658845	1918.333333
2157.299714	1810.000000
2158.940258	1918.000000
2160.578790	1814.666667
2162.218688	1877.333333
2163.854886	1856.000000
2165.492450	1881.000000
2167.129692	1868.666667
2168.764924	1854.333333
2170.399835	1863.000000
2172.034423	1811.666667
2173.668691	1921.000000
2175.299265	1818.000000
2176.932891	1897.333333
2178.562825	1861.000000
2180.194124	1805.000000
2181.823418	1855.333333
2183.452393	1827.333333
2185.081048	1887.333333
2186.709384	1856.333333
2188.335718	1840.333333
2189.961733	1842.000000
2191.585746	1799.000000
2193.211125	1871.000000
2194.834503	1781.666667
2196.459246	1792.666667
2198.080308	1827.000000
2199.701053	1801.000000
2201.323163	1825.333333
2202.943275	1798.333333
2204.561390	1868.666667
2206.179190	1833.666667
2207.796675	1804.666667
2209.413844	1735.000000
2211.030698	1771.333333
2212.647236	1802.666667
2214.261782	1815.666667
2215.874335	1807.333333
2217.488252	1855.666667
2219.100178	1783.333333
2220.713467	1774.666667
2222.324766	1821.333333
2223.934075	1781.333333
2225.544748	1800.333333
2227.153432	1793.666667
2228.761803	1850.333333
2230.368188	1747.333333
2231.975936	1789.333333
2233.581697	1753.666667
2235.187147	1772.333333
2236.790612	1781.666667
2238.395440	1909.000000
2239.998284	1830.666667
2241.599145	1749.333333
2243.201369	1807.333333
2244.801611	1802.000000
2246.403215	1784.666667
2248.001166	1835.666667
2249.600480	1782.333333
2251.197814	1804.333333
2252.794840	1799.333333
2254.393228	1822.000000
2255.987967	1814.333333
2257.580729	1832.000000
2259.174854	1798.333333
2260.770340	1776.000000
2262.362181	1783.333333
2263.953716	1821.333333
2265.546613	1788.000000
2267.134200	1843.333333
2268.726483	1753.000000
2270.313460	1778.000000
2271.903464	1828.666667
2273.488164	1752.333333
2275.077558	1841.333333
2276.661650	1750.666667
2278.247102	1760.000000
2279.830586	1733.000000
2281.417095	1766.333333
2282.999971	1758.666667
2284.582544	1770.000000
2286.164813	1732.666667
2287.743452	1687.333333
2289.325116	1695.333333
2290.903151	1749.666667
2292.484209	1729.000000
2294.061640	1745.833333
2295.637108	1762.666667
2297.215598	1706.333333
2298.790464	1706.666667
2300.365029	1757.666667
2301.939294	1700.333333
2303.513258	1710.000000
2305.086921	1718.333333
2306.660285	1653.000000
2308.230030	1725.666667
2309.799476	1685.666667
2311.371940	1701.666667
2312.939130	1690.000000
2314.509338	1644.000000
2316.075931	1705.333333
2317.643884	1713.000000
2319.209881	1694.000000
2320.775581	1701.333333
2322.340983	1702.333333
2323.904432	1613.666667
2325.469240	1664.666667
2327.030440	1759.333333
2328.594654	1745.666667
2330.153606	1683.333333
2331.715573	1740.333333
2333.275588	1686.333333
2334.835309	1693.333333
2336.393080	1687.000000
2337.950556	1707.000000
2339.507738	1751.666667
2341.062972	1697.666667
2342.617913	1702.000000
2344.172559	1727.666667
2345.726912	1708.333333
2347.280972	1736.666667
2348.834737	1685.333333
2350.386558	1677.333333
2351.936437	1648.000000
2353.489323	1718.333333
2355.036966	1681.000000
2356.587618	1636.333333
2358.134678	1677.333333
2359.683096	1759.000000
2361.231223	1722.000000
2362.775761	1704.333333
2364.321657	1688.333333
2365.865615	1681.333333
2367.410930	1680.333333
2368.952660	1719.000000
2370.495747	1645.666667
2372.036898	1629.000000
2373.577760	1690.666667
2375.118333	1688.333333
2376.658617	1661.333333
2378.198612	1671.666667
2379.735029	1657.000000
2381.274447	1667.666667
2382.810287	1654.000000
2384.347485	1685.333333
2385.881107	1681.666667
2387.417729	1715.333333
2388.952421	1687.333333
2390.485183	1626.666667
2392.017658	1668.666667
2393.548205	1631.000000
2395.081750	1650.000000
2396.610084	1731.333333
2398.139774	1678.333333
2399.669179	1697.666667
2401.198299	1686.333333
2402.727134	1674.333333
2404.250763	1709.333333
2405.779028	1689.000000
2407.302091	1677.333333
2408.829787	1663.666667
2410.350644	1684.666667
2411.876134	1662.666667
2413.398063	1660.333333
2414.921348	1664.666667
2416.442711	1650.000000
2417.962155	1685.333333
2419.482954	1648.333333
2421.001835	1692.333333
2422.520433	1645.000000
2424.037114	1677.333333
2425.555149	1649.666667
2427.072903	1642.000000
2428.587106	1641.666667
2430.101028	1687.666667
2431.614670	1623.000000
2433.129667	1665.333333
2434.641115	1659.333333
2436.153918	1662.333333
2437.664807	1636.000000
2439.175418	1688.333333
2440.684117	1622.000000
2442.195802	1660.666667
2443.703944	1662.666667
2445.211808	1669.666667
2446.719394	1596.333333
2448.223439	1649.000000
2449.730469	1578.333333
2451.235591	1658.000000
2452.740436	1658.666667
2454.243374	1638.666667
2455.746036	1621.333333
2457.248421	1599.333333
2458.748901	1657.666667
2460.250734	1633.333333
2461.750662	1614.666667
2463.250315	1544.333333
2464.749693	1661.333333
2466.247168	1601.333333
2467.742741	1585.333333
2469.241294	1596.333333
2470.736319	1593.000000
2472.232696	1673.333333
2473.725547	1622.666667
2475.219751	1611.000000
2476.713681	1560.000000
2478.204087	1602.666667
2479.697471	1620.666667
2481.188957	1618.000000
2482.678546	1587.000000
2484.167863	1539.333333
2485.655284	1574.000000
2487.145681	1608.666667
2488.632560	1636.333333
2490.120790	1589.000000
2491.605503	1560.000000
2493.089947	1539.666667
2494.575741	1630.333333
2496.059644	1543.666667
2497.544897	1523.000000
2499.025017	1623.000000
2500.508110	1574.666667
2501.989312	1598.666667
2503.470245	1578.000000
2504.949289	1611.000000
2506.428064	1555.333333
2507.906571	1603.000000
2509.384810	1551.666667
2510.862780	1576.333333
2512.337245	1546.000000
2513.814680	1613.000000
2515.288611	1566.666667
2516.763892	1562.333333
2518.238906	1577.000000
2519.710419	1593.333333
2521.183283	1544.666667
2522.654264	1547.333333
2524.126595	1505.666667
2525.593812	1549.000000
2527.063996	1509.000000
2528.532299	1585.333333
2530.000337	1484.333333
2531.468110	1591.000000
2532.935618	1522.000000
2534.402861	1558.666667
2535.866612	1551.333333
2537.331713	1526.000000
2538.794937	1593.666667
2540.259510	1545.333333
2541.720595	1560.333333
2543.183029	1593.333333
2544.645200	1547.333333
2546.103885	1597.000000
2547.567141	1548.666667
2549.025302	1598.666667
2550.484811	1613.000000
2551.939226	1583.000000
2553.398212	1549.333333
2554.855326	1538.000000
2556.310569	1564.666667
2557.765550	1586.000000
2559.218663	1591.333333
2560.673124	1592.000000
2562.125715	1579.666667
2563.578047	1583.000000
2565.028512	1521.000000
2566.481932	1602.000000
2567.930270	1546.000000
2569.381563	1581.666667
2570.830991	1612.666667
2572.276946	1544.333333
2573.725856	1579.333333
2575.171296	1535.333333
2576.618083	1562.333333
2578.063008	1503.666667
2579.507674	1593.666667
2580.953688	1575.000000
2582.396236	1575.000000
2583.840131	1554.666667
2585.280561	1560.333333
2586.722338	1542.000000
2588.162256	1533.333333
2589.603521	1560.333333
2591.041324	1511.666667
2592.482077	1597.000000
2593.917768	1541.333333
2595.356408	1592.000000
2596.793190	1541.333333
2598.228117	1597.333333
2599.665991	1548.000000
2601.098808	1567.000000
2602.532972	1555.000000
2603.965282	1576.000000
2605.398938	1537.333333
2606.830741	1516.333333
2608.262290	1470.333333
2609.693587	1544.000000
2611.123031	1592.000000
2612.552223	1517.000000
2613.979565	1469.000000
2615.408252	1568.666667
2616.836688	1525.666667
2618.261676	1560.000000
2619.688011	1591.666667
2621.112497	1503.000000
2622.538329	1524.666667
2623.960717	1560.000000
2625.384451	1475.333333
2626.806338	1510.000000
2628.227976	1575.333333
2629.647768	1511.000000
2631.068906	1583.666667
2632.489794	1518.000000
2633.907244	1466.666667
2635.327633	1531.666667
2636.744585	1463.333333
2638.161288	1525.000000
2639.577743	1510.666667
2640.993950	1507.000000
2642.409909	1492.666667
2643.824027	1549.000000
2645.237897	1561.333333
2646.649929	1493.000000
2648.063304	1529.000000
2649.473250	1531.333333
2650.886132	1543.333333
2652.295585	1555.000000
2653.704792	1483.666667
2655.112163	1540.000000
2656.522468	1553.333333
2657.930938	1524.333333
2659.337572	1557.666667
2660.743961	1575.333333
2662.148516	1502.666667
2663.554415	1551.000000
2664.958481	1514.666667
2666.362302	1547.666667
2667.765879	1538.333333
2669.167625	1538.666667
2670.570714	1452.000000
2671.970385	1527.333333
2673.371400	1486.000000
2674.768999	1514.666667
2676.169527	1534.000000
2677.566641	1561.333333
2678.965098	1448.333333
2680.361728	1530.333333
2681.758115	1509.333333
2683.154260	1514.333333
2684.548579	1466.000000
2685.944241	1497.666667
2687.336494	1486.000000
2688.730089	1531.000000
2690.121860	1503.333333
2691.514974	1549.666667
2692.906264	1466.000000
2694.295731	1510.333333
2695.684958	1469.666667
2697.073946	1466.000000
2698.464275	1503.666667
2699.849621	1512.333333
2701.237890	1493.333333
2702.624339	1494.000000
2704.010549	1415.666667
2705.396520	1483.000000
2706.779093	1490.333333
2708.163008	1467.000000
2709.546685	1448.666667
2710.930123	1468.000000
2712.310167	1473.666667
2713.691551	1501.000000
2715.071121	1421.333333
2716.452031	1502.666667
2717.831127	1485.333333
2719.208409	1470.666667
2720.587032	1459.333333
2721.963842	1416.666667
2723.340415	1420.666667
2724.716753	1446.000000
2726.091280	1436.333333
2727.467147	1495.666667
2728.839627	1446.333333
2730.215023	1449.000000
2731.585459	1416.333333
2732.957236	1484.000000
2734.328778	1433.000000
2735.698512	1437.333333
2737.069587	1430.666667
2738.438853	1437.000000
2739.807886	1386.666667
2741.175113	1490.000000
2742.542106	1415.666667
2743.908867	1386.000000
2745.275396	1409.666667
2746.640119	1445.333333
2748.004610	1408.000000
2749.368870	1384.333333
2750.732897	1423.000000
2752.096693	1453.000000
2753.457115	1393.666667
2754.820447	1445.000000
2756.178837	1424.000000
2757.540137	1382.666667
2758.898067	1442.000000
2760.258905	1355.000000
2761.617944	1395.666667
2762.973614	1384.666667
2764.332192	1345.000000
2765.687403	1406.666667
2767.042385	1295.000000
2768.395571	1398.333333
2769.751662	1376.333333
2771.104390	1349.000000
2772.456890	1397.000000
2773.809161	1371.000000
2775.162770	1382.666667
2776.513019	1353.333333
2777.861473	1371.000000
2779.212833	1331.000000
2780.560833	1365.333333
2781.910171	1374.000000
2783.257717	1399.666667
2784.605037	1317.000000
2785.952130	1396.666667
2787.297432	1320.666667
2788.642507	1294.666667
2789.987357	1386.000000
2791.331981	1346.000000
2792.673253	1336.333333
2794.015863	1329.666667
2795.358247	1375.333333
2796.700406	1330.666667
2798.039216	1377.000000
2799.380926	1366.666667
2800.719288	1335.666667
2802.058986	1321.000000
2803.396900	1360.333333
2804.733029	1330.666667
2806.068934	1384.000000
2807.406177	1337.000000
2808.741636	1315.333333
2810.076872	1378.333333
2811.410325	1346.666667
2812.745115	1309.666667
2814.076565	1366.000000
2815.410910	1314.333333
2816.740357	1354.000000
2818.071141	1356.666667
2819.401703	1363.666667
2820.730486	1339.666667
2822.060605	1354.000000
2823.388946	1313.333333
2824.717066	1334.333333
2826.043408	1326.666667
2827.371087	1346.333333
2828.695432	1342.333333
2830.021114	1348.000000
2831.345020	1355.000000
2832.668707	1309.333333
2833.993729	1310.666667
2835.315421	1324.000000
2836.636895	1313.000000
2837.958150	1373.666667
2839.279186	1312.000000
2840.598449	1279.333333
2841.919048	1332.666667
2843.237876	1379.333333
2844.556485	1363.333333
2845.873323	1317.333333
2847.189944	1329.000000
2848.506348	1343.666667
2849.820982	1232.666667
2851.136952	1283.666667
2852.449601	1304.666667
2853.763585	1272.333333
2855.077353	1275.666667
2856.390904	1264.666667
2857.702689	1303.000000
2859.012707	1325.000000
2860.324060	1274.333333
2861.632098	1293.333333
2862.941470	1326.333333
2864.250628	1319.333333
2865.559570	1278.666667
2866.866748	1328.666667
2868.172164	1264.333333
2869.478913	1279.333333
2870.783901	1294.666667
2872.088675	1278.333333
2873.391687	1283.000000
2874.697580	1314.333333
2875.998619	1294.000000
2877.300992	1339.333333
2878.601605	1312.333333
2879.903552	1299.000000
2881.205285	1278.000000
2882.503715	1303.333333
2883.803478	1290.333333
2885.101484	1318.333333
2886.399278	1299.000000
2887.695316	1267.000000
2888.992687	1272.666667
2890.288302	1238.666667
2891.583706	1295.000000
2892.878899	1252.666667
2894.170795	1303.666667
2895.465567	1248.666667
2896.757042	1260.666667
2898.049850	1292.333333
2899.342448	1309.000000
2900.631752	1299.000000
2901.922388	1223.333333
2903.211273	1244.666667
2904.501490	1261.333333
2905.788416	1247.333333
2907.076674	1249.000000
2908.363183	1283.333333
2909.649483	1231.666667
2910.935576	1270.666667
2912.219920	1240.333333
2913.507135	1251.333333
2914.789524	1250.000000
2916.073245	1221.666667
2917.355220	1251.333333
2918.636987	1221.333333
2919.917010	1209.666667
2921.199902	1207.000000
2922.481049	1222.666667
2923.758914	1254.000000
2925.039648	1214.333333
2926.317101	1181.666667
2927.594348	1332.000000
2928.869853	1196.666667
2930.148226	1221.333333
2931.421785	1236.000000
2932.698211	1256.666667
2933.972896	1219.666667
2935.245840	1174.666667
2936.520116	1227.000000
2937.792652	1184.666667
2939.064983	1229.333333
2940.334042	1192.000000
2941.605966	1270.000000
2942.876152	1178.333333
2944.146134	1253.000000
2945.415913	1202.333333
2946.683956	1201.000000
2947.950262	1182.333333
2949.216367	1154.000000
2950.483801	1238.333333
2951.749501	1175.333333
2953.014998	1225.666667
2954.280293	1188.000000
2955.542323	1271.666667
2956.805683	1185.333333
2958.068842	1177.333333
2959.330269	1199.000000
2960.593025	1155.666667
2961.854049	1177.333333
2963.113343	1195.000000
2964.372437	1199.333333
2965.631330	1184.000000
2966.890023	1197.666667
2968.148516	1210.000000
2969.405280	1192.333333
2970.661844	1214.666667
2971.916681	1162.000000
2973.172846	1123.333333
2974.425757	1175.666667
2975.679997	1166.333333
2976.934037	1177.333333
2978.186353	1155.666667
2979.438469	1218.666667
2980.688861	1186.000000
2981.942108	1168.666667
2983.190578	1198.666667
2984.441903	1164.666667
2985.689978	1169.666667
2986.937857	1184.333333
2988.185538	1186.000000
2989.433022	1175.000000
2990.678785	1201.666667
2991.924352	1149.333333
2993.171246	1150.333333
2994.414896	1165.000000
2995.659874	1173.000000
2996.901608	1175.333333
2998.146194	1184.666667
2999.389061	1139.000000
3000.628687	1142.000000
3001.871163	1172.000000
3003.110399	1152.666667
3004.350963	1181.666667
3005.589810	1160.333333
3006.828463	1167.333333
3008.065400	1144.333333
3009.303665	1170.666667
3010.540214	1185.666667
3011.776570	1133.666667
3013.012732	1124.666667
3014.247180	1147.333333
3015.481436	1125.666667
3016.715498	1198.333333
3017.947848	1167.666667
3019.178486	1135.000000
3020.411970	1143.000000
3021.643742	1167.000000
3022.873804	1156.666667
3024.103673	1150.666667
3025.331833	1152.000000
3026.561320	1137.000000
3027.789097	1131.000000
3029.016683	1187.666667
3030.245596	1117.333333
3031.469766	1135.333333
3032.696779	1131.333333
3033.920568	1167.666667
3035.145684	1138.333333
3036.369093	1085.333333
3037.592312	1092.666667
3038.813826	1105.666667
3040.038181	1150.333333
3041.257801	1125.333333
3042.478747	1117.666667
3043.699504	1140.666667
3044.918557	1176.666667
3046.138935	1123.666667
3047.356097	1131.666667
3048.574585	1146.333333
3049.791370	1064.000000
3051.007968	1144.000000
3052.224377	1122.666667
3053.437574	1142.000000
3054.653608	1163.333333
3055.866430	1122.000000
3057.082089	1126.666667
3058.293025	1140.000000
3059.505286	1115.333333
3060.717361	1106.000000
3061.929248	1056.000000
3063.139439	1107.666667
3064.349443	1096.666667
3065.559261	1181.666667
3066.767383	1098.666667
3067.975320	1092.333333
3069.181561	1086.333333
3070.389127	1079.333333
3071.594998	1092.833333
3072.800685	1106.333333
3074.006186	1078.666667
3075.209994	1104.666667
3076.415126	1101.333333
3077.618565	1108.666667
3078.820313	1088.000000
3080.021876	1091.000000
3081.223256	1099.000000
3082.424452	1105.000000
3083.623958	1103.666667
3084.823281	1049.000000
3086.023927	1085.000000
3087.222883	1071.000000
3088.418645	1089.000000
3089.617236	1118.000000
3090.812633	1046.333333
3092.009353	1078.666667
3093.202881	1035.333333
3094.399237	1103.333333
3095.593907	1008.333333
3096.785385	1045.666667
3097.981196	1080.333333
3099.172312	1041.666667
3100.364752	1085.666667
3101.554004	1102.000000
3102.746081	1114.000000
3103.936475	1037.000000
3105.123683	1063.000000
3106.312213	1064.000000
3107.502066	1069.333333
3108.688735	1040.000000
3109.875223	1074.333333
3111.061533	1017.666667
3112.249164	1013.666667
3113.433613	1016.333333
3114.616383	1085.000000
3115.801975	1034.666667
3116.985888	1042.333333
3118.168122	1052.000000
3119.350177	1064.333333
3120.532054	1020.666667
3121.713753	1020.000000
3122.893775	1002.666667
3124.072120	1062.666667
3125.253285	1031.000000
3126.431275	1009.666667
3127.609089	1049.333333
3128.786725	1019.333333
3129.962686	1022.333333
3131.138470	1091.333333
3132.315576	1038.333333
3133.491007	1028.000000
3134.664765	1025.333333
3135.836850	1024.666667
3137.010257	1018.000000
3138.183487	1062.000000
3139.355046	995.666667
3140.527925	1025.666667
3141.697637	1021.333333
3142.868670	1021.000000
3144.038033	1020.000000
3145.205725	1012.666667
3146.376233	981.333333
3147.542083	1009.000000
3148.712241	1046.000000
3149.877743	1010.333333
3151.043070	1012.666667
3152.208224	1022.666667
3153.373205	1031.666667
3154.539505	980.666667
3155.701153	1013.000000
3156.864120	1003.666667
3158.026915	998.666667
3159.189537	1012.000000
3160.350494	1018.333333
3161.511278	1003.333333
3162.671890	989.666667
3163.830838	944.333333
3164.989615	991.333333
3166.148220	979.333333
3167.306652	995.666667
3168.464914	965.666667
3169.621513	984.000000
3170.776451	1004.333333
3171.932708	985.333333
3173.087304	1022.000000
3174.241730	1005.666667
3175.394496	976.666667
3176.547091	949.333333
3177.699517	982.333333
3178.851773	950.333333
3180.003858	983.000000
3181.152798	994.666667
3182.304544	946.333333
3183.454632	968.333333
3184.603064	994.000000
3185.751326	965.000000
3186.899420	1009.000000
3188.047345	1016.666667
3189.193614	989.000000
3190.339715	1046.333333
3191.484162	983.333333
3192.628441	979.666667
3193.772552	956.000000
3194.917980	991.000000
3196.060270	961.666667
3197.202393	987.333333
3198.344348	960.333333
3199.486136	965.000000
3200.627757	1003.666667
3201.766243	997.666667
3202.906046	936.333333
3204.047167	951.333333
3205.185153	926.000000
3206.321490	949.333333
3207.457661	974.333333
3208.595149	979.000000
3209.730989	989.666667
3210.868146	913.000000
3212.000690	953.666667
3213.137516	1005.000000
3214.269730	976.333333
3215.403261	995.666667
3216.536628	911.000000
3217.666867	945.000000
3218.799904	908.000000
3219.929815	948.666667
3221.061042	951.666667
3222.189145	946.333333
3223.320044	962.333333
3224.449299	945.666667
3225.576911	889.333333
3226.701400	953.000000
3227.830165	959.666667
3228.955808	914.666667
3230.081289	904.666667
3231.205128	916.000000
3232.331761	870.000000
3233.453797	959.333333
3234.577149	940.000000
3235.700339	953.666667
3236.823366	920.333333
3237.944755	899.000000
3239.065981	907.666667
3240.185570	922.333333
3241.304997	902.333333
3242.422786	905.000000
3243.543367	897.333333
3244.660835	902.666667
3245.778142	907.000000
3246.895289	920.666667
3248.010800	905.333333
3249.127625	909.000000
3250.241341	946.666667
3251.357846	925.666667
3252.472717	959.000000
3253.584479	907.000000
3254.696081	929.333333
3255.808999	912.000000
3256.921757	951.000000
3258.031409	921.666667
3259.142376	909.000000
3260.253184	915.333333
3261.362360	936.000000
3262.469906	882.666667
3263.578765	923.000000
3264.687467	925.666667
3265.793066	895.666667
3266.899979	919.000000
3268.005263	929.333333
3269.111861	942.666667
3270.215359	898.333333
3271.320172	878.333333
3272.424827	917.666667
3273.526383	880.333333
3274.627783	921.000000
3275.730497	930.000000
3276.833055	877.000000
3277.932516	924.666667
3279.034761	892.666667
3280.133910	923.333333
3281.231435	922.333333
3282.328804	906.000000
3283.428955	854.666667
3284.526014	908.000000
3285.622917	861.333333
3286.719665	832.000000
3287.811855	889.333333
3288.908293	877.333333
3290.003109	868.000000
3291.097771	913.666667
3292.190811	874.666667
3293.283696	908.000000
3294.374962	859.666667
3295.467539	848.666667
3296.558497	824.666667
3297.647835	907.666667
3298.737020	901.666667
3299.827518	856.000000
3300.914931	858.333333
3302.002191	909.333333
3303.090764	845.666667
3304.179185	881.333333
3305.263058	847.333333
3306.351173	885.000000
3307.436206	887.000000
3308.519624	876.000000
3309.604354	894.333333
3310.687468	891.000000
3311.771895	881.666667
3312.853243	853.666667
3313.935903	831.000000
3315.016949	889.333333
3316.097844	803.000000
3317.177125	847.000000
3318.256256	841.000000
3319.336699	880.333333
3320.414067	845.000000
3321.492747	885.666667
3322.569815	849.333333
3323.646734	907.000000
3324.722041	852.333333
3325.797199	836.666667
3326.873668	874.000000
3327.947067	886.000000
3329.020317	880.333333
3330.094877	915.000000
3331.167829	848.666667
3332.239172	839.000000
3333.311826	829.666667
3334.381414	825.000000
3335.452312	770.666667
3336.521603	861.000000
3337.592205	764.333333
3338.661200	836.000000
3339.728589	831.666667
3340.794373	857.666667
3341.864383	838.666667
3342.931330	808.333333
3343.995215	823.000000
3345.061868	843.666667
3346.126916	794.666667
3347.190361	841.000000
3348.253660	808.333333
3349.316812	841.666667
3350.379818	836.000000
3351.442678	864.666667
3352.503936	831.333333
3353.562137	781.333333
3354.624558	821.666667
3355.683924	811.666667
3356.743144	781.666667
3357.803673	832.000000
3358.859694	878.000000
3359.918478	795.000000
3360.972755	821.000000
3362.029796	801.666667
3363.085238	811.000000
3364.141990	791.000000
3365.197143	803.666667
3366.250699	795.000000
3367.302659	816.333333
3368.357380	849.333333
3369.409052	776.666667
3370.460581	871.000000
3371.513418	809.666667
3372.563208	828.000000
3373.614307	794.000000
3374.662360	833.333333
3375.713172	812.666667
3376.760940	801.666667
3377.808565	822.000000
3378.856047	812.666667
3379.901937	818.666667
3380.949135	815.333333
3381.993291	828.666667
3383.040205	829.000000
3384.085527	803.333333
3385.127808	822.666667
3386.169949	816.333333
3387.213397	795.666667
3388.256704	823.000000
3389.298422	831.666667
3390.339998	745.666667
3391.381433	834.000000
3392.421280	788.666667
3393.459538	790.333333
3394.499104	771.333333
3395.538530	771.666667
3396.576368	852.666667
3397.612619	824.000000
3398.648731	789.000000
3399.686150	768.666667
3400.720536	774.333333
3401.756229	801.666667
3402.791783	808.000000
3403.824306	807.666667
3404.859582	782.333333
3405.891827	801.333333
3406.923934	807.000000
3407.954457	739.666667
3408.986287	781.666667
3410.017979	790.000000
3411.046643	823.333333
3412.075170	780.333333
3413.105003	767.666667
3414.134699	752.666667
3415.161369	772.666667
3416.189346	769.666667
3417.214298	744.333333
3418.242000	755.333333
3419.266679	756.666667
3420.292664	745.666667
3421.317069	803.666667
3422.341338	763.666667
3423.364028	782.000000
3424.386582	809.000000
3425.410442	765.000000
3426.431282	731.000000
3427.451986	738.333333
3428.473997	759.666667
3429.492989	744.333333
3430.511845	758.333333
3431.532008	754.666667
3432.549154	775.333333
