-118.702670	7.119048
-116.033069	2.099634
-113.366404	-0.916284
-110.700491	-2.298168
-108.037511	-2.415485
-105.373100	-1.637696
-102.711620	-0.334266
-100.048711	0.498834
-97.390908	2.154779
-94.731676	0.270396
-92.073192	-0.105828
-89.417633	-1.396737
-86.760644	2.227972
-84.108754	0.030769
-81.455434	-2.313287
-78.805033	-2.033566
-76.153204	0.288578
-73.506465	1.526807
-70.858296	4.548252
-68.210870	4.125408
-65.566359	7.282517
-62.920418	6.691375
-60.279559	8.292774
-57.637271	7.964103
-54.997892	11.614452
-52.357084	9.723543
-49.717015	8.428904
-47.082020	9.964569
-44.445595	12.937529
-41.812073	14.342657
-39.177123	16.821911
-36.547239	16.517016
-33.913761	19.204196
-31.285346	18.906294
-28.657665	19.247086
-26.028555	11.973427
-23.404503	-31.994406
-20.776860	-250.808858
-18.154272	-673.951981
-15.532414	-807.455012
-12.911287	602.331002
-10.290891	3006.779487
-7.673382	5078.121212
-5.054445	6530.233566
-2.438394	7354.027506
0.176930	7545.854545
2.791525	7109.045221
5.403239	6047.054079
8.016381	4388.310023
10.624489	2246.212121
13.236178	107.393939
15.842837	-1106.997203
18.450925	-748.734266
21.058287	-107.253147
23.660625	16.355245
26.266542	18.353846
28.867436	19.449883
31.469758	17.954312
34.067062	14.657343
36.667943	12.342191
39.263808	13.391142
41.861101	11.765501
44.457675	11.478322
47.049240	10.594406
49.642234	10.782751
52.232366	7.770163
54.823925	9.063403
57.412626	9.561772
60.002753	12.097436
62.587881	9.502098
65.174437	8.035897
67.760278	9.842890
70.343266	10.755711
72.927681	7.209324
75.504967	8.538928
78.085818	6.937063
80.663822	6.081585
83.241114	4.076457
85.819834	3.487179
88.393571	1.108625
90.968735	0.889977
93.541056	0.298368
96.112670	2.318881
98.681443	3.841958
101.251643	4.806061
103.819004	4.389277
106.387792	3.985082
108.953743	3.392075
111.516859	4.471795
114.083531	4.381818
116.640981	4.274126
119.204117	4.891841
121.762294	10.434033
124.324025	19.999068
126.880799	33.204196
129.438999	49.244289
131.992247	71.123077
134.544797	95.452214
137.100897	119.788811
139.652049	147.540326
142.202504	175.612121
144.752261	198.699767
147.299199	215.390676
149.845442	224.347786
152.393110	231.935664
154.940082	231.679254
157.482118	230.112354
160.023462	227.470862
162.564112	228.152448
165.106187	227.735664
167.645452	225.831702
170.181907	227.199534
172.717672	230.050350
175.254862	229.879254
177.791361	229.041492
180.325054	226.419580
182.855943	226.366434
185.386144	221.414452
187.917771	222.308159
190.446596	221.756643
192.972622	222.515618
195.497962	222.499301
198.024727	222.914219
200.548696	223.309091
203.071979	221.930536
205.594578	221.289510
208.114384	222.637296
210.633507	222.668065
213.151947	224.821911
215.671812	221.598601
218.184674	223.091375
220.701068	220.058741
223.216781	220.348718
225.727603	220.851282
228.239850	223.275991
230.749314	222.795338
233.258100	220.381818
235.766208	219.223310
238.275740	219.159441
240.780391	219.132867
243.284366	221.959441
245.789765	221.092774
248.290289	224.714219
250.794336	226.663869
253.291413	231.913753
255.792012	236.234033
258.289840	243.800466
260.786995	247.761772
263.283478	246.513287
265.775097	245.655012
268.270236	246.966434
270.762608	244.044755
273.254310	243.253147
275.743249	241.860606
278.233611	242.625175
280.721212	242.069464
283.206053	244.664336
285.694409	244.075524
288.175825	246.899301
290.660755	248.558042
293.140839	248.600932
295.624436	250.171096
298.103191	252.751981
300.583368	250.202797
303.060794	252.154779
305.537556	255.803730
308.013654	264.128205
310.487004	277.604662
312.959693	294.309557
315.431720	306.356177
317.903085	320.451748
320.371707	328.882984
322.839669	331.075058
325.309054	327.505361
327.773616	320.123077
330.241682	309.021911
332.704927	298.643823
335.167516	287.664802
337.629448	282.433566
340.090723	279.714219
342.549263	278.737529
345.009226	278.403730
347.466457	281.584615
349.923033	281.140326
352.378955	279.773427
354.832147	280.262937
357.286762	282.168298
359.736575	283.935664
362.189884	284.306760
364.638394	284.959441
367.086254	283.919347
369.535536	280.834965
371.980023	278.590676
374.425933	279.250350
376.871194	279.643823
379.313736	277.787413
381.755630	276.840093
384.196876	276.164103
386.635408	278.578089
389.075360	276.168298
391.512599	278.433566
393.947127	279.012587
396.385141	279.896037
398.818380	279.037762
401.253039	280.433566
403.682926	283.349184
406.116298	281.624242
408.544900	279.278788
410.972860	278.475058
413.402241	279.905828
415.826858	280.843823
418.252895	279.039161
420.678293	282.448019
423.103050	280.098368
425.523048	282.559907
427.944468	278.984149
430.363192	282.818182
432.783335	284.347319
435.200784	281.918881
437.619654	280.370163
440.035829	282.118415
442.447258	284.555245
444.862163	283.763170
447.274378	282.198601
449.685960	280.492308
452.096907	279.441492
454.505167	279.602797
456.912796	275.414918
459.319792	275.853613
461.726157	273.903497
464.129839	269.790676
466.532891	269.613986
468.935313	268.858275
471.337105	268.991142
473.736219	267.229371
476.136753	264.552448
478.536658	265.462937
480.931841	269.914219
483.330489	269.622378
485.724418	267.094639
488.117721	263.658275
490.510399	261.496970
492.902451	255.918415
495.295921	251.574359
497.684679	241.876923
500.070771	233.651282
502.458283	223.700233
504.845172	215.618648
507.229396	207.899301
509.615040	203.024242
511.998022	195.283916
514.378342	187.452214
516.760083	182.413054
519.139164	181.282051
521.519663	179.197203
523.897506	176.370629
526.272692	171.371096
528.647261	168.070862
531.023249	166.488578
533.396584	164.350117
535.771336	162.213054
538.141402	160.584615
540.510854	159.480186
542.881723	157.961305
545.247911	159.542657
547.615518	161.285781
549.980479	162.562704
552.344828	159.930536
554.708563	159.584149
557.073716	158.655478
559.434197	159.318415
561.796095	157.096503
564.155354	156.331935
566.511974	156.572028
568.872040	156.470396
571.225414	153.806061
573.582233	152.379953
575.936417	150.142191
578.289992	150.138462
580.642960	149.210256
582.993295	150.304429
585.345048	150.658275
587.690124	152.115152
590.040663	149.590676
592.384530	151.366900
594.733858	153.657809
597.078537	153.668531
599.420592	151.777622
601.764064	150.807459
604.104913	149.355711
606.445159	149.291375
608.782785	147.566900
611.123846	148.337063
613.460270	148.546387
615.798110	147.173893
618.133333	142.788345
620.465939	143.257343
622.799963	143.982284
625.131372	141.607459
627.462183	139.513287
629.792396	140.249417
632.122012	137.161305
634.447004	136.800932
636.777438	135.211655
639.103251	138.024709
641.426456	136.317483
643.751078	135.869464
646.073094	135.008392
648.394516	137.294639
650.713335	136.398601
653.033571	136.051282
655.353212	137.716084
657.670254	138.445221
659.986703	135.686247
662.300554	137.685315
664.615821	135.827506
666.928491	135.098834
669.242576	130.809324
671.552061	129.990210
673.862962	125.908625
676.171270	123.061538
678.478989	120.250350
680.788124	122.490909
683.092666	121.101632
685.396622	122.413054
687.699991	123.065734
690.004776	125.996270
692.304973	126.691375
694.606586	128.026573
696.907613	127.541259
699.204059	128.817716
701.501920	127.824242
703.799197	127.640559
706.095891	128.595804
708.388009	128.570629
710.683538	125.708625
712.974493	123.649417
715.266863	122.933800
717.556657	123.818182
719.845872	125.744056
722.134507	128.674592
724.420569	128.664336
726.708045	130.625175
728.992951	131.860140
731.277279	132.978555
733.559038	132.708625
735.842211	130.218648
738.124807	127.066200
740.402847	127.750583
742.682301	128.957110
744.961180	129.924009
747.239484	130.876457
749.513237	133.699301
751.788405	130.576224
754.062999	131.013054
756.335034	130.969697
758.608482	130.910490
760.879372	128.634033
763.147706	127.457343
765.417453	126.913287
767.684645	130.312821
769.951268	130.778089
772.217320	133.009790
774.480821	134.973893
776.745734	139.736131
779.010079	141.396270
781.269893	145.226107
783.531121	143.022378
785.791781	140.140326
788.049895	136.767366
790.305464	134.443357
792.564423	131.924476
794.816884	131.303497
797.074712	130.125408
799.328021	131.419114
801.578790	133.476457
803.830971	136.282051
806.080613	139.271329
808.331667	140.324009
810.578210	135.699301
812.826166	132.562238
815.071586	129.653147
817.318419	129.568765
819.564689	128.890909
821.806456	128.083450
824.051605	126.433566
826.290283	125.448485
828.532342	123.961305
830.769903	124.958042
833.008876	124.762238
835.245322	123.065734
837.483179	120.187413
839.718511	118.864336
841.951320	120.655012
844.185539	123.801399
846.417237	123.402331
848.648380	122.989277
850.878968	121.357110
853.109002	118.975291
855.338481	117.168765
857.563480	119.032168
859.791852	117.714685
862.015746	117.811189
864.241051	118.664336
866.461880	121.098368
868.686081	121.043823
870.905809	120.858275
873.126947	120.405128
875.347535	122.479254
877.565614	124.541725
879.785102	124.192541
882.000124	123.496503
884.214598	123.358042
886.428525	122.517016
888.641904	123.254545
890.854737	122.394872
893.067022	121.827506
895.276806	117.808858
897.486044	118.062937
899.694737	117.002797
901.900930	118.041026
904.108533	120.358508
906.313639	120.897436
908.518201	120.609790
910.720268	120.448485
912.923744	121.902564
915.124726	123.668065
917.325166	123.714685
919.527015	124.559441
921.722473	124.722145
923.921289	123.027040
926.115668	120.821911
928.313404	120.758042
930.506704	119.559907
932.701413	119.573427
934.893635	120.185548
937.085320	121.258275
939.276467	123.084382
941.465131	125.985548
943.653259	127.765501
945.838905	130.831702
948.027905	132.708159
950.212480	133.842424
952.396521	134.467133
954.583913	136.427972
956.763000	135.276457
958.945438	137.849417
961.127342	138.329138
963.306771	139.211189
965.483728	141.094639
967.662093	145.248019
969.841865	148.196270
972.015288	149.110956
974.192057	148.445221
976.364419	151.067133
978.538189	152.174825
980.707555	156.475524
982.880265	156.739394
985.050510	157.398135
987.220225	156.871329
989.389412	157.221911
991.554202	155.782751
993.722334	156.551981
995.886070	155.783683
998.051214	154.538462
1000.213898	155.512354
1002.376057	159.634965
1004.535759	163.005128
1006.694936	169.647086
1008.855520	173.806993
1011.013649	175.449883
1013.171255	178.201865
1015.328337	178.867599
1017.484895	175.838228
1019.637074	177.564103
1021.790660	178.044755
1023.943724	178.390676
1026.094339	179.356643
1028.246360	181.006527
1030.394009	181.472727
1032.544989	184.460606
1034.691598	186.141259
1036.837688	187.152914
1038.983260	186.994406
1041.130237	187.737529
1043.270925	187.120280
1045.414942	188.786480
1047.556520	188.151049
1049.697580	188.351049
1051.840046	189.611655
1053.976231	190.064802
1056.115743	187.037296
1058.250899	187.202797
1060.389380	188.737529
1062.523508	189.895105
1064.657122	186.913287
1066.792140	185.492774
1068.922810	182.984149
1071.054884	180.801399
1073.184528	178.383683
1075.313661	176.980420
1077.442283	176.069464
1079.570393	174.699301
1081.696077	171.729604
1083.821251	172.047552
1085.947829	172.794872
1088.070069	172.469930
1090.193714	171.017249
1092.313024	169.558974
1094.437563	168.268065
1096.555858	167.805128
1098.675556	167.087179
1100.792837	166.099301
1102.909610	165.881585
1105.025877	165.134266
1107.139729	162.703497
1109.254984	161.806993
1111.365917	158.743590
1113.480162	155.380886
1115.590086	153.111422
1117.701413	149.802331
1119.812237	146.725874
1121.918744	146.131469
1124.028560	143.994406
1126.134062	142.255944
1128.240968	143.784149
1130.341658	146.879720
1132.447560	148.091841
1134.549153	152.068065
1136.652148	150.782284
1138.754644	151.234033
1140.850932	150.113287
1142.952427	148.403730
1145.049620	145.618648
1147.146314	143.473193
1149.242511	138.380420
1151.338209	135.758042
1153.433410	135.030303
1155.526214	135.107692
1157.620420	135.761305
1159.708435	138.048951
1161.801648	138.863403
1163.888674	141.808392
1165.978998	142.735198
1168.065034	143.574825
1170.154368	142.406527
1172.237521	143.485315
1174.322077	141.296503
1176.408034	142.531935
1178.489709	139.944056
1180.572785	140.117016
1182.653476	139.726340
1184.733676	139.281119
1186.813384	139.738462
1188.892601	140.264802
1190.969435	138.751049
1193.043889	136.296037
1195.121635	131.578555
1197.195110	129.353380
1199.269987	127.970163
1201.340596	128.584615
1203.412606	125.896037
1205.482240	127.593939
1207.553275	126.334732
1209.623822	128.569231
1211.690109	128.906294
1213.757796	131.377156
1215.823110	131.597669
1217.889825	131.226573
1219.952284	128.184149
1222.018029	127.756177
1224.079519	127.781818
1226.142410	126.302098
1228.202932	124.220047
1230.262972	126.178089
1232.322528	125.889977
1234.379720	126.875058
1236.436429	125.579953
1238.490776	126.320746
1240.548403	124.259207
1242.603668	124.456876
1244.654693	123.720746
1246.707117	124.283450
1248.759061	124.148252
1250.808647	123.399068
1252.857754	121.627040
1254.906382	122.866200
1256.954532	120.775291
1259.002204	118.236830
1261.045645	116.757110
1263.092362	116.428438
1265.136725	115.897902
1267.180611	120.648019
1269.222147	121.509091
1271.261333	123.399068
1273.303792	122.212121
1275.342028	121.253147
1277.381663	119.775291
1279.420822	120.518881
1281.455764	119.641492
1283.492104	118.728205
1285.526100	118.708159
1287.561493	120.995338
1289.592673	121.145455
1291.625252	123.051748
1293.657359	118.806527
1295.687125	118.511888
1297.718288	116.482051
1299.745244	115.765035
1301.773599	114.422378
1303.797748	115.361305
1305.825163	113.978555
1307.848375	113.309091
1309.872985	114.139394
1311.895260	116.663869
1313.918933	116.156643
1315.940273	116.568765
1317.961146	115.820513
1319.981551	120.598135
1321.997763	120.951515
1324.015372	120.371096
1326.030653	119.244289
1328.049193	116.769231
1330.063543	115.560839
1332.075568	116.126807
1334.090851	116.737063
1336.101948	119.437296
1338.114441	120.299767
1340.122752	121.263869
1342.134319	121.493706
1344.139847	121.366900
1346.148630	120.017716
1348.153235	118.707692
1350.161094	116.138928
1352.168491	113.941259
1354.169857	114.891841
1356.172619	115.815385
1358.174922	114.979953
1360.176765	117.237762
1362.178148	118.111422
1364.177217	117.712354
1366.175828	116.922611
1368.173981	116.497436
1370.171676	114.932401
1372.165208	116.451748
1374.160135	115.498368
1376.154606	114.374359
1378.148620	114.495571
1380.140327	112.810723
1382.131578	111.567832
1384.120524	112.318881
1386.110865	112.955245
1388.100752	113.882051
1390.088334	115.978089
1392.075463	118.647086
1394.060290	118.662005
1396.046512	123.524476
1398.030433	123.071795
1400.013902	122.936131
1401.996919	123.650350
1403.977638	121.740793
1405.959751	122.779953
1407.939567	123.856876
1409.918933	121.131935
1411.894160	119.206527
1413.872625	119.702098
1415.848797	119.089044
1417.824519	118.118881
1419.799792	119.306760
1421.772775	119.637296
1423.745309	122.017249
1425.717395	122.377622
1427.689034	123.762704
1429.656544	123.784615
1431.629128	126.138928
1433.593906	121.699301
1435.563757	119.939860
1437.529483	119.235897
1439.496603	117.724476
1441.461439	116.444289
1443.422155	117.829371
1445.387939	118.828904
1447.347768	122.200932
1449.308991	121.797203
1451.271605	123.372028
1453.230105	121.879720
1455.188163	122.038695
1457.145779	119.235431
1459.102952	120.016783
1461.057850	119.077389
1463.014141	121.131002
1464.968157	119.829371
1466.921732	123.245688
1468.873035	123.570629
1470.825730	126.089044
1472.776154	125.344056
1474.726139	127.011655
1476.675685	126.475524
1478.622962	127.342191
1480.567971	128.635431
1482.514373	130.520280
1484.460337	129.840559
1486.405864	130.438695
1488.349125	129.203263
1490.291950	129.804196
1492.232512	127.639627
1494.174466	125.855012
1496.114157	122.425641
1498.053413	124.274126
1499.992235	124.290443
1501.928797	125.348252
1503.866750	127.255012
1505.802444	130.098834
1507.737705	130.908159
1509.670709	132.967366
1511.603281	135.786014
1513.535421	137.368298
1515.467129	135.258275
1517.396584	132.668998
1519.327429	129.562238
1521.257842	127.337063
1523.184183	126.935664
1525.111914	123.643823
1527.037396	125.864336
1528.962448	129.182284
1530.887070	131.248951
1532.811264	135.564569
1534.733211	140.838228
1536.656548	144.065268
1538.577638	146.210256
1540.496484	149.827040
1542.416720	151.572960
1544.334712	154.080653
1546.252278	159.231702
1548.167603	162.483450
1550.084317	168.816783
1551.996975	176.517016
1553.912838	182.603730
1555.826462	191.685315
1557.737847	202.724476
1559.650622	215.282051
1561.559347	227.893706
1563.469461	249.449417
1565.379152	284.035431
1567.288420	339.676923
1569.195453	418.811655
1571.100254	520.551515
1573.006444	624.951515
1574.910403	729.807459
1576.813940	805.412587
1578.717057	846.208392
1580.617944	844.529138
1582.520220	801.471795
1584.420267	717.398601
1586.321703	615.414452
1588.219104	506.905828
1590.116088	407.370163
1592.012653	327.434499
1593.910605	271.840093
1595.802723	233.201865
1597.698035	215.011189
1599.592928	195.863403
1601.485601	185.176224
1603.377856	175.947319
1605.267892	168.927273
1607.157512	163.402331
1609.046717	160.565501
1610.935506	157.676457
1612.822079	154.568298
1614.710039	152.360839
1616.593982	149.522611
1618.479312	147.599534
1620.364229	146.868065
1622.246932	143.040559
1624.131022	143.516550
1626.011100	140.682051
1627.892566	139.196737
1629.771820	136.488578
1631.652462	133.813054
1633.527299	132.026573
1635.407117	130.137995
1637.282930	129.907226
1639.158334	129.712821
1641.035123	129.213054
1642.906115	127.289977
1644.780290	126.509091
1646.650465	127.272727
1648.523821	126.433100
1650.394974	126.566900
1652.263925	123.911888
1654.134262	125.515618
1656.000606	124.714685
1657.868335	124.835431
1659.733865	124.793473
1661.600781	126.758974
1663.463707	125.977622
1665.328020	124.460606
1667.190136	122.583217
1669.051847	123.420513
1670.914943	122.127273
1672.775845	122.206993
1674.634554	121.408858
1676.492859	120.949184
1678.352548	120.054079
1680.206471	121.905361
1682.063567	119.546853
1683.920259	120.704895
1685.772976	120.715152
1687.628864	120.318881
1689.480778	119.404196
1691.332291	122.027040
1693.183403	120.797669
1695.034114	121.201865
1696.884425	120.151515
1698.732552	121.675058
1700.582063	121.424242
1702.425824	121.928671
1704.274536	118.853147
1706.117501	118.533333
1707.963632	118.256876
1709.805802	118.650350
1711.651137	119.210723
1713.490730	121.205128
1715.331709	121.311422
1717.174070	123.490443
1719.012474	123.548718
1720.852262	126.215851
1722.689875	124.635897
1724.527093	124.763636
1726.362137	125.113753
1728.198564	126.615385
1730.032818	127.947786
1731.866679	129.488112
1733.700145	129.620047
1735.529665	129.654079
1737.362345	128.547786
1739.191079	129.480653
1741.022972	126.819114
1742.850922	126.450350
1744.678480	123.441958
1746.505647	121.262005
1748.332422	122.337529
1750.158805	121.228438
1751.981252	119.875524
1753.806854	120.152914
1755.628520	118.360839
1757.451569	120.617249
1759.272457	120.705361
1761.092955	122.996737
1762.914835	122.929138
1764.731015	123.277389
1766.550347	122.356177
1768.365752	123.695105
1770.184308	123.168298
1771.998938	123.459674
1773.813181	122.180420
1775.627038	122.498834
1777.440508	118.704429
1779.251824	122.293240
1781.064522	119.140793
1782.876834	120.150583
1784.685227	119.044755
1786.495002	120.310490
1788.300861	121.099301
1790.109867	122.269464
1791.914959	123.027506
1793.721432	124.387879
1795.527520	124.142191
1797.329699	122.825641
1799.135021	120.592541
1800.936435	123.623310
1802.739230	118.884382
1804.538118	122.077855
1806.338387	121.283916
1808.138274	121.411189
1809.936019	120.864336
1811.733384	121.004662
1813.530368	121.756177
1815.326972	121.909557
1817.121437	123.202797
1818.917282	121.782751
1820.707471	118.996270
1822.502557	119.809790
1824.291990	120.147319
1826.084561	122.979487
1827.874996	122.075058
1829.663296	120.825641
1831.454732	121.050816
1833.240523	119.956177
1835.027692	120.960839
1836.812731	121.862471
1838.600902	121.137063
1840.385188	119.063403
1842.167345	114.275058
1843.950881	116.609790
1845.732288	116.780420
1847.515073	115.319347
1849.293979	115.215385
1851.074263	116.272727
1852.852422	116.143590
1854.631958	116.567832
1856.409370	118.752914
1858.184659	121.154779
1859.961325	120.604662
1861.735869	121.604662
1863.511790	122.504429
1865.282092	126.466200
1867.055521	125.124942
1868.826830	124.045221
1870.597768	122.038695
1872.370084	124.504895
1874.136786	123.484382
1875.906613	123.817716
1877.672577	123.726340
1879.441665	123.508625
1881.206891	122.642890
1882.971749	125.976224
1884.737983	126.737995
1886.500359	127.877855
1888.262368	124.347319
1890.024010	121.322611
1891.785284	117.768765
1893.546192	118.473193
1895.306732	116.527739
1897.065164	117.564103
1898.823229	115.600466
1900.579187	114.855478
1902.336521	114.600932
1904.093490	115.226573
1905.848352	116.486247
1907.601109	118.739860
1909.353503	117.743124
1911.107273	118.993007
1912.858939	117.632168
1914.608502	117.689510
1916.359442	117.048951
1918.110018	120.122145
1919.856756	118.525874
1921.604869	118.843823
1923.350883	116.158042
1925.098273	117.082984
1926.843564	117.612121
1928.586758	116.955711
1930.331328	117.420047
1932.073801	119.171096
1933.815914	116.648485
1935.557668	116.732634
1937.299061	117.965501
1939.038361	122.263636
1940.777302	123.793939
1942.515884	124.603497
1944.252375	121.545921
1945.988507	121.539627
1947.726015	118.072727
1949.459700	118.317716
1951.194760	119.457343
1952.927731	118.381119
1954.660346	116.328205
1956.392604	116.635664
1958.124506	115.789277
1959.854323	118.952914
1961.582054	119.542657
1963.311160	120.584149
1965.039910	120.400000
1966.766577	123.332867
1968.492890	124.933800
1970.220577	129.349184
1971.942727	133.205128
1973.667978	134.417249
1975.389422	133.074126
1977.113966	130.555711
1978.836431	125.526807
1980.555092	125.499301
1982.276852	122.651282
1983.994811	120.091375
1985.714142	120.180886
1987.429674	120.952448
1989.150026	120.251748
1990.866580	121.013986
1992.579337	123.878322
1994.295190	125.649883
1996.008971	125.138928
1997.722402	123.582284
1999.433762	122.383217
2001.146494	123.815851
2002.855435	122.186480
2004.567470	120.187413
2006.273995	122.618182
2007.983613	122.455944
2009.691163	121.500233
2011.398366	122.185548
2013.103503	123.596270
2014.808293	125.355245
2016.514456	125.046154
2018.216835	124.855944
2019.920587	125.730070
2021.622276	124.984149
2023.323619	123.512354
2025.024618	123.805128
2026.723555	122.589277
2028.423864	122.668065
2030.120397	122.421445
2031.818302	123.174359
2033.514149	121.613986
2035.213081	123.440093
2036.906527	124.402331
2038.601344	126.933333
2040.295818	127.644755
2041.986525	127.394872
2043.680314	126.799534
2045.370338	125.906760
2047.061731	122.634033
2048.751072	121.741725
2050.441784	119.302564
2052.128732	118.518881
2053.815340	117.156177
2055.503319	119.251282
2057.187538	119.250350
2058.873127	119.483916
2060.558377	119.351981
2062.241579	119.886713
2063.926151	117.757110
2065.605259	118.715618
2067.289154	117.531935
2068.967587	116.956177
2070.649098	116.525408
2072.326857	118.158042
2074.004280	120.235897
2075.683072	119.448951
2077.359821	117.640559
2079.034529	116.298834
2080.710607	115.358974
2082.384643	116.157576
2084.058345	115.184149
2085.731711	117.875524
2087.403038	117.875058
2089.074031	120.589744
2090.744690	121.879720
2092.415015	123.268065
2094.085006	121.550117
2095.752960	120.438695
2097.420582	119.924476
2099.086170	121.060606
2100.753126	121.040559
2102.418049	124.325874
2104.082640	121.586480
2105.745199	122.874592
2107.409126	122.150117
2109.071022	123.207925
2110.732587	120.866667
2112.393822	118.487179
2114.053027	117.288578
2115.711903	119.200466
2117.370448	118.605594
2119.028664	119.882051
2120.683157	119.593939
2122.340714	120.972494
2123.997941	119.298834
2125.651448	120.943124
2127.306322	120.917949
2128.957477	120.551981
2130.611695	116.889510
2132.262195	117.967832
2133.914063	118.145455
2135.560522	119.083450
2137.211735	118.403263
2138.859236	119.342191
2140.508103	118.314219
2142.154951	118.458741
2143.801474	120.727739
2145.447671	119.624242
2147.090159	118.603730
2148.735706	117.974359
2150.377546	117.620047
2152.022443	119.534732
2153.663635	117.231702
2155.304503	117.784149
2156.945048	114.675058
2158.583580	115.608858
2160.223478	115.210723
2161.859676	116.336597
2163.497240	117.994872
2165.134482	116.379487
2166.769714	117.255478
2168.404624	120.544522
2170.039213	121.875058
2171.673481	120.503497
2173.304055	118.096970
2174.937681	117.245221
2176.567614	115.175758
2178.198914	117.123077
2179.828208	117.696970
2181.457183	117.878788
2183.085838	117.291841
2184.714174	118.846620
2186.340507	118.782751
2187.966522	119.239627
2189.590536	118.920746
2191.215915	118.648951
2192.839293	119.159907
2194.464036	118.538462
2196.085098	118.565035
2197.705843	119.021911
2199.327952	118.874592
2200.948064	118.341725
2202.566180	117.202331
2204.183980	117.985548
2205.801464	113.646620
2207.418634	113.773893
2209.035487	114.838228
2210.652026	115.168765
2212.266571	113.921678
2213.879125	114.508625
2215.493042	115.010256
2217.104968	117.251282
2218.718257	119.197203
2220.329555	121.067599
2221.938865	119.343124
2223.549537	118.823310
2225.158221	115.358042
2226.766593	117.069930
2228.372978	116.801399
2229.980725	116.265734
2231.586487	114.809324
2233.191937	115.083450
2234.795402	114.272727
2236.400230	116.635431
2238.003074	119.191142
2239.603935	119.192075
2241.206159	117.319814
2242.806401	118.281585
2244.408005	118.529138
2246.005956	120.282051
2247.605270	119.143590
2249.202604	120.187879
2250.799630	119.559907
2252.398017	121.461072
2253.992757	120.613054
2255.585519	122.224242
2257.179644	121.850350
2258.775130	119.818182
2260.366971	116.973893
2261.958506	116.364569
2263.551402	115.930536
2265.138990	116.281119
2266.731273	114.499301
2268.318249	114.453613
2269.908254	113.251748
2271.492954	114.639161
2273.082348	112.886247
2274.666439	116.965967
2276.251892	116.530536
2277.835376	115.102564
2279.421885	114.676923
2281.004761	114.683450
2282.587334	115.308392
2284.169603	116.172494
2285.748242	112.957809
2287.329906	109.155711
2288.907941	106.199301
2290.488999	105.586480
2292.066430	106.320047
2293.641898	109.552914
2295.220388	109.465501
2296.795254	111.159441
2298.369819	113.156410
2299.944083	112.381352
2301.518047	113.949883
2303.091711	114.224709
2304.665075	112.963170
2306.234820	110.424242
2307.804266	110.668531
2309.376730	110.275524
2310.943920	111.110023
2312.514127	112.786946
2314.080721	113.270862
2315.648673	115.392075
2317.214671	115.059207
2318.780371	119.044289
2320.345773	124.824709
2321.909222	129.087179
2323.474030	135.013520
2325.035229	137.003263
2326.599443	139.899301
2328.158396	137.298368
2329.720362	132.948718
2331.280378	130.625641
2332.840098	124.443823
2334.397870	120.324476
2335.955346	114.336597
2337.512528	111.812121
2339.067762	110.849417
2340.622702	111.962238
2342.177349	115.331469
2343.731702	115.970629
2345.285761	117.824242
2346.839527	117.243823
2348.391348	116.114219
2349.941226	119.532401
2351.494113	119.433100
2353.041756	121.471329
2354.592407	116.516084
2356.139468	114.728205
2357.687886	113.992541
2359.236013	113.533333
2360.780551	110.832634
2362.326447	107.852214
2363.870404	105.250816
2365.415719	105.945921
2366.957449	106.665268
2368.500537	109.884848
2370.041688	110.809324
2371.582550	111.855012
2373.123123	109.027506
2374.663407	111.623776
2376.203402	113.421445
2377.739818	113.355245
2379.279236	112.402797
2380.815077	113.763170
2382.352275	114.340326
2383.885897	118.089510
2385.422519	119.429371
2386.957211	120.022844
2388.489972	116.863403
2390.022448	116.612587
2391.552995	114.186480
2393.086540	115.378089
2394.614874	114.103497
2396.144564	112.455478
2397.673969	111.859207
2399.203089	112.347786
2400.731923	111.930070
2402.255553	111.219580
2403.783818	111.759441
2405.306880	111.782751
2406.834577	111.076457
2408.355434	113.291841
2409.880923	112.565967
2411.402853	115.005594
2412.926137	115.061538
2414.447501	116.898368
2415.966945	115.723543
2417.487744	116.928671
2419.006624	116.668531
2420.525223	115.987413
2422.041903	116.487646
2423.559939	118.469930
2425.077693	118.160839
2426.591895	119.013520
2428.105818	119.279254
2429.619460	123.501632
2431.134456	124.047552
2432.645905	125.646620
2434.158707	126.285781
2435.669597	131.388345
2437.180208	133.069464
2438.688907	134.305828
2440.200592	133.417716
2441.708734	135.601399
2443.216598	134.137063
2444.724183	133.513287
2446.228229	132.527739
2447.735259	131.175291
2449.240381	129.048019
2450.745226	128.484382
2452.248164	127.918415
2453.750825	129.548718
2455.253211	128.861538
2456.753690	127.901166
2458.255524	126.268531
2459.755452	128.452214
2461.255105	128.093240
2462.754483	127.990676
2464.251958	127.195338
2465.747531	124.706760
2467.246084	125.812587
2468.741109	125.800466
2470.237486	123.757576
2471.730337	122.931002
2473.224541	121.740326
2474.718471	121.660140
2476.208877	120.692774
2477.702261	122.155245
2479.193747	121.103497
2480.683336	121.046620
2482.172653	119.690443
2483.660074	119.232168
2485.150471	120.845688
2486.637350	123.294172
2488.125580	121.006527
2489.610293	121.399068
2491.094736	120.067133
2492.580531	119.753846
2494.064434	117.687646
2495.549687	117.144988
2497.029807	113.030303
2498.512899	111.694172
2499.994102	110.415851
2501.475035	109.940326
2502.954078	108.678788
2504.432854	109.548252
2505.911361	108.240093
2507.389599	110.245688
2508.867570	111.928671
2510.342035	112.348718
2511.819470	112.327273
2513.293400	115.175291
2514.768682	114.368765
2516.243696	117.357576
2517.715209	117.045688
2519.188073	116.436364
2520.659054	113.694172
2522.131385	113.647086
2523.598602	113.118881
2525.068786	112.946853
2526.537089	115.480186
2528.005126	113.144988
2529.472899	112.197669
2530.940407	113.946853
2532.407651	113.759441
2533.871402	115.399534
2535.336503	115.962704
2536.799727	117.089510
2538.264300	117.751515
2539.725385	120.656876
2541.187819	121.799534
2542.649990	123.002797
2544.108674	123.851282
2545.571931	119.733333
2547.030091	119.408392
2548.489601	119.908625
2549.944016	117.610256
2551.403002	116.399534
2552.860116	113.996270
2554.315358	112.586480
2555.770340	112.082051
2557.223452	113.587413
2558.677913	112.855012
2560.130505	114.784149
2561.582837	113.642424
2563.033301	113.572494
2564.486722	115.271795
2565.935060	116.913753
2567.386353	115.677389
2568.835780	115.731935
2570.281736	113.908159
2571.730646	115.715152
2573.176085	114.940326
2574.622873	113.441492
2576.067797	113.826573
2577.512464	116.079254
2578.958478	116.441026
2580.401025	119.175291
2581.844920	120.616317
2583.285350	123.421911
2584.727128	122.913753
2586.167046	125.391142
2587.608311	126.369697
2589.046114	126.938462
2590.486867	121.893706
2591.922558	117.020047
2593.361197	116.300233
2594.797980	113.046620
2596.232907	110.731935
2597.670781	108.341725
2599.103598	107.932401
2600.537762	108.281119
2601.970071	108.838695
2603.403728	113.214452
2604.835530	115.200000
2606.267080	117.262005
2607.698376	117.882984
2609.127821	121.211655
2610.557013	122.500699
2611.984354	123.367366
2613.413042	120.867133
2614.841477	119.258741
2616.266466	121.443823
2617.692800	119.634499
2619.117287	117.617249
2620.543118	117.985548
2621.965507	117.375291
2623.389240	120.873193
2624.811128	121.579953
2626.232765	124.337995
2627.652558	124.313287
2629.073696	126.843357
2630.494584	123.370629
2631.912033	124.612121
2633.332422	123.759441
2634.749374	122.180886
2636.166078	122.158042
2637.582533	126.360839
2638.998740	128.324476
2640.414699	133.087646
2641.828817	134.514219
2643.242687	137.885315
2644.654718	142.143124
2646.068094	146.090443
2647.478040	145.621445
2648.890922	149.820979
2650.300375	151.655478
2651.709582	155.538462
2653.116953	159.244755
2654.527258	165.051748
2655.935727	166.796270
2657.342362	170.313753
2658.748750	173.193939
2660.153306	177.350117
2661.559205	182.634499
2662.963270	186.103030
2664.367092	186.175758
2665.770669	189.450816
2667.172415	193.095571
2668.575504	193.589744
2669.975175	193.833100
2671.376190	195.200932
2672.773789	193.274126
2674.174317	193.600000
2675.571431	195.205594
2676.969888	197.268531
2678.366517	197.715618
2679.762905	199.244289
2681.159050	199.300233
2682.553369	203.957110
2683.949031	207.538462
2685.341284	209.317949
2686.734879	211.569231
2688.126650	213.862471
2689.519764	213.208858
2690.911053	215.322145
2692.300521	214.572494
2693.689748	217.057343
2695.078735	215.515618
2696.469065	217.696503
2697.854411	222.111422
2699.242680	229.994872
2700.629129	236.686247
2702.015339	245.862937
2703.401310	253.047552
2704.783883	260.860606
2706.167798	269.877855
2707.551474	280.384149
2708.934913	289.035897
2710.314956	299.890443
2711.696341	304.639627
2713.075910	312.134266
2714.456821	317.499767
2715.835917	322.200466
2717.213199	320.965035
2718.591822	319.020513
2719.968631	310.549184
2721.345205	300.068998
2722.721543	292.480653
2724.096069	283.128671
2725.471936	273.886713
2726.844416	264.802331
2728.219813	254.413520
2729.590249	245.432168
2730.962025	234.421911
2732.333568	226.970163
2733.703302	217.263403
2735.074376	211.223310
2736.443643	202.817716
2737.812676	194.365967
2739.179903	187.358508
2740.546896	180.674592
2741.913657	174.214452
2743.280185	168.943590
2744.644909	160.758042
2746.009400	156.685315
2747.373659	150.220047
2748.737687	147.988811
2750.101482	144.690909
2751.461905	142.277855
2752.825237	139.969231
2754.183627	135.120280
2755.544927	130.284848
2756.902857	125.244755
2758.263695	121.053613
2759.622733	119.834499
2760.978403	114.958508
2762.336982	115.969231
2763.692193	115.288578
2765.047175	116.299767
2766.400360	114.055478
2767.756452	114.227040
2769.109180	115.794872
2770.461679	116.164569
2771.813951	115.023310
2773.167560	113.572960
2774.517808	113.371096
2775.866263	113.131002
2777.217622	110.128671
2778.565622	110.263869
2779.914961	108.286247
2781.262507	107.720280
2782.609827	106.220979
2783.956919	109.731002
2785.302221	109.178089
2786.647297	107.682051
2787.992147	108.170163
2789.336771	108.358974
2790.678043	106.220979
2792.020652	106.662937
2793.363037	106.087179
2794.705196	105.195804
2796.044006	103.634965
2797.385716	105.637762
2798.724077	105.642424
2800.063776	106.322611
2801.401689	102.542657
2802.737818	101.727739
2804.073724	102.550117
2805.410967	101.268531
2806.746425	97.708159
2808.081661	98.755711
2809.415115	97.868531
2810.749905	99.586946
2812.081354	98.981818
2813.415699	101.291841
2814.745146	101.465268
2816.075930	102.868998
2817.406492	101.759441
2818.735275	103.158508
2820.065395	102.936131
2821.393736	101.152914
2822.721855	97.441026
2824.048198	97.205128
2825.375876	94.930070
2826.700222	96.428904
2828.025904	94.283450
2829.349810	95.426107
2830.673496	95.351515
2831.998518	96.343590
2833.320211	95.296037
2834.641685	97.135198
2835.962939	93.966434
2837.283975	92.711888
2838.603239	92.037762
2839.923838	92.641492
2841.242665	92.377156
2842.561274	93.432634
2843.878113	92.632634
2845.194734	95.450816
2846.511138	96.813520
2847.825772	97.410723
2849.141741	97.614918
2850.454391	97.610723
2851.768375	95.464802
2853.082143	96.085315
2854.395694	96.534266
2855.707479	97.036364
2857.017497	94.494639
2858.328850	93.667133
2859.636888	94.131935
2860.946260	98.586014
2862.255417	98.358508
2863.564359	100.504429
2864.871538	100.724009
2866.176953	102.443357
2867.483703	102.160373
2868.788691	101.674592
2870.093464	101.718415
2871.396477	100.893240
2872.702370	97.096970
2874.003409	96.957110
2875.305781	98.344988
2876.606395	99.518415
2877.908341	97.893706
2879.210075	99.848951
2880.508505	98.173427
2881.808268	99.345921
2883.106274	96.944988
2884.404068	96.134732
2885.700105	95.375291
2886.997476	93.314685
2888.293092	91.418182
2889.588496	92.228438
2890.883689	92.234499
2892.175585	90.861072
2893.470356	89.872261
2894.761832	90.944522
2896.054640	90.855944
2897.347238	91.027040
2898.636541	91.268531
2899.927178	92.009324
2901.216063	91.607925
2902.506280	90.995338
2903.793206	90.735664
2905.081464	91.143124
2906.367973	89.037296
2907.654273	88.579021
2908.940365	88.714685
2910.224709	89.574359
2911.511925	87.592075
2912.794314	86.727739
2914.078035	88.982284
2915.360009	90.711888
2916.641777	90.435897
2917.921799	91.809790
2919.204691	91.495105
2920.485838	93.942657
2921.763703	96.006527
2923.044437	98.756643
2924.321890	97.518415
2925.599138	94.570163
2926.874643	91.094172
2928.153016	90.774825
2929.426575	88.199534
2930.703001	89.689510
2931.977685	87.247552
2933.250630	87.525874
2934.524906	87.843357
2935.797441	90.297436
2937.069773	92.467599
2938.338832	93.109557
2939.610756	91.581818
2940.880942	90.369231
2942.150924	90.302098
2943.420703	89.132867
2944.688746	87.572028
2945.955052	88.638228
2947.221156	85.146853
2948.488591	83.837762
2949.754290	84.202331
2951.019788	83.259674
2952.285083	84.439161
2953.547113	86.107692
2954.810473	85.276457
2956.073632	83.716084
2957.335058	83.709557
2958.597815	83.613520
2959.858839	83.729604
2961.118133	83.606993
2962.377226	80.298368
2963.636120	80.333800
2964.894812	81.621445
2966.153305	84.066200
2967.410069	87.023310
2968.666634	89.658275
2969.921470	89.702564
2971.177636	89.367366
2972.430547	88.305828
2973.684786	87.175291
2974.938827	86.874592
2976.191142	86.909091
2977.443259	82.120746
2978.693651	82.814918
2979.946898	81.879720
2981.195368	84.346387
2982.446693	83.712821
2983.694768	85.320746
2984.942646	86.841026
2986.190328	86.732401
2987.437812	84.073193
2988.683575	82.837296
2989.929141	81.744988
2991.176036	81.591608
2992.419686	78.878788
2993.664663	79.585082
2994.906398	79.745921
2996.150984	82.272727
2997.393851	83.861072
2998.633477	87.345455
2999.875953	89.613520
3001.115189	89.788811
3002.355753	87.654545
3003.594600	87.750117
3004.833253	86.241492
3006.070190	86.780420
3007.308455	83.780886
3008.545004	83.823776
3009.781360	83.900233
3011.017522	85.305828
3012.251970	85.619114
3013.486225	84.663403
3014.720287	84.151049
3015.952637	83.951515
3017.183275	83.411655
3018.416759	82.046154
3019.648532	80.130070
3020.878593	80.367832
3022.108463	79.055944
3023.336623	81.399534
3024.566110	83.138462
3025.793887	85.161305
3027.021473	83.943124
3028.250385	84.269930
3029.474555	86.496503
3030.701568	88.218648
3031.925358	88.944988
3033.150473	86.885315
3034.373883	86.031702
3035.597102	85.049883
3036.818616	82.575291
3038.042971	81.789744
3039.262591	79.993007
3040.483537	78.604662
3041.704293	75.657343
3042.923347	75.594872
3044.143725	77.389744
3045.360887	79.755245
3046.579374	81.881119
3047.796160	81.875524
3049.012757	81.736131
3050.229167	81.542657
3051.442363	80.302564
3052.658397	81.797669
3053.871219	81.858275
3055.086878	82.736131
3056.297814	82.904429
3057.510076	83.108159
3058.722150	81.719347
3059.934038	82.578089
3061.144229	82.443357
3062.354233	81.820746
3063.564051	81.485781
3064.772173	81.937296
3065.980110	80.839627
3067.186351	83.042191
3068.393917	81.989744
3069.599788	83.016550
3070.805474	82.998601
3072.010976	82.649184
3073.214784	79.677389
3074.419916	81.053846
3075.623355	79.283450
3076.825102	79.882751
3078.026666	79.204662
3079.228046	79.324942
3080.429242	77.126807
3081.628748	77.697902
3082.828071	76.982751
3084.028717	77.474592
3085.227673	78.826573
3086.423434	81.602797
3087.622025	80.636830
3088.817422	81.484848
3090.014143	79.907226
3091.207671	81.881585
3092.404027	80.259207
3093.598696	80.235897
3094.790175	78.737063
3095.985986	79.791608
3097.177102	78.032168
3098.369542	78.280653
3099.558793	79.279254
3100.750871	81.303497
3101.941265	81.066200
3103.128473	79.432168
3104.317003	77.864802
3105.506856	79.435431
3106.693524	77.979953
3107.880013	77.478788
3109.066323	77.945921
3110.253954	78.155711
3111.438403	75.101632
3112.621173	76.825175
3113.806765	75.413986
3114.990678	79.365035
3116.172911	78.125408
3117.354967	79.028438
3118.536844	79.455944
3119.718543	79.884848
3120.898565	78.423776
3122.076910	77.303963
3123.258075	78.437762
3124.436065	77.447552
3125.613878	77.206061
3126.791514	79.146387
3127.967475	77.546387
3129.143260	80.091375
3130.320365	76.734732
3131.495797	79.985082
3132.669555	78.667133
3133.841640	76.188345
3135.015046	74.375291
3136.188277	74.765967
3137.359836	77.588345
3138.532715	77.500233
3139.702427	76.475991
3140.873460	75.435431
3142.042822	73.674126
3143.210515	71.927739
3144.381023	70.982284
3145.546872	74.959441
3146.717031	73.317949
3147.882532	74.303963
3149.047860	75.462005
3150.213014	78.852214
3151.377995	81.270862
3152.544295	81.582284
3153.705942	79.431235
3154.868910	79.642424
3156.031705	76.577622
3157.194326	74.206527
3158.355283	74.290443
3159.516068	75.711888
3160.676680	72.493706
3161.835628	73.445221
3162.994405	73.231235
3164.153009	75.732867
3165.311442	76.703030
3166.469703	78.165035
3167.626303	77.104429
3168.781241	77.511422
3169.937498	74.372028
3171.092094	74.834965
3172.246520	75.131002
3173.399285	75.857809
3174.551881	74.507226
3175.704307	74.163636
3176.856562	72.516550
3178.008648	73.216783
3179.157587	71.570163
3180.309333	70.943124
3181.459422	67.376690
3182.607853	67.636830
3183.756116	66.019580
3184.904210	67.250816
3186.052135	67.526340
3187.198404	69.502564
3188.344505	68.872261
3189.488952	68.689044
3190.633230	66.951049
3191.777341	69.579953
3192.922770	69.805128
3194.065060	70.355245
3195.207182	68.153846
3196.349138	70.816783
3197.490926	70.199534
3198.632547	72.971096
3199.771033	73.196737
3200.910836	74.405128
3202.051956	71.394406
3203.189943	70.310490
3204.326279	69.330070
3205.462451	71.398135
3206.599939	71.142657
3207.735779	70.349184
3208.872936	68.895571
3210.005480	68.905361
3211.142305	68.044289
3212.274520	71.267599
3213.408051	71.517949
3214.541417	70.743124
3215.671657	69.122145
3216.804694	70.385082
3217.934605	69.728671
3219.065832	72.319814
3220.193934	73.218182
3221.324834	72.489510
3222.454089	70.143590
3223.581701	69.905361
3224.706190	68.466667
3225.834955	69.599534
3226.960598	68.109091
3228.086078	68.813520
3229.209917	70.674126
3230.336551	72.510023
3231.458587	74.501166
3232.581939	78.341259
3233.705128	78.470862
3234.828156	81.329138
3235.949544	80.706760
3237.070771	85.300699
3238.190359	85.380886
3239.309786	89.974359
3240.427576	90.050350
3241.548157	92.568765
3242.665625	91.433100
3243.782932	90.080653
3244.900079	88.718415
3246.015589	84.639627
3247.132415	80.434499
3248.246130	79.234499
3249.362636	74.978555
3250.477506	75.000000
3251.589268	73.392541
3252.700871	74.052214
3253.813789	69.452214
3254.926547	70.093240
3256.036199	67.406993
3257.147166	66.651748
3258.257974	65.875991
3259.367150	65.972028
3260.474695	66.291841
3261.583555	66.339394
3262.692256	66.833100
3263.797855	67.525874
3264.904769	66.261072
3266.010053	65.832168
3267.116651	65.228438
3268.220149	67.613520
3269.324961	68.838695
3270.429616	68.997669
3271.531173	70.393939
3272.632573	72.484382
3273.735287	73.272261
3274.837845	74.341725
3275.937306	73.227506
3277.039551	72.043357
3278.138700	70.137063
3279.236224	70.450816
3280.333594	68.694639
3281.433745	68.994406
3282.530804	68.427040
3283.627707	65.595338
3284.724455	64.677855
3285.816644	63.794872
3286.913083	62.591608
3288.007899	64.166434
3289.102560	63.048951
3290.195600	63.291841
3291.288486	62.878322
3292.379751	64.872261
3293.472329	66.623310
3294.563287	68.162704
3295.652625	67.500233
3296.741810	67.715618
3297.832307	68.391142
3298.919721	69.773427
3300.006981	70.691841
3301.095554	70.623776
3302.183974	70.746387
3303.267848	71.077855
3304.355963	69.648951
3305.440996	71.572494
3306.524414	69.317949
3307.609144	67.488112
3308.692258	66.437762
3309.776684	65.656876
3310.858033	66.840559
3311.940693	67.700233
3313.021738	67.268065
3314.102633	67.569231
3315.181915	70.848019
3316.261046	71.711422
3317.341489	71.677389
3318.418857	71.405594
3319.497537	67.900699
3320.574605	66.372494
3321.651523	64.385082
3322.726831	63.115152
3323.801989	62.947319
3324.878458	64.158042
3325.951857	65.822378
3327.025106	67.368765
3328.099667	68.920746
3329.172619	68.384149
3330.243962	68.393007
3331.316616	67.253613
3332.386203	65.220513
3333.457101	63.958508
3334.526393	61.689044
3335.596994	63.140326
3336.665989	63.580420
3337.733379	65.490443
3338.799163	65.724942
3339.869173	67.001865
3340.936120	67.828438
3342.000005	66.257343
3343.066657	66.333800
3344.131706	65.180886
3345.195151	64.330536
3346.258450	64.751049
3347.321602	64.567366
3348.384608	66.377156
3349.447468	64.675524
3350.508725	63.179487
3351.566926	63.619580
3352.629348	66.251282
3353.688714	66.076923
3354.747934	66.259207
3355.808463	64.505361
3356.864484	64.367366
3357.923268	64.805594
3358.977545	64.721678
3360.034586	65.395338
3361.090028	64.287179
3362.146780	61.406061
3363.201933	60.390210
3364.255489	61.806527
3365.307448	63.349184
3366.362170	61.351515
3367.413842	61.013054
3368.465370	58.180420
3369.518208	59.560373
3370.567998	59.226107
3371.619097	58.638695
3372.667149	58.985548
3373.717962	58.132867
3374.765729	55.582751
3375.813354	56.813986
3376.860837	58.268065
3377.906727	59.436830
3378.953925	57.532401
3379.998080	59.954779
3381.044995	61.116084
3382.090317	63.057343
3383.132598	63.185548
3384.174738	62.279720
3385.218187	61.189744
3386.261494	59.602797
3387.303211	58.006993
3388.344788	59.106760
3389.386223	58.278788
3390.426070	58.845688
3391.464328	59.021445
3392.503894	62.562238
3393.543320	66.165501
3394.581158	65.838228
3395.617409	64.710023
3396.653520	62.846154
3397.690939	61.896037
3398.725325	62.466200
3399.761019	62.110023
3400.796573	62.687646
3401.829095	60.550583
3402.864371	61.020979
3403.896617	62.322611
3404.928723	66.581352
3405.959247	68.386946
3406.991077	66.992075
3408.022769	67.316550
3409.051433	65.619114
3410.079960	65.170629
3411.109793	64.348718
3412.139489	61.544988
3413.166159	60.823776
3414.194135	56.724942
3415.219087	55.674592
3416.246790	56.953380
3417.271468	58.184615
3418.297453	59.780420
3419.321859	63.149650
3420.346128	65.226107
3421.368818	65.672261
3422.391372	67.059674
3423.415232	66.461538
3424.436072	65.119347
3425.456776	62.783883
3426.478786	60.376657
3427.497778	58.267133
3428.516635	56.824775
3429.536798	56.419048
3430.553944	57.419414
