-117.888313	17.300000
-115.218713	-15.600000
-112.552048	3.200000
-109.886135	-1.400000
-107.223154	-8.000000
-104.558744	-21.700000
-101.897264	15.800000
-99.234355	6.600000
-96.576552	6.500000
-93.917320	9.900000
-91.258836	2.300000
-88.603276	4.300000
-85.946288	16.600000
-83.294398	-4.500000
-80.641078	12.300000
-77.990677	-17.600000
-75.338847	15.100000
-72.692108	-1.900000
-70.043940	-1.600000
-67.396514	6.000000
-64.752002	12.500000
-62.106062	1.100000
-59.465203	-0.100000
-56.822915	-5.100000
-54.183536	1.400000
-51.542727	-6.800000
-48.902659	-1.000000
-46.267663	0.600000
-43.631239	11.600000
-40.997717	-0.500000
-38.362767	18.400000
-35.732882	-3.200000
-33.099405	-2.500000
-30.470990	-0.100000
-27.843309	5.700000
-25.214199	8.700000
-22.590146	6.600000
-19.962504	-4.300000
-17.339915	3.600000
-14.718058	7.100000
-12.096931	36.400000
-9.476534	36.400000
-6.859026	162.000000
-4.240089	499.400000
-1.624037	1174.100000
0.991286	1280.100000
3.605882	638.900000
6.217595	51.800000
8.830737	19.300000
11.438845	-3.500000
14.050535	3.200000
16.657194	11.000000
19.265281	10.200000
21.872644	4.300000
24.474982	-0.800000
27.080898	-18.200000
29.681792	8.300000
32.284114	-6.300000
34.881419	6.900000
37.482299	21.100000
40.078164	-12.700000
42.675458	2.000000
45.272032	-0.700000
47.863597	8.100000
50.456590	-10.500000
53.046722	-4.500000
55.638282	-6.900000
58.226982	-2.600000
60.817109	5.300000
63.402237	2.000000
65.988793	10.200000
68.574635	3.300000
71.157623	-2.800000
73.742037	7.000000
76.319323	7.100000
78.900175	3.200000
81.478178	4.200000
84.055471	-2.100000
86.634190	2.800000
89.207927	12.000000
91.783092	-13.100000
94.355413	1.500000
96.927026	20.600000
99.495799	-14.200000
102.065999	-2.000000
104.633361	2.900000
107.202148	10.700000
109.768099	-1.500000
112.331215	-10.600000
114.897887	8.600000
117.455338	15.800000
120.018474	-5.000000
122.576650	-3.000000
125.138381	-4.700000
127.695155	7.800000
130.253356	13.700000
132.806603	39.000000
135.359153	20.300000
137.915253	50.200000
140.466405	60.100000
143.016860	62.600000
145.566617	75.300000
148.113555	95.800000
150.659798	107.600000
153.207466	105.400000
155.754438	83.800000
158.296475	99.900000
160.837818	81.600000
163.378468	91.100000
165.920544	95.000000
168.459808	105.100000
170.996264	85.000000
173.532028	92.700000
176.069218	79.900000
178.605717	91.800000
181.139410	90.400000
183.670299	105.000000
186.200501	73.400000
188.732127	79.300000
191.260952	88.800000
193.786978	114.100000
196.312318	85.600000
198.839083	72.500000
201.363052	88.000000
203.886336	84.300000
206.408935	98.900000
208.928741	97.300000
211.447864	86.300000
213.966304	81.500000
216.486168	105.500000
218.999031	93.500000
221.515425	90.800000
224.031137	77.700000
226.541959	95.600000
229.054206	105.100000
231.563671	94.900000
234.072457	108.600000
236.580564	101.600000
239.090096	93.100000
241.594747	100.300000
244.098722	86.300000
246.604121	94.900000
249.104645	92.100000
251.608693	103.800000
254.105769	79.300000
256.606369	96.600000
259.104197	95.300000
261.601352	91.500000
264.097834	97.700000
266.589453	106.900000
269.084592	91.800000
271.576964	85.900000
274.068666	108.200000
276.557605	114.800000
279.047968	86.800000
281.535568	106.400000
284.020409	103.100000
286.508765	90.500000
288.990181	110.000000
291.475111	90.000000
293.955196	97.600000
296.438793	101.600000
298.917547	101.300000
301.397725	96.300000
303.875150	106.000000
306.351912	98.600000
308.828011	100.000000
311.301361	100.800000
313.774049	114.500000
316.246076	109.900000
318.717442	140.900000
321.186063	116.700000
323.654026	145.700000
326.123410	102.900000
328.587972	136.900000
331.056038	83.900000
333.519284	107.700000
335.981872	108.500000
338.443804	111.900000
340.905079	91.800000
343.363620	111.800000
345.823583	100.400000
348.280813	111.100000
350.737389	104.100000
353.193311	122.100000
355.646503	111.600000
358.101118	109.600000
360.550931	82.000000
363.004240	109.700000
365.452751	101.300000
367.900610	111.300000
370.349892	103.200000
372.794380	106.700000
375.240290	102.500000
377.685550	101.200000
380.128092	118.300000
382.569986	107.400000
385.011233	101.100000
387.449764	112.200000
389.889717	105.100000
392.326956	118.800000
394.761483	102.000000
397.199498	104.300000
399.632736	103.200000
402.067395	120.100000
404.497282	86.400000
406.930654	86.100000
409.359256	95.600000
411.787216	107.700000
414.216598	99.600000
416.641214	96.700000
419.067252	97.000000
421.492649	103.700000
423.917406	93.600000
426.337405	111.200000
428.758825	117.900000
431.177548	114.600000
433.597692	110.500000
436.015141	121.300000
438.434010	114.600000
440.850186	112.100000
443.261614	86.800000
445.676520	121.300000
448.088735	106.300000
450.500316	93.800000
452.911263	112.500000
455.319524	100.500000
457.727152	92.400000
460.134148	100.700000
462.540513	98.600000
464.944195	106.300000
467.347247	105.800000
469.749669	115.300000
472.151461	114.800000
474.550576	98.300000
476.951110	96.400000
479.351015	105.600000
481.746197	93.300000
484.144846	100.400000
486.538775	99.200000
488.932078	110.400000
491.324755	106.100000
493.716807	107.600000
496.110277	76.600000
498.499035	98.900000
500.885127	92.700000
503.272639	80.600000
505.659528	65.700000
508.043753	95.200000
510.429396	69.300000
512.812378	85.400000
515.192699	62.200000
517.574439	74.300000
519.953520	77.200000
522.334020	65.300000
524.711862	60.800000
527.087049	71.300000
529.461618	61.600000
531.837605	59.200000
534.210940	51.900000
536.585692	68.200000
538.955759	65.100000
541.325210	78.900000
543.696079	71.200000
546.062268	63.400000
548.429875	59.700000
550.794836	56.400000
553.159184	51.400000
555.522919	94.600000
557.888072	53.700000
560.248553	55.100000
562.610452	67.800000
564.969710	57.100000
567.326331	60.500000
569.686396	58.200000
572.039770	55.500000
574.396589	64.500000
576.750773	68.600000
579.104349	58.300000
581.457316	64.000000
583.807651	63.000000
586.159404	42.500000
588.504480	62.800000
590.855020	53.600000
593.198886	55.600000
595.548214	64.700000
597.892893	60.300000
600.234948	56.500000
602.578420	73.000000
604.919269	52.300000
607.259516	52.100000
609.597142	61.000000
611.938203	52.900000
614.274626	70.500000
616.612466	55.600000
618.947689	45.300000
621.280296	54.600000
623.614319	56.700000
625.945728	39.200000
628.276539	40.900000
630.606753	67.800000
632.936368	58.200000
635.261360	54.000000
637.591794	51.900000
639.917607	50.600000
642.240812	46.300000
644.565434	41.100000
646.887450	63.200000
649.208872	62.900000
651.527692	50.800000
653.847927	50.900000
656.167569	28.300000
658.484610	43.600000
660.801059	34.100000
663.114910	58.000000
665.430177	48.700000
667.742847	53.000000
670.056932	53.900000
672.366417	53.500000
674.677318	45.400000
676.985626	49.100000
679.293346	55.600000
681.602480	46.100000
683.907022	73.900000
686.210978	57.100000
688.514348	41.400000
690.819132	42.600000
693.119330	43.000000
695.420942	48.000000
697.721970	46.300000
700.018415	54.600000
702.316276	66.400000
704.613553	42.300000
706.910247	49.900000
709.202365	49.400000
711.497894	38.500000
713.788849	55.700000
716.081219	41.000000
718.371014	54.900000
720.660228	44.200000
722.948863	34.000000
725.234925	48.300000
727.522402	51.400000
729.807307	51.200000
732.091635	40.100000
734.373394	51.300000
736.656567	49.500000
738.939163	26.600000
741.217203	43.300000
743.496658	33.600000
745.775536	65.200000
748.053840	34.000000
750.327594	60.400000
752.602761	45.900000
754.877355	51.200000
757.149390	59.400000
759.422838	35.400000
761.693728	34.300000
763.962062	37.400000
766.231809	42.700000
768.499002	45.200000
770.765624	58.800000
773.031676	39.600000
775.295177	26.500000
777.560091	65.000000
779.824435	39.500000
782.084250	63.200000
784.345477	44.400000
786.606137	61.500000
788.864251	54.800000
791.119820	47.400000
793.378780	50.000000
795.631241	59.000000
797.889068	41.000000
800.142377	47.600000
802.393146	46.600000
804.645327	46.000000
806.894969	50.700000
809.146024	52.700000
811.392567	47.600000
813.640522	47.400000
815.885943	45.200000
818.132775	46.500000
820.379046	43.500000
822.620812	50.100000
824.865962	55.800000
827.104639	55.800000
829.346698	44.800000
831.584259	53.300000
833.823232	57.100000
836.059678	59.800000
838.297535	42.900000
840.532867	52.400000
842.765676	43.800000
844.999896	37.000000
847.231593	39.100000
849.462736	53.000000
851.693324	51.100000
853.923358	48.600000
856.152838	39.400000
858.377836	56.900000
860.606209	37.300000
862.830102	38.300000
865.055407	36.000000
867.276236	42.900000
869.500437	48.600000
871.720165	44.300000
873.941303	44.800000
876.161891	56.700000
878.379970	39.800000
880.599458	45.500000
882.814480	39.600000
885.028955	50.800000
887.242881	40.100000
889.456261	38.700000
891.669093	33.900000
893.881379	38.500000
896.091162	35.200000
898.300400	41.600000
900.509093	42.600000
902.715287	52.500000
904.922890	59.900000
907.127995	34.400000
909.332557	30.600000
911.534624	48.100000
913.738100	39.400000
915.939082	47.200000
918.139522	27.000000
920.341371	51.700000
922.536829	51.000000
924.735646	44.100000
926.930024	58.200000
929.127760	54.100000
931.321060	54.400000
933.515769	57.000000
935.707992	54.700000
937.899676	57.100000
940.090823	32.600000
942.279487	51.600000
944.467615	48.600000
946.653262	60.700000
948.842261	40.800000
951.026837	56.500000
953.210878	35.400000
955.398269	47.200000
957.577356	46.800000
959.759794	53.600000
961.941698	38.300000
964.121127	60.800000
966.298084	39.600000
968.476449	47.700000
970.656221	53.300000
972.829644	59.300000
975.006413	56.800000
977.178775	41.700000
979.352545	68.400000
981.521911	63.400000
983.694621	46.500000
985.864866	40.900000
988.034582	57.300000
990.203769	63.700000
992.368559	47.800000
994.536690	66.100000
996.700427	51.900000
998.865570	57.500000
1001.028254	46.000000
1003.190413	50.600000
1005.350115	48.600000
1007.509292	59.000000
1009.669876	46.000000
1011.828006	52.600000
1013.985611	73.500000
1016.142693	57.200000
1018.299251	65.400000
1020.451430	71.500000
1022.605016	52.800000
1024.758080	55.600000
1026.908695	64.800000
1029.060717	78.200000
1031.208365	72.300000
1033.359345	85.700000
1035.505954	57.200000
1037.652044	69.800000
1039.797616	78.000000
1041.944593	78.000000
1044.085281	51.500000
1046.229299	62.500000
1048.370876	85.000000
1050.511937	59.300000
1052.654402	58.000000
1054.790588	70.400000
1056.930099	75.900000
1059.065256	79.000000
1061.203737	72.800000
1063.337864	79.600000
1065.471478	61.900000
1067.606497	63.400000
1069.737166	51.300000
1071.869240	58.000000
1073.998885	75.000000
1076.128018	90.200000
1078.256639	70.600000
1080.384749	57.900000
1082.510433	45.900000
1084.635607	76.900000
1086.762185	63.600000
1088.884425	80.400000
1091.008070	88.600000
1093.127380	66.700000
1095.251920	58.500000
1097.370214	80.200000
1099.489913	66.000000
1101.607193	86.000000
1103.723967	48.900000
1105.840234	83.200000
1107.954085	69.500000
1110.069341	70.500000
1112.180273	50.600000
1114.294518	76.000000
1116.404442	51.600000
1118.515770	57.500000
1120.626593	71.900000
1122.733100	78.700000
1124.842917	45.900000
1126.948419	83.300000
1129.055324	51.200000
1131.156014	63.100000
1133.261916	58.200000
1135.363509	72.500000
1137.466505	53.800000
1139.569000	61.900000
1141.665288	47.000000
1143.766784	57.600000
1145.863976	46.200000
1147.960671	60.700000
1150.056867	59.200000
1152.152566	72.200000
1154.247766	34.800000
1156.340570	67.400000
1158.434777	66.300000
1160.522792	76.300000
1162.616005	59.200000
1164.703030	52.300000
1166.793354	55.800000
1168.879391	61.900000
1170.968725	64.100000
1173.051878	54.600000
1175.136433	54.600000
1177.222390	66.800000
1179.304065	65.800000
1181.387142	58.100000
1183.467833	55.000000
1185.548032	65.900000
1187.627740	61.800000
1189.706957	65.600000
1191.783792	77.800000
1193.858246	63.300000
1195.935991	58.300000
1198.009467	65.800000
1200.084343	42.200000
1202.154952	72.600000
1204.226962	44.800000
1206.296597	68.900000
1208.367632	23.100000
1210.438179	68.200000
1212.504465	50.800000
1214.572152	73.100000
1216.637467	49.900000
1218.704182	59.400000
1220.766641	57.800000
1222.832385	59.900000
1224.893875	52.700000
1226.956766	58.500000
1229.017289	54.900000
1231.077328	71.700000
1233.136885	73.400000
1235.194076	63.800000
1237.250786	62.600000
1239.305132	59.100000
1241.362760	61.600000
1243.418025	59.400000
1245.469049	36.600000
1247.521473	55.700000
1249.573417	48.700000
1251.623003	68.500000
1253.672110	40.800000
1255.720739	59.400000
1257.768889	62.600000
1259.816560	67.400000
1261.860001	64.000000
1263.906718	66.400000
1265.951081	47.800000
1267.994968	68.600000
1270.036503	52.000000
1272.075689	57.100000
1274.118148	63.500000
1276.156384	58.800000
1278.196019	50.200000
1280.235179	58.700000
1282.270120	72.400000
1284.306460	68.300000
1286.340456	70.300000
1288.375849	70.200000
1290.407030	64.600000
1292.439608	72.900000
1294.471715	65.000000
1296.501481	65.500000
1298.532645	67.400000
1300.559601	75.700000
1302.587955	61.400000
1304.612104	77.600000
1306.639519	77.700000
1308.662731	99.000000
1310.687341	80.100000
1312.709617	101.800000
1314.733290	93.900000
1316.754630	96.100000
1318.775502	107.400000
1320.795907	101.800000
1322.812119	109.600000
1324.829728	113.000000
1326.845009	105.100000
1328.863549	122.100000
1330.877900	118.100000
1332.889925	120.800000
1334.905207	120.400000
1336.916304	143.400000
1338.928798	133.300000
1340.937109	141.100000
1342.948675	137.800000
1344.954203	141.100000
1346.962986	140.000000
1348.967591	133.400000
1350.975450	119.100000
1352.982847	133.400000
1354.984213	120.000000
1356.986975	120.900000
1358.989278	98.400000
1360.991121	110.400000
1362.992504	114.500000
1364.991574	108.500000
1366.990185	97.600000
1368.988338	88.800000
1370.986032	81.400000
1372.979564	94.500000
1374.974491	68.200000
1376.968962	85.300000
1378.962976	75.800000
1380.954683	80.300000
1382.945935	77.200000
1384.934881	84.100000
1386.925222	71.300000
1388.915108	70.200000
1390.902690	58.400000
1392.889819	72.400000
1394.874646	54.300000
1396.860868	64.600000
1398.844790	51.500000
1400.828259	75.400000
1402.811275	72.500000
1404.791994	70.600000
1406.774107	57.900000
1408.753924	75.700000
1410.733289	73.100000
1412.708516	81.100000
1414.686981	67.800000
1416.663153	81.300000
1418.638876	79.700000
1420.614149	77.900000
1422.587131	75.600000
1424.559665	75.300000
1426.531751	69.400000
1428.503390	65.500000
1430.470900	47.100000
1432.443484	69.200000
1434.408262	66.000000
1436.378113	68.700000
1438.343840	65.000000
1440.310959	87.400000
1442.275795	66.000000
1444.236511	77.300000
1446.202295	70.600000
1448.162124	74.900000
1450.123347	59.400000
1452.085962	72.400000
1454.044462	58.600000
1456.002519	74.600000
1457.960135	61.400000
1459.917308	70.000000
1461.872206	44.700000
1463.828497	63.500000
1465.782513	72.400000
1467.736088	67.800000
1469.687391	49.800000
1471.640087	90.300000
1473.590510	60.900000
1475.540495	55.800000
1477.490041	66.000000
1479.437318	77.400000
1481.382327	61.900000
1483.328729	75.600000
1485.274693	67.200000
1487.220220	76.900000
1489.163481	72.100000
1491.106307	71.100000
1493.046869	63.200000
1494.988822	73.200000
1496.928513	69.000000
1498.867770	90.400000
1500.806591	82.500000
1502.743153	74.600000
1504.681106	74.800000
1506.616800	79.900000
1508.552061	83.700000
1510.485066	54.900000
1512.417638	69.400000
1514.349778	95.900000
1516.281486	87.800000
1518.210940	82.800000
1520.141785	68.200000
1522.072198	78.300000
1523.998539	92.200000
1525.926271	99.600000
1527.851752	97.500000
1529.776804	97.800000
1531.701427	110.200000
1533.625621	130.300000
1535.547567	135.400000
1537.470904	130.300000
1539.391994	138.400000
1541.310840	156.200000
1543.231076	187.200000
1545.149069	211.400000
1547.066635	211.900000
1548.981959	255.600000
1550.898673	276.200000
1552.811332	340.500000
1554.727195	356.600000
1556.640818	431.400000
1558.552203	492.400000
1560.464978	569.400000
1562.373703	626.200000
1564.283817	666.500000
1566.193508	705.900000
1568.102776	752.800000
1570.009810	700.900000
1571.914611	669.000000
1573.820801	628.300000
1575.724759	553.400000
1577.628296	460.300000
1579.531413	413.700000
1581.432300	350.000000
1583.334576	294.800000
1585.234624	260.200000
1587.136059	257.000000
1589.033461	220.200000
1590.930444	200.200000
1592.827009	179.700000
1594.724962	172.800000
1596.617080	168.700000
1598.512391	140.600000
1600.407285	136.400000
1602.299957	152.600000
1604.192212	137.100000
1606.082248	131.300000
1607.971868	134.800000
1609.861073	139.600000
1611.749863	110.300000
1613.636435	111.100000
1615.524395	84.400000
1617.408338	95.700000
1619.293668	101.800000
1621.178585	91.000000
1623.061288	94.900000
1624.945378	99.900000
1626.825456	91.800000
1628.706922	71.200000
1630.586177	85.300000
1632.466818	74.000000
1634.341655	73.400000
1636.221473	60.200000
1638.097287	69.600000
1639.972690	67.500000
1641.849479	63.900000
1643.720472	78.100000
1645.594646	65.400000
1647.464821	52.900000
1649.338178	61.900000
1651.209331	79.500000
1653.078282	66.900000
1654.948618	64.300000
1656.814962	61.700000
1658.682691	54.400000
1660.548221	45.400000
1662.415137	37.800000
1664.278064	58.700000
1666.142376	56.500000
1668.004492	59.900000
1669.866203	47.100000
1671.729300	54.700000
1673.590201	80.400000
1675.448910	39.300000
1677.307215	56.100000
1679.166905	61.900000
1681.020827	42.300000
1682.877923	52.000000
1684.734616	64.900000
1686.587332	38.400000
1688.443220	40.400000
1690.295134	63.100000
1692.146647	45.500000
1693.997759	27.300000
1695.848471	49.200000
1697.698782	41.700000
1699.546908	60.100000
1701.396419	37.800000
1703.240181	58.700000
1705.088892	38.400000
1706.931857	43.500000
1708.777989	55.400000
1710.620158	55.200000
1712.465493	30.700000
1714.305087	38.900000
1716.146065	42.300000
1717.988426	39.200000
1719.826831	41.200000
1721.666619	49.200000
1723.504232	42.800000
1725.341449	40.800000
1727.176493	50.800000
1729.012920	54.400000
1730.847175	58.500000
1732.681035	41.100000
1734.514501	50.400000
1736.344022	47.900000
1738.176701	47.900000
1740.005436	39.400000
1741.837328	36.100000
1743.665278	54.600000
1745.492837	38.000000
1747.320003	56.700000
1749.146778	30.800000
1750.973161	50.200000
1752.795608	41.700000
1754.621210	46.900000
1756.442877	43.800000
1758.265926	29.700000
1760.086813	37.600000
1761.907312	39.900000
1763.729191	40.900000
1765.545372	43.600000
1767.364704	38.100000
1769.180109	46.200000
1770.998664	33.000000
1772.813294	41.500000
1774.627537	43.500000
1776.441394	56.200000
1778.254864	34.900000
1780.066181	49.000000
1781.878878	53.100000
1783.691190	59.500000
1785.499584	33.100000
1787.309358	53.600000
1789.115218	37.300000
1790.924223	39.000000
1792.729315	42.700000
1794.535788	47.500000
1796.341877	46.700000
1798.144055	45.800000
1799.949378	33.400000
1801.750792	40.300000
1803.553586	40.100000
1805.352474	46.000000
1807.152743	62.500000
1808.952630	56.500000
1810.750375	42.100000
1812.547740	47.800000
1814.344725	38.000000
1816.141329	42.000000
1817.935794	38.700000
1819.731638	61.300000
1821.521827	40.600000
1823.316913	34.600000
1825.106347	19.400000
1826.898917	32.500000
1828.689352	46.100000
1830.477653	51.900000
1832.269089	46.000000
1834.054879	54.800000
1835.842049	41.000000
1837.627087	47.500000
1839.415259	32.200000
1841.199545	46.600000
1842.981701	28.800000
1844.765237	44.000000
1846.546644	45.500000
1848.329430	51.200000
1850.108335	28.000000
1851.888620	31.700000
1853.666778	28.400000
1855.446315	43.500000
1857.223727	28.400000
1858.999015	44.900000
1860.775681	26.700000
1862.550225	41.900000
1864.326147	23.800000
1866.096448	46.100000
1867.869877	33.400000
1869.641186	42.700000
1871.412124	37.400000
1873.184440	51.300000
1874.951142	42.800000
1876.720970	29.300000
1878.486934	27.900000
1880.256021	46.800000
1882.021247	19.000000
1883.786105	44.400000
1885.552340	44.000000
1887.314716	57.800000
1889.076725	28.900000
1890.838366	37.200000
1892.599641	29.300000
1894.360548	42.300000
1896.121089	50.600000
1897.879520	42.100000
1899.637585	41.700000
1901.393543	46.100000
1903.150877	40.600000
1904.907846	39.600000
1906.662708	48.000000
1908.415466	48.500000
1910.167859	46.400000
1911.921629	54.900000
1913.673295	35.200000
1915.422859	46.300000
1917.173798	52.300000
1918.924375	59.600000
1920.671112	58.600000
1922.419226	35.900000
1924.165240	36.300000
1925.912629	53.800000
1927.657921	27.400000
1929.401115	40.800000
1931.145684	41.400000
1932.888158	44.400000
1934.630271	29.300000
1936.372024	36.800000
1938.113417	40.300000
1939.852717	30.100000
1941.591658	27.800000
1943.330240	43.300000
1945.066731	39.200000
1946.802864	42.550000
1948.540371	45.900000
1950.274056	27.500000
1952.009116	52.800000
1953.742087	47.900000
1955.474702	44.900000
1957.206961	48.200000
1958.938863	47.400000
1960.668679	34.600000
1962.396410	34.200000
1964.125516	45.200000
1965.854267	38.800000
1967.580934	36.900000
1969.307247	38.100000
1971.034933	45.600000
1972.757083	35.600000
1974.482334	37.600000
1976.203778	47.200000
1977.928323	53.400000
1979.650787	46.100000
1981.369449	44.600000
1983.091209	28.400000
1984.809167	64.100000
1986.528498	37.100000
1988.244030	55.100000
1989.964382	36.200000
1991.680936	39.200000
1993.393693	34.900000
1995.109546	45.400000
1996.823327	56.800000
1998.536758	49.300000
2000.248118	40.100000
2001.960850	41.200000
2003.669792	37.300000
2005.381826	47.500000
2007.088352	29.600000
2008.797969	44.000000
2010.505520	53.400000
2012.212722	41.900000
2013.917859	35.500000
2015.622650	39.800000
2017.328812	37.600000
2019.031192	44.600000
2020.734943	35.300000
2022.436632	42.600000
2024.137976	44.800000
2025.838974	45.100000
2027.537911	44.200000
2029.238220	49.700000
2030.934754	32.900000
2032.632659	37.000000
2034.328505	37.900000
2036.027437	47.200000
2037.720883	27.000000
2039.415700	45.200000
2041.110175	36.300000
2042.800881	58.600000
2044.494671	42.100000
2046.184694	28.500000
2047.876088	42.600000
2049.565429	50.500000
2051.256140	45.400000
2052.943088	13.000000
2054.629697	23.800000
2056.317675	41.700000
2058.001894	39.600000
2059.687484	49.200000
2061.372734	34.100000
2063.055935	27.000000
2064.740507	29.100000
2066.419616	28.100000
2068.103510	39.300000
2069.781943	49.600000
2071.463454	44.100000
2073.141213	36.900000
2074.818636	41.500000
2076.497428	43.900000
2078.174178	35.800000
2079.848886	35.200000
2081.524963	46.800000
2083.199000	26.200000
2084.872701	30.300000
2086.546067	29.000000
2088.217394	52.800000
2089.888387	51.600000
2091.559046	41.200000
2093.229371	38.700000
2094.899362	33.900000
2096.567317	42.600000
2098.234939	36.500000
2099.900526	44.200000
2101.567482	35.400000
2103.232405	26.800000
2104.896996	41.200000
2106.559555	36.700000
2108.223482	48.900000
2109.885378	44.800000
2111.546944	34.400000
2113.208178	20.800000
2114.867384	34.800000
2116.526259	37.700000
2118.184805	25.800000
2119.843020	45.000000
2121.497513	33.000000
2123.155070	44.600000
2124.812298	32.300000
2126.465804	37.100000
2128.120678	36.500000
2129.771833	25.300000
2131.426051	27.600000
2133.076552	38.200000
2134.728419	41.900000
2136.374878	35.500000
2138.026092	24.100000
2139.673592	39.700000
2141.322459	46.300000
2142.969307	45.500000
2144.615830	20.000000
2146.262027	48.200000
2147.904516	33.200000
2149.550063	44.700000
2151.191903	26.300000
2152.836800	45.700000
2154.477991	24.500000
2156.118860	42.800000
2157.759404	47.800000
2159.397936	33.800000
2161.037834	41.200000
2162.674032	35.700000
2164.311596	41.800000
2165.948838	41.400000
2167.584070	49.000000
2169.218981	21.100000
2170.853569	53.300000
2172.487837	40.300000
2174.118411	24.400000
2175.752037	33.800000
2177.381971	52.300000
2179.013270	40.800000
2180.642564	38.200000
2182.271539	38.300000
2183.900194	40.000000
2185.528530	39.300000
2187.154864	47.600000
2188.780879	47.700000
2190.404892	49.700000
2192.030271	38.100000
2193.653649	46.000000
2195.278392	57.100000
2196.899454	28.300000
2198.520199	42.300000
2200.142309	31.300000
2201.762421	39.000000
2203.380536	44.400000
2204.998336	35.100000
2206.615821	44.800000
2208.232990	35.500000
2209.849844	45.800000
2211.466382	41.100000
2213.080928	22.100000
2214.693481	40.000000
2216.307398	42.100000
2217.919324	40.000000
2219.532613	21.500000
2221.143912	44.900000
2222.753221	38.600000
2224.363894	43.700000
2225.972578	48.900000
2227.580949	37.300000
2229.187334	39.000000
2230.795082	34.200000
2232.400843	20.900000
2234.006293	52.700000
2235.609758	39.700000
2237.214586	19.700000
2238.817430	24.000000
2240.418291	45.200000
2242.020515	40.300000
2243.620757	48.900000
2245.222361	17.600000
2246.820312	43.300000
2248.419626	36.900000
2250.016960	29.400000
2251.613986	47.300000
2253.212374	28.500000
2254.807113	46.400000
2256.399875	30.000000
2257.994000	33.300000
2259.589486	48.000000
2261.181327	39.900000
2262.772862	35.100000
2264.365759	30.400000
2265.953346	35.100000
2267.545629	32.900000
2269.132606	49.300000
2270.722610	50.000000
2272.307310	49.400000
2273.896704	33.400000
2275.480796	48.900000
2277.066248	45.900000
2278.649732	58.100000
2280.236241	35.100000
2281.819117	39.600000
2283.401690	45.300000
2284.983959	50.600000
2286.562598	25.700000
2288.144262	48.000000
2289.722297	39.900000
2291.303355	34.900000
2292.880786	33.650000
2294.456254	32.400000
2296.034744	28.400000
2297.609610	33.200000
2299.184175	27.900000
2300.758440	35.000000
2302.332404	36.700000
2303.906067	47.700000
2305.479431	35.400000
2307.049176	50.100000
2308.618622	29.000000
2310.191086	36.500000
2311.758276	43.600000
2313.328484	40.300000
2314.895077	38.900000
2316.463030	21.100000
2318.029027	31.700000
2319.594727	50.500000
2321.160129	33.000000
2322.723578	41.100000
2324.288386	40.600000
2325.849586	45.600000
2327.413800	45.400000
2328.972752	51.700000
2330.534719	40.400000
2332.094734	51.700000
2333.654455	56.600000
2335.212226	45.200000
2336.769702	40.000000
2338.326884	34.000000
2339.882118	47.300000
2341.437059	45.000000
2342.991705	48.400000
2344.546058	58.300000
2346.100118	43.200000
2347.653883	37.500000
2349.205704	35.700000
2350.755583	33.500000
2352.308469	41.700000
2353.856112	31.800000
2355.406764	46.200000
2356.953824	42.000000
2358.502242	47.000000
2360.050369	55.800000
2361.594907	48.400000
2363.140803	35.100000
2364.684761	25.500000
2366.230076	59.900000
2367.771806	33.800000
2369.314893	31.200000
2370.856044	50.600000
2372.396906	43.000000
2373.937479	37.200000
2375.477763	52.200000
2377.017758	41.700000
2378.554175	42.200000
2380.093593	55.500000
2381.629433	49.900000
2383.166631	26.300000
2384.700253	47.900000
2386.236875	46.900000
2387.771567	40.500000
2389.304329	45.800000
2390.836804	43.700000
2392.367351	49.700000
2393.900896	37.400000
2395.429230	48.100000
2396.958921	47.900000
2398.488325	40.400000
2400.017445	51.700000
2401.546280	54.600000
2403.069909	60.900000
2404.598174	34.000000
2406.121237	47.800000
2407.648933	59.900000
2409.169790	61.000000
2410.695280	40.600000
2412.217209	60.000000
2413.740494	42.600000
2415.261857	43.600000
2416.781301	45.800000
2418.302100	54.800000
2419.820981	46.500000
2421.339579	55.200000
2422.856260	44.600000
2424.374295	64.800000
2425.892049	50.700000
2427.406252	52.800000
2428.920174	64.500000
2430.433816	57.000000
2431.948813	52.100000
2433.460261	58.000000
2434.973064	48.000000
2436.483953	68.500000
2437.994564	51.800000
2439.503263	60.200000
2441.014948	55.500000
2442.523090	67.800000
2444.030954	33.100000
2445.538540	54.500000
2447.042585	64.300000
2448.549615	66.800000
2450.054737	53.700000
2451.559582	50.600000
2453.062520	52.000000
2454.565182	57.000000
2456.067567	56.700000
2457.568047	49.100000
2459.069880	55.000000
2460.569808	52.800000
2462.069461	62.200000
2463.568839	66.300000
2465.066314	53.400000
2466.561887	55.300000
2468.060440	44.900000
2469.555465	43.600000
2471.051842	55.100000
2472.544693	62.200000
2474.038897	39.700000
2475.532827	44.400000
2477.023233	51.800000
2478.516617	60.800000
2480.008103	43.400000
2481.497692	57.700000
2482.987009	39.900000
2484.474430	58.500000
2485.964827	51.100000
2487.451706	62.700000
2488.939936	55.600000
2490.424649	34.700000
2491.909093	41.300000
2493.394887	56.100000
2494.878790	43.000000
2496.364043	51.900000
2497.844163	37.100000
2499.327256	31.300000
2500.808458	39.700000
2502.289391	36.800000
2503.768435	54.300000
2505.247210	55.700000
2506.725717	37.200000
2508.203956	51.300000
2509.681926	44.500000
2511.156391	54.900000
2512.633826	44.900000
2514.107757	53.500000
2515.583038	33.000000
2517.058052	52.300000
2518.529565	53.100000
2520.002429	57.400000
2521.473410	50.800000
2522.945741	49.400000
2524.412958	38.500000
2525.883142	46.700000
2527.351445	42.800000
2528.819483	57.600000
2530.287256	35.300000
2531.754764	62.100000
2533.222007	58.900000
2534.685758	53.300000
2536.150859	39.300000
2537.614083	44.400000
2539.078656	49.100000
2540.539741	37.600000
2542.002175	46.700000
2543.464346	54.700000
2544.923031	43.500000
2546.386287	58.600000
2547.844448	36.600000
2549.303957	36.400000
2550.758372	38.300000
2552.217358	59.800000
2553.674472	32.600000
2555.129715	57.300000
2556.584696	49.400000
2558.037809	45.900000
2559.492270	55.500000
2560.944861	53.900000
2562.397193	51.100000
2563.847658	53.100000
2565.301078	52.000000
2566.749416	60.600000
2568.200709	53.100000
2569.650137	49.900000
2571.096092	51.500000
2572.545002	53.500000
2573.990442	58.800000
2575.437229	78.200000
2576.882154	63.200000
2578.326820	76.100000
2579.772834	63.400000
2581.215382	69.100000
2582.659277	57.000000
2584.099707	52.800000
2585.541484	64.100000
2586.981402	78.000000
2588.422667	63.900000
2589.860470	79.500000
2591.301223	63.500000
2592.736914	82.300000
2594.175554	50.500000
2595.612336	72.600000
2597.047263	51.600000
2598.485137	76.900000
2599.917954	70.100000
2601.352118	84.900000
2602.784428	57.600000
2604.218084	78.000000
2605.649887	93.600000
2607.081436	95.500000
2608.512733	61.800000
2609.942177	77.300000
2611.371369	72.300000
2612.798711	88.100000
2614.227398	92.200000
2615.655834	78.200000
2617.080822	79.100000
2618.507157	76.800000
2619.931643	107.200000
2621.357475	96.800000
2622.779863	83.400000
2624.203597	84.200000
2625.625484	106.700000
2627.047122	110.900000
2628.466914	99.600000
2629.888052	108.400000
2631.308940	97.200000
2632.726390	107.300000
2634.146779	109.400000
2635.563731	110.300000
2636.980434	110.000000
2638.396889	117.300000
2639.813096	118.500000
2641.229055	121.300000
2642.643173	127.500000
2644.057043	117.900000
2645.469075	128.600000
2646.882450	135.900000
2648.292396	129.700000
2649.705278	131.800000
2651.114731	147.100000
2652.523938	146.700000
2653.931309	150.300000
2655.341614	150.200000
2656.750084	142.000000
2658.156718	169.700000
2659.563107	164.500000
2660.967662	183.300000
2662.373561	169.200000
2663.777627	186.100000
2665.181448	172.900000
2666.585025	204.500000
2667.986771	176.800000
2669.389860	191.300000
2670.789531	200.300000
2672.190546	189.500000
2673.588145	206.100000
2674.988674	204.600000
2676.385787	196.000000
2677.784244	190.600000
2679.180874	205.300000
2680.577261	193.000000
2681.973406	196.300000
2683.367725	200.000000
2684.763387	196.600000
2686.155640	205.700000
2687.549235	206.600000
2688.941006	220.400000
2690.334120	188.400000
2691.725410	219.700000
2693.114877	203.600000
2694.504104	201.600000
2695.893092	216.500000
2697.283421	187.500000
2698.668767	205.200000
2700.057036	204.800000
2701.443485	176.700000
2702.829695	190.700000
2704.215666	182.900000
2705.598239	174.300000
2706.982154	164.200000
2708.365831	181.700000
2709.749269	165.400000
2711.129313	160.600000
2712.510697	172.400000
2713.890267	145.700000
2715.271177	144.500000
2716.650273	136.600000
2718.027555	137.100000
2719.406178	138.400000
2720.782988	124.600000
2722.159561	117.500000
2723.535899	103.300000
2724.910426	125.400000
2726.286293	123.100000
2727.658773	99.900000
2729.034169	92.900000
2730.404605	103.100000
2731.776382	87.900000
2733.147924	83.900000
2734.517658	100.000000
2735.888733	92.200000
2737.257999	92.800000
2738.627032	83.800000
2739.994259	65.800000
2741.361252	66.000000
2742.728013	64.600000
2744.094542	56.700000
2745.459265	61.200000
2746.823756	84.600000
2748.188016	70.900000
2749.552043	71.900000
2750.915839	43.500000
2752.276261	64.400000
2753.639593	62.000000
2754.997983	63.200000
2756.359283	60.100000
2757.717213	46.400000
2759.078051	66.200000
2760.437090	70.400000
2761.792760	62.900000
2763.151338	63.000000
2764.506549	65.400000
2765.861531	79.300000
2767.214717	57.000000
2768.570809	49.800000
2769.923536	53.100000
2771.276036	49.400000
2772.628307	32.100000
2773.981916	53.700000
2775.332165	43.500000
2776.680619	63.200000
2778.031979	63.500000
2779.379979	55.900000
2780.729317	46.800000
2782.076863	53.900000
2783.424183	44.400000
2784.771276	36.100000
2786.116578	45.800000
2787.461653	44.000000
2788.806503	40.900000
2790.151127	61.900000
2791.492399	57.000000
2792.835009	60.200000
2794.177393	45.300000
2795.519552	41.200000
2796.858362	36.500000
2798.200072	52.200000
2799.538434	48.100000
2800.878132	56.600000
2802.216046	53.600000
2803.552175	57.800000
2804.888080	35.600000
2806.225323	42.300000
2807.560782	44.300000
2808.896018	41.000000
2810.229471	35.900000
2811.564261	45.600000
2812.895711	46.600000
2814.230056	58.500000
2815.559503	28.400000
2816.890287	33.200000
2818.220849	41.900000
2819.549632	45.900000
2820.879751	34.900000
2822.208092	42.300000
2823.536212	40.900000
2824.862554	36.600000
2826.190233	26.800000
2827.514578	45.100000
2828.840260	30.400000
2830.164166	41.700000
2831.487853	28.500000
2832.812875	36.900000
2834.134567	30.700000
2835.456041	35.700000
2836.777296	33.400000
2838.098332	49.600000
2839.417595	28.300000
2840.738194	49.500000
2842.057022	51.300000
2843.375631	57.600000
2844.692469	50.500000
2846.009090	62.200000
2847.325494	37.100000
2848.640128	36.700000
2849.956098	22.800000
2851.268747	52.000000
2852.582731	37.100000
2853.896499	38.100000
2855.210050	18.600000
2856.521835	39.600000
2857.831853	29.100000
2859.143206	58.500000
2860.451244	29.300000
2861.760616	51.100000
2863.069774	49.300000
2864.378716	29.000000
2865.685894	40.400000
2866.991310	57.500000
2868.298060	55.700000
2869.603047	46.100000
2870.907821	25.800000
2872.210833	34.100000
2873.516726	19.300000
2874.817765	44.300000
2876.120138	35.800000
2877.420751	41.200000
2878.722698	34.700000
2880.024431	41.300000
2881.322861	38.900000
2882.622624	36.100000
2883.920630	40.500000
2885.218424	43.100000
2886.514462	13.900000
2887.811833	54.300000
2889.107448	31.400000
2890.402852	34.200000
2891.698045	57.700000
2892.989941	51.100000
2894.284713	17.000000
2895.576188	45.600000
2896.868996	36.200000
2898.161594	59.500000
2899.450898	35.000000
2900.741534	46.200000
2902.030419	31.500000
2903.320636	43.300000
2904.607562	39.000000
2905.895820	40.100000
2907.182329	35.900000
2908.468629	23.500000
2909.754722	43.000000
2911.039066	37.600000
2912.326281	48.500000
2913.608670	36.800000
2914.892391	29.500000
2916.174366	18.000000
2917.456133	40.400000
2918.736156	50.900000
2920.019048	21.100000
2921.300195	17.700000
2922.578060	41.300000
2923.858794	55.300000
2925.136247	53.400000
2926.413494	32.300000
2927.688999	33.500000
2928.967372	44.000000
2930.240931	49.100000
2931.517357	34.900000
2932.792042	31.300000
2934.064986	37.400000
2935.339262	37.500000
2936.611798	48.500000
2937.884129	38.000000
2939.153188	44.300000
2940.425112	22.100000
2941.695298	26.200000
2942.965280	43.000000
2944.235059	28.900000
2945.503102	26.700000
2946.769408	28.000000
2948.035513	26.200000
2949.302947	45.100000
2950.568647	32.700000
2951.834144	46.200000
2953.099439	52.000000
2954.361469	37.800000
2955.624829	22.500000
2956.887988	31.600000
2958.149415	23.300000
2959.412171	35.400000
2960.673195	50.800000
2961.932489	29.500000
2963.191583	29.300000
2964.450476	65.200000
2965.709169	30.100000
2966.967662	49.000000
2968.224426	25.100000
2969.480990	40.400000
2970.735827	47.000000
2971.991992	38.000000
2973.244903	42.000000
2974.499143	56.200000
2975.753184	44.800000
2977.005499	43.600000
2978.257615	42.200000
2979.508007	47.400000
2980.761254	46.400000
2982.009724	27.700000
2983.261049	33.000000
2984.509124	42.000000
2985.757003	43.600000
2987.004684	25.500000
2988.252168	43.900000
2989.497931	36.000000
2990.743498	21.200000
2991.990392	41.200000
2993.234042	28.900000
2994.479020	25.100000
2995.720754	27.800000
2996.965340	44.900000
2998.208207	30.100000
2999.447833	28.300000
3000.690309	30.900000
3001.929545	32.400000
3003.170109	35.700000
3004.408957	38.200000
3005.647609	8.500000
3006.884546	41.000000
3008.122811	41.500000
3009.359360	38.900000
3010.595716	29.100000
3011.831878	35.200000
3013.066326	26.000000
3014.300582	29.300000
3015.534644	40.200000
3016.766994	36.400000
3017.997632	21.000000
3019.231116	32.100000
3020.462888	32.600000
3021.692950	49.500000
3022.922819	29.100000
3024.150980	46.800000
3025.380466	36.100000
3026.608243	42.700000
3027.835829	27.300000
3029.064742	54.700000
3030.288912	23.700000
3031.515925	53.700000
3032.739714	25.600000
3033.964830	24.900000
3035.188239	24.400000
3036.411458	25.000000
3037.632972	37.800000
3038.857327	65.300000
3040.076947	34.600000
3041.297893	40.000000
3042.518650	26.300000
3043.737703	23.400000
3044.958081	30.000000
3046.175243	29.700000
3047.393731	24.900000
3048.610516	51.700000
3049.827114	42.500000
3051.043523	35.800000
3052.256720	21.500000
3053.472754	28.800000
3054.685576	20.800000
3055.901235	22.600000
3057.112171	24.300000
3058.324432	50.800000
3059.536507	39.600000
3060.748394	42.600000
3061.958585	29.200000
3063.168589	30.600000
3064.378407	24.000000
3065.586529	34.700000
3066.794466	20.700000
3068.000707	41.000000
3069.208273	36.100000
3070.414144	35.900000
3071.619831	35.700000
3072.825332	27.200000
3074.029140	32.800000
3075.234272	41.700000
3076.437711	39.300000
3077.639459	45.900000
3078.841022	16.500000
3080.042402	27.300000
3081.243598	35.500000
3082.443104	22.300000
3083.642427	26.200000
3084.843073	27.800000
3086.042029	33.900000
3087.237791	20.500000
3088.436382	21.900000
3089.631779	30.000000
3090.828499	6.100000
3092.022027	33.100000
3093.218383	27.800000
3094.413053	29.600000
3095.604532	19.900000
3096.800342	41.300000
3097.991458	26.600000
3099.183898	34.700000
3100.373150	17.700000
3101.565227	27.800000
3102.755621	31.800000
3103.942829	43.900000
3105.131360	9.700000
3106.321212	27.200000
3107.507881	32.300000
3108.694369	24.600000
3109.880679	29.000000
3111.068310	23.300000
3112.252759	24.700000
3113.435529	18.500000
3114.621121	23.600000
3115.805034	43.500000
3116.987268	42.100000
3118.169323	30.200000
3119.351200	36.700000
3120.532899	27.100000
3121.712921	15.100000
3122.891266	43.500000
3124.072431	29.300000
3125.250421	25.400000
3126.428235	7.100000
3127.605871	46.200000
3128.781832	30.800000
3129.957616	30.800000
3131.134722	34.400000
3132.310153	33.200000
3133.483911	9.900000
3134.655996	37.900000
3135.829403	32.300000
3137.002633	33.600000
3138.174192	30.600000
3139.347071	18.500000
3140.516783	25.000000
3141.687816	20.800000
3142.857179	34.500000
3144.024871	9.800000
3145.195379	17.300000
3146.361229	25.600000
3147.531387	27.000000
3148.696889	30.200000
3149.862216	32.700000
3151.027370	33.700000
3152.192351	22.700000
3153.358651	38.300000
3154.520299	35.900000
3155.683266	9.100000
3156.846061	31.500000
3158.008683	28.200000
3159.169640	18.800000
3160.330424	35.300000
3161.491036	27.000000
3162.649984	39.500000
3163.808761	27.800000
3164.967366	31.400000
3166.125798	37.700000
3167.284060	32.600000
3168.440659	17.700000
3169.595597	27.400000
3170.751854	24.000000
3171.906450	17.900000
3173.060876	11.100000
3174.213642	44.100000
3175.366237	17.000000
3176.518663	21.100000
3177.670919	27.000000
3178.823004	37.600000
3179.971944	37.300000
3181.123690	33.800000
3182.273778	24.500000
3183.422210	33.100000
3184.570472	8.800000
3185.718566	41.000000
3186.866491	6.300000
3188.012760	46.100000
3189.158861	6.800000
3190.303308	55.800000
3191.447587	37.100000
3192.591698	41.400000
3193.737126	31.200000
3194.879416	43.500000
3196.021539	29.100000
3197.163494	54.200000
3198.305282	19.200000
3199.446903	51.700000
3200.585389	27.800000
3201.725192	34.400000
3202.866313	34.200000
3204.004299	44.600000
3205.140636	30.900000
3206.276807	43.200000
3207.414295	33.800000
3208.550135	35.200000
3209.687292	31.300000
3210.819836	24.900000
3211.956662	31.900000
3213.088876	39.100000
3214.222407	21.700000
3215.355774	48.700000
3216.486013	54.700000
3217.619050	40.600000
3218.748961	64.900000
3219.880188	37.000000
3221.008291	25.200000
3222.139190	35.600000
3223.268445	31.400000
3224.396057	42.400000
3225.520546	36.900000
3226.649311	48.800000
3227.774954	44.800000
3228.900435	37.400000
3230.024274	15.000000
3231.150907	33.000000
3232.272943	23.100000
3233.396295	12.900000
3234.519485	21.000000
3235.642512	25.900000
3236.763901	39.400000
3237.885127	26.600000
3239.004716	23.700000
3240.124143	31.400000
3241.241932	28.500000
3242.362513	28.900000
3243.479981	25.100000
3244.597288	28.900000
3245.714435	18.700000
3246.829946	34.500000
3247.946771	32.500000
3249.060487	32.800000
3250.176992	9.800000
3251.291863	24.400000
3252.403625	36.100000
3253.515227	29.100000
3254.628145	21.500000
3255.740903	30.000000
3256.850555	14.400000
3257.961522	30.500000
3259.072330	38.100000
3260.181506	28.000000
3261.289052	8.400000
3262.397911	39.800000
3263.506613	9.300000
3264.612212	15.200000
3265.719125	26.000000
3266.824409	22.000000
3267.931007	25.800000
3269.034505	28.200000
3270.139318	21.500000
3271.243973	33.600000
3272.345529	15.700000
3273.446929	32.100000
3274.549643	16.200000
3275.652201	29.900000
3276.751662	27.800000
3277.853907	34.700000
3278.953056	19.400000
3280.050581	39.700000
3281.147950	19.000000
3282.248101	30.600000
3283.345160	27.600000
3284.442063	39.400000
3285.538811	27.400000
3286.631001	17.700000
3287.727439	13.600000
3288.822255	27.000000
3289.916917	29.500000
3291.009957	26.900000
3292.102842	27.100000
3293.194108	41.400000
3294.286685	30.000000
3295.377643	17.400000
3296.466981	13.600000
3297.556166	22.800000
3298.646664	26.900000
3299.734077	19.200000
3300.821337	15.600000
3301.909910	33.500000
3302.998331	28.000000
3304.082204	29.900000
3305.170319	32.200000
3306.255352	33.000000
3307.338770	28.400000
3308.423500	7.600000
3309.506614	33.900000
3310.591041	24.900000
3311.672389	26.900000
3312.755049	18.600000
3313.836095	4.900000
3314.916990	13.100000
3315.996271	26.000000
3317.075402	28.300000
3318.155845	42.200000
3319.233213	17.900000
3320.311893	21.100000
3321.388961	28.600000
3322.465880	24.600000
3323.541187	6.400000
3324.616345	40.100000
3325.692814	30.200000
3326.766213	25.500000
3327.839463	15.500000
3328.914023	30.800000
3329.986975	20.000000
3331.058318	22.800000
3332.130972	32.600000
3333.200560	17.800000
3334.271458	19.700000
3335.340749	16.600000
3336.411351	21.500000
3337.480346	32.100000
3338.547735	34.800000
3339.613519	13.700000
3340.683529	37.800000
3341.750476	22.600000
3342.814361	26.500000
3343.881014	30.700000
3344.946062	31.200000
3346.009507	21.800000
3347.072806	22.900000
3348.135958	20.800000
3349.198964	32.400000
3350.261824	32.000000
3351.323082	39.800000
3352.381283	16.900000
3353.443704	27.500000
3354.503070	22.000000
3355.562290	33.600000
3356.622820	32.100000
3357.678840	18.300000
3358.737624	13.300000
3359.791901	21.300000
3360.848942	22.300000
3361.904384	29.400000
3362.961136	20.300000
3364.016289	35.100000
3365.069845	26.100000
3366.121805	24.400000
3367.176526	18.600000
3368.228198	21.400000
3369.279727	18.800000
3370.332564	25.400000
3371.382354	21.300000
3372.433453	37.800000
3373.481506	30.400000
3374.532318	32.000000
3375.580086	31.600000
3376.627711	19.900000
3377.675193	24.700000
3378.721083	31.100000
3379.768281	18.100000
3380.812437	28.500000
3381.859351	-1.800000
3382.904673	17.600000
3383.946954	34.500000
3384.989095	27.300000
3386.032543	23.900000
3387.075850	17.800000
3388.117568	12.600000
3389.159144	36.700000
3390.200579	23.600000
3391.240426	29.900000
3392.278684	26.900000
3393.318250	30.200000
3394.357676	40.800000
3395.395514	33.400000
3396.431765	27.300000
3397.467877	12.300000
3398.505296	20.900000
3399.539682	38.700000
3400.575375	30.200000
3401.610929	29.300000
3402.643452	20.100000
3403.678728	24.000000
3404.710973	14.000000
3405.743080	25.500000
3406.773603	25.100000
3407.805433	22.300000
3408.837125	50.600000
3409.865789	27.900000
3410.894316	25.400000
3411.924149	19.000000
3412.953845	25.700000
3413.980515	26.100000
3415.008492	21.500000
3416.033444	22.800000
3417.061146	22.000000
3418.085825	25.900000
3419.111810	4.000000
3420.136215	18.900000
3421.160484	32.200000
3422.183174	30.600000
3423.205728	28.400000
3424.229588	34.600000
3425.250428	19.100000
3426.271132	24.000000
3427.293143	12.200000
3428.312135	30.800000
3429.330991	19.400000
3430.351154	20.500000
3431.368300	31.600000
