-117.888313	18.100000
-115.218713	12.500000
-112.552048	3.700000
-109.886135	-12.700000
-107.223154	8.200000
-104.558744	4.100000
-101.897264	26.000000
-99.234355	-8.400000
-96.576552	3.200000
-93.917320	7.100000
-91.258836	2.800000
-88.603276	-4.300000
-85.946288	-3.600000
-83.294398	12.400000
-80.641078	3.600000
-77.990677	3.500000
-75.338847	-0.900000
-72.692108	-4.600000
-70.043940	1.400000
-67.396514	8.600000
-64.752002	-12.600000
-62.106062	14.900000
-59.465203	-3.600000
-56.822915	11.300000
-54.183536	18.300000
-51.542727	8.300000
-48.902659	8.500000
-46.267663	-5.100000
-43.631239	11.900000
-40.997717	3.300000
-38.362767	-11.500000
-35.732882	8.000000
-33.099405	-1.600000
-30.470990	-9.600000
-27.843309	7.500000
-25.214199	15.100000
-22.590146	17.900000
-19.962504	-0.600000
-17.339915	11.900000
-14.718058	26.700000
-12.096931	41.900000
-9.476534	69.600000
-6.859026	239.400000
-4.240089	791.200000
-1.624037	1999.400000
0.991286	2465.800000
3.605882	1533.800000
6.217595	245.600000
8.830737	32.600000
11.438845	14.500000
14.050535	16.200000
16.657194	5.700000
19.265281	12.800000
21.872644	-4.200000
24.474982	14.300000
27.080898	-12.000000
29.681792	7.100000
32.284114	6.000000
34.881419	16.700000
37.482299	4.400000
40.078164	7.600000
42.675458	9.100000
45.272032	-7.700000
47.863597	-2.600000
50.456590	8.700000
53.046722	5.800000
55.638282	5.000000
58.226982	7.500000
60.817109	-3.000000
63.402237	-15.500000
65.988793	-2.600000
68.574635	3.800000
71.157623	4.200000
73.742037	-7.200000
76.319323	3.100000
78.900175	3.900000
81.478178	-11.200000
84.055471	6.700000
86.634190	3.700000
89.207927	9.600000
91.783092	12.700000
94.355413	-5.000000
96.927026	9.400000
99.495799	-2.100000
102.065999	4.500000
104.633361	11.300000
107.202148	11.000000
109.768099	13.000000
112.331215	3.400000
114.897887	1.900000
117.455338	23.400000
120.018474	16.000000
122.576650	19.300000
125.138381	5.300000
127.695155	15.500000
130.253356	23.500000
132.806603	29.700000
135.359153	40.000000
137.915253	57.400000
140.466405	71.700000
143.016860	85.200000
145.566617	115.100000
148.113555	120.000000
150.659798	97.000000
153.207466	113.200000
155.754438	106.700000
158.296475	105.500000
160.837818	105.400000
163.378468	102.300000
165.920544	119.600000
168.459808	125.500000
170.996264	112.800000
173.532028	129.600000
176.069218	101.700000
178.605717	121.200000
181.139410	98.600000
183.670299	110.100000
186.200501	110.700000
188.732127	100.400000
191.260952	103.000000
193.786978	115.100000
196.312318	117.900000
198.839083	110.600000
201.363052	91.800000
203.886336	106.100000
206.408935	105.500000
208.928741	103.100000
211.447864	111.800000
213.966304	104.100000
216.486168	99.500000
218.999031	100.800000
221.515425	109.200000
224.031137	113.700000
226.541959	118.400000
229.054206	108.200000
231.563671	95.900000
234.072457	114.800000
236.580564	113.300000
239.090096	120.000000
241.594747	97.200000
244.098722	111.000000
246.604121	113.400000
249.104645	113.600000
251.608693	121.800000
254.105769	104.800000
256.606369	109.800000
259.104197	118.000000
261.601352	101.800000
264.097834	106.900000
266.589453	100.000000
269.084592	106.600000
271.576964	90.500000
274.068666	119.200000
276.557605	95.600000
279.047968	119.600000
281.535568	111.700000
284.020409	130.800000
286.508765	105.700000
288.990181	129.200000
291.475111	103.000000
293.955196	105.900000
296.438793	113.500000
298.917547	108.300000
301.397725	116.300000
303.875150	125.800000
306.351912	112.500000
308.828011	128.800000
311.301361	123.300000
313.774049	112.600000
316.246076	144.100000
318.717442	130.100000
321.186063	156.700000
323.654026	157.200000
326.123410	146.900000
328.587972	148.800000
331.056038	130.500000
333.519284	114.100000
335.981872	126.600000
338.443804	106.400000
340.905079	130.800000
343.363620	123.500000
345.823583	120.100000
348.280813	121.000000
350.737389	133.600000
353.193311	109.300000
355.646503	119.700000
358.101118	117.300000
360.550931	132.100000
363.004240	119.100000
365.452751	137.400000
367.900610	136.300000
370.349892	119.200000
372.794380	129.600000
375.240290	113.600000
377.685550	116.500000
380.128092	122.700000
382.569986	112.700000
385.011233	117.800000
387.449764	132.000000
389.889717	116.100000
392.326956	121.100000
394.761483	119.800000
397.199498	109.500000
399.632736	132.600000
402.067395	113.000000
404.497282	102.800000
406.930654	129.000000
409.359256	109.400000
411.787216	122.900000
414.216598	101.500000
416.641214	111.200000
419.067252	119.800000
421.492649	123.400000
423.917406	106.000000
426.337405	128.400000
428.758825	121.200000
431.177548	130.500000
433.597692	115.000000
436.015141	110.100000
438.434010	119.800000
440.850186	114.100000
443.261614	103.100000
445.676520	119.300000
448.088735	102.900000
450.500316	128.600000
452.911263	129.000000
455.319524	114.400000
457.727152	126.600000
460.134148	116.000000
462.540513	112.700000
464.944195	113.300000
467.347247	118.800000
469.749669	108.600000
472.151461	122.600000
474.550576	113.300000
476.951110	106.500000
479.351015	112.000000
481.746197	109.900000
484.144846	118.300000
486.538775	104.700000
488.932078	111.900000
491.324755	128.600000
493.716807	114.900000
496.110277	85.300000
498.499035	97.900000
500.885127	84.700000
503.272639	81.100000
505.659528	107.600000
508.043753	94.700000
510.429396	80.500000
512.812378	89.800000
515.192699	73.800000
517.574439	85.300000
519.953520	67.700000
522.334020	81.100000
524.711862	81.200000
527.087049	87.900000
529.461618	74.400000
531.837605	62.000000
534.210940	87.500000
536.585692	73.000000
538.955759	60.800000
541.325210	71.400000
543.696079	64.000000
546.062268	80.600000
548.429875	76.900000
550.794836	67.500000
553.159184	60.900000
555.522919	64.000000
557.888072	60.200000
560.248553	67.000000
562.610452	72.100000
564.969710	59.400000
567.326331	78.800000
569.686396	48.600000
572.039770	76.600000
574.396589	77.500000
576.750773	57.600000
579.104349	52.200000
581.457316	70.000000
583.807651	74.600000
586.159404	52.500000
588.504480	81.800000
590.855020	69.900000
593.198886	88.700000
595.548214	57.700000
597.892893	68.600000
600.234948	83.200000
602.578420	83.100000
604.919269	68.200000
607.259516	66.300000
609.597142	71.000000
611.938203	65.100000
614.274626	51.800000
616.612466	69.600000
618.947689	63.700000
621.280296	60.900000
623.614319	71.300000
625.945728	72.700000
628.276539	71.100000
630.606753	47.000000
632.936368	50.800000
635.261360	53.800000
637.591794	52.200000
639.917607	58.400000
642.240812	60.200000
644.565434	86.200000
646.887450	61.400000
649.208872	57.500000
651.527692	66.000000
653.847927	64.800000
656.167569	42.300000
658.484610	58.700000
660.801059	62.000000
663.114910	74.100000
665.430177	65.600000
667.742847	71.600000
670.056932	64.700000
672.366417	72.700000
674.677318	78.400000
676.985626	61.000000
679.293346	51.100000
681.602480	59.500000
683.907022	61.000000
686.210978	53.100000
688.514348	45.100000
690.819132	57.400000
693.119330	51.900000
695.420942	76.200000
697.721970	57.300000
700.018415	57.500000
702.316276	67.100000
704.613553	57.600000
706.910247	53.900000
709.202365	54.700000
711.497894	53.900000
713.788849	80.800000
716.081219	44.600000
718.371014	52.800000
720.660228	55.500000
722.948863	54.300000
725.234925	64.900000
727.522402	58.900000
729.807307	53.100000
732.091635	79.500000
734.373394	65.700000
736.656567	66.000000
738.939163	72.500000
741.217203	61.000000
743.496658	73.500000
745.775536	57.700000
748.053840	54.600000
750.327594	63.200000
752.602761	50.200000
754.877355	60.500000
757.149390	50.500000
759.422838	53.000000
761.693728	56.400000
763.962062	70.900000
766.231809	85.000000
768.499002	73.500000
770.765624	62.400000
773.031676	62.700000
775.295177	65.800000
777.560091	60.000000
779.824435	67.500000
782.084250	66.400000
784.345477	64.300000
786.606137	54.700000
788.864251	55.500000
791.119820	65.100000
793.378780	48.000000
795.631241	57.400000
797.889068	55.900000
800.142377	74.700000
802.393146	62.400000
804.645327	65.300000
806.894969	56.200000
809.146024	68.400000
811.392567	40.600000
813.640522	51.600000
815.885943	57.300000
818.132775	72.700000
820.379046	54.200000
822.620812	68.100000
824.865962	57.400000
827.104639	66.400000
829.346698	57.700000
831.584259	59.600000
833.823232	63.200000
836.059678	44.600000
838.297535	59.600000
840.532867	48.600000
842.765676	45.200000
844.999896	60.100000
847.231593	39.100000
849.462736	62.500000
851.693324	71.100000
853.923358	55.200000
856.152838	65.000000
858.377836	67.400000
860.606209	58.800000
862.830102	56.600000
865.055407	43.600000
867.276236	60.100000
869.500437	52.500000
871.720165	64.200000
873.941303	67.400000
876.161891	68.800000
878.379970	48.100000
880.599458	40.600000
882.814480	56.500000
885.028955	66.100000
887.242881	52.900000
889.456261	48.800000
891.669093	56.300000
893.881379	54.300000
896.091162	67.600000
898.300400	63.700000
900.509093	50.700000
902.715287	38.500000
904.922890	61.600000
907.127995	68.300000
909.332557	57.500000
911.534624	66.000000
913.738100	52.500000
915.939082	66.100000
918.139522	49.800000
920.341371	42.600000
922.536829	64.000000
924.735646	61.100000
926.930024	43.400000
929.127760	49.200000
931.321060	65.600000
933.515769	50.400000
935.707992	55.400000
937.899676	65.300000
940.090823	47.100000
942.279487	63.400000
944.467615	61.300000
946.653262	53.800000
948.842261	53.100000
951.026837	64.300000
953.210878	51.800000
955.398269	59.600000
957.577356	56.900000
959.759794	53.800000
961.941698	55.700000
964.121127	63.400000
966.298084	46.500000
968.476449	70.300000
970.656221	77.200000
972.829644	63.900000
975.006413	72.500000
977.178775	89.000000
979.352545	64.200000
981.521911	60.200000
983.694621	66.500000
985.864866	57.500000
988.034582	75.000000
990.203769	72.200000
992.368559	64.900000
994.536690	77.100000
996.700427	76.200000
998.865570	86.600000
1001.028254	82.500000
1003.190413	94.900000
1005.350115	95.900000
1007.509292	80.800000
1009.669876	61.600000
1011.828006	73.500000
1013.985611	71.800000
1016.142693	79.800000
1018.299251	74.300000
1020.451430	101.400000
1022.605016	76.700000
1024.758080	82.200000
1026.908695	62.400000
1029.060717	110.100000
1031.208365	82.600000
1033.359345	90.300000
1035.505954	74.100000
1037.652044	89.900000
1039.797616	83.100000
1041.944593	96.100000
1044.085281	86.700000
1046.229299	85.500000
1048.370876	99.100000
1050.511937	83.100000
1052.654402	92.000000
1054.790588	80.900000
1056.930099	88.400000
1059.065256	104.200000
1061.203737	76.300000
1063.337864	94.800000
1065.471478	83.300000
1067.606497	97.400000
1069.737166	96.400000
1071.869240	66.700000
1073.998885	77.300000
1076.128018	97.000000
1078.256639	73.300000
1080.384749	86.100000
1082.510433	87.100000
1084.635607	88.500000
1086.762185	62.900000
1088.884425	87.400000
1091.008070	78.900000
1093.127380	104.000000
1095.251920	82.900000
1097.370214	98.000000
1099.489913	81.000000
1101.607193	81.800000
1103.723967	78.200000
1105.840234	73.600000
1107.954085	78.700000
1110.069341	93.200000
1112.180273	77.000000
1114.294518	71.100000
1116.404442	81.100000
1118.515770	85.400000
1120.626593	70.000000
1122.733100	82.200000
1124.842917	95.100000
1126.948419	91.400000
1129.055324	92.200000
1131.156014	73.800000
1133.261916	72.500000
1135.363509	92.300000
1137.466505	83.900000
1139.569000	80.700000
1141.665288	80.600000
1143.766784	81.500000
1145.863976	77.900000
1147.960671	70.100000
1150.056867	78.700000
1152.152566	78.800000
1154.247766	82.400000
1156.340570	79.600000
1158.434777	82.500000
1160.522792	89.000000
1162.616005	72.600000
1164.703030	71.600000
1166.793354	76.800000
1168.879391	103.100000
1170.968725	80.600000
1173.051878	79.000000
1175.136433	80.900000
1177.222390	81.300000
1179.304065	75.000000
1181.387142	82.100000
1183.467833	81.400000
1185.548032	77.400000
1187.627740	82.600000
1189.706957	91.000000
1191.783792	84.900000
1193.858246	92.900000
1195.935991	77.300000
1198.009467	78.300000
1200.084343	96.400000
1202.154952	88.100000
1204.226962	56.800000
1206.296597	69.600000
1208.367632	70.300000
1210.438179	74.900000
1212.504465	100.100000
1214.572152	70.500000
1216.637467	71.100000
1218.704182	81.600000
1220.766641	82.500000
1222.832385	76.500000
1224.893875	91.100000
1226.956766	79.200000
1229.017289	73.200000
1231.077328	85.600000
1233.136885	70.400000
1235.194076	106.000000
1237.250786	86.400000
1239.305132	88.300000
1241.362760	93.400000
1243.418025	102.000000
1245.469049	91.600000
1247.521473	95.600000
1249.573417	75.200000
1251.623003	96.000000
1253.672110	81.300000
1255.720739	93.300000
1257.768889	95.600000
1259.816560	96.000000
1261.860001	95.300000
1263.906718	84.500000
1265.951081	90.900000
1267.994968	103.000000
1270.036503	91.800000
1272.075689	94.900000
1274.118148	92.600000
1276.156384	104.100000
1278.196019	99.500000
1280.235179	85.800000
1282.270120	93.300000
1284.306460	109.700000
1286.340456	103.300000
1288.375849	91.000000
1290.407030	97.400000
1292.439608	107.400000
1294.471715	100.100000
1296.501481	93.800000
1298.532645	104.800000
1300.559601	104.500000
1302.587955	106.900000
1304.612104	109.500000
1306.639519	114.100000
1308.662731	119.300000
1310.687341	126.200000
1312.709617	129.900000
1314.733290	124.800000
1316.754630	132.400000
1318.775502	124.100000
1320.795907	128.700000
1322.812119	129.100000
1324.829728	151.200000
1326.845009	114.100000
1328.863549	142.600000
1330.877900	148.800000
1332.889925	157.500000
1334.905207	153.800000
1336.916304	146.500000
1338.928798	127.600000
1340.937109	147.600000
1342.948675	154.100000
1344.954203	151.000000
1346.962986	168.400000
1348.967591	150.900000
1350.975450	145.100000
1352.982847	145.600000
1354.984213	147.800000
1356.986975	145.000000
1358.989278	142.600000
1360.991121	130.600000
1362.992504	128.100000
1364.991574	142.900000
1366.990185	134.400000
1368.988338	126.900000
1370.986032	129.900000
1372.979564	112.500000
1374.974491	107.500000
1376.968962	108.600000
1378.962976	115.700000
1380.954683	122.100000
1382.945935	100.400000
1384.934881	107.000000
1386.925222	112.300000
1388.915108	88.600000
1390.902690	117.500000
1392.889819	108.800000
1394.874646	103.800000
1396.860868	106.000000
1398.844790	106.200000
1400.828259	105.900000
1402.811275	111.300000
1404.791994	122.200000
1406.774107	106.800000
1408.753924	117.700000
1410.733289	129.700000
1412.708516	112.200000
1414.686981	110.500000
1416.663153	114.100000
1418.638876	94.900000
1420.614149	110.100000
1422.587131	94.700000
1424.559665	115.200000
1426.531751	121.300000
1428.503390	113.900000
1430.470900	110.700000
1432.443484	84.800000
1434.408262	88.600000
1436.378113	104.100000
1438.343840	106.300000
1440.310959	112.100000
1442.275795	88.700000
1444.236511	107.700000
1446.202295	98.200000
1448.162124	102.400000
1450.123347	93.000000
1452.085962	95.000000
1454.044462	104.000000
1456.002519	109.200000
1457.960135	83.100000
1459.917308	109.000000
1461.872206	95.800000
1463.828497	107.200000
1465.782513	117.100000
1467.736088	100.700000
1469.687391	87.300000
1471.640087	107.000000
1473.590510	100.200000
1475.540495	97.900000
1477.490041	103.400000
1479.437318	117.200000
1481.382327	98.000000
1483.328729	106.700000
1485.274693	113.300000
1487.220220	117.200000
1489.163481	92.000000
1491.106307	114.300000
1493.046869	119.400000
1494.988822	104.600000
1496.928513	102.700000
1498.867770	86.400000
1500.806591	94.200000
1502.743153	115.800000
1504.681106	110.300000
1506.616800	109.900000
1508.552061	111.600000
1510.485066	112.700000
1512.417638	120.200000
1514.349778	120.700000
1516.281486	126.000000
1518.210940	118.200000
1520.141785	120.300000
1522.072198	124.800000
1523.998539	121.400000
1525.926271	120.500000
1527.851752	134.800000
1529.776804	139.200000
1531.701427	134.400000
1533.625621	158.200000
1535.547567	159.900000
1537.470904	166.000000
1539.391994	165.100000
1541.310840	199.000000
1543.231076	192.900000
1545.149069	215.500000
1547.066635	253.200000
1548.981959	279.100000
1550.898673	331.900000
1552.811332	345.400000
1554.727195	390.200000
1556.640818	446.100000
1558.552203	493.600000
1560.464978	544.400000
1562.373703	561.700000
1564.283817	625.200000
1566.193508	628.300000
1568.102776	592.000000
1570.009810	546.900000
1571.914611	527.800000
1573.820801	468.600000
1575.724759	427.000000
1577.628296	377.200000
1579.531413	348.800000
1581.432300	319.200000
1583.334576	275.300000
1585.234624	239.000000
1587.136059	228.200000
1589.033461	204.700000
1590.930444	213.000000
1592.827009	192.900000
1594.724962	178.400000
1596.617080	180.200000
1598.512391	164.600000
1600.407285	184.700000
1602.299957	165.400000
1604.192212	150.500000
1606.082248	146.400000
1607.971868	155.200000
1609.861073	141.700000
1611.749863	130.800000
1613.636435	148.300000
1615.524395	138.300000
1617.408338	126.300000
1619.293668	130.700000
1621.178585	119.400000
1623.061288	129.100000
1624.945378	102.700000
1626.825456	98.500000
1628.706922	112.600000
1630.586177	102.100000
1632.466818	100.000000
1634.341655	99.200000
1636.221473	93.300000
1638.097287	96.700000
1639.972690	92.500000
1641.849479	98.200000
1643.720472	72.600000
1645.594646	93.800000
1647.464821	89.300000
1649.338178	90.100000
1651.209331	71.400000
1653.078282	89.700000
1654.948618	89.700000
1656.814962	73.900000
1658.682691	76.700000
1660.548221	72.700000
1662.415137	75.900000
1664.278064	82.700000
1666.142376	77.400000
1668.004492	58.200000
1669.866203	88.700000
1671.729300	84.900000
1673.590201	70.700000
1675.448910	88.500000
1677.307215	69.800000
1679.166905	70.400000
1681.020827	65.500000
1682.877923	66.000000
1684.734616	65.900000
1686.587332	71.200000
1688.443220	62.900000
1690.295134	74.200000
1692.146647	67.200000
1693.997759	82.700000
1695.848471	58.000000
1697.698782	42.200000
1699.546908	62.400000
1701.396419	80.900000
1703.240181	58.800000
1705.088892	63.900000
1706.931857	64.900000
1708.777989	74.600000
1710.620158	49.600000
1712.465493	59.800000
1714.305087	55.900000
1716.146065	70.700000
1717.988426	47.100000
1719.826831	58.200000
1721.666619	58.200000
1723.504232	34.900000
1725.341449	67.500000
1727.176493	51.800000
1729.012920	66.300000
1730.847175	50.600000
1732.681035	62.000000
1734.514501	46.500000
1736.344022	53.800000
1738.176701	58.100000
1740.005436	64.100000
1741.837328	38.800000
1743.665278	57.000000
1745.492837	67.000000
1747.320003	31.600000
1749.146778	58.100000
1750.973161	67.100000
1752.795608	38.800000
1754.621210	50.300000
1756.442877	59.000000
1758.265926	69.900000
1760.086813	45.600000
1761.907312	49.500000
1763.729191	43.300000
1765.545372	48.100000
1767.364704	44.100000
1769.180109	44.000000
1770.998664	62.000000
1772.813294	55.400000
1774.627537	55.900000
1776.441394	51.600000
1778.254864	48.200000
1780.066181	65.600000
1781.878878	59.500000
1783.691190	49.700000
1785.499584	44.800000
1787.309358	50.400000
1789.115218	39.400000
1790.924223	55.100000
1792.729315	41.300000
1794.535788	56.000000
1796.341877	52.400000
1798.144055	51.900000
1799.949378	49.600000
1801.750792	62.100000
1803.553586	44.100000
1805.352474	48.700000
1807.152743	43.500000
1808.952630	66.500000
1810.750375	43.800000
1812.547740	42.500000
1814.344725	47.000000
1816.141329	56.200000
1817.935794	51.900000
1819.731638	49.500000
1821.521827	40.000000
1823.316913	33.900000
1825.106347	48.700000
1826.898917	76.300000
1828.689352	60.600000
1830.477653	41.900000
1832.269089	52.800000
1834.054879	47.400000
1835.842049	45.600000
1837.627087	47.800000
1839.415259	52.900000
1841.199545	56.700000
1842.981701	35.500000
1844.765237	67.100000
1846.546644	52.500000
1848.329430	51.600000
1850.108335	52.400000
1851.888620	47.200000
1853.666778	42.400000
1855.446315	40.400000
1857.223727	58.700000
1858.999015	45.700000
1860.775681	49.700000
1862.550225	54.000000
1864.326147	60.100000
1866.096448	56.700000
1867.869877	47.000000
1869.641186	52.800000
1871.412124	63.000000
1873.184440	59.200000
1874.951142	44.800000
1876.720970	51.400000
1878.486934	40.200000
1880.256021	44.100000
1882.021247	44.000000
1883.786105	60.000000
1885.552340	47.700000
1887.314716	50.500000
1889.076725	54.400000
1890.838366	44.300000
1892.599641	32.900000
1894.360548	49.000000
1896.121089	44.000000
1897.879520	52.500000
1899.637585	44.800000
1901.393543	34.500000
1903.150877	51.300000
1904.907846	55.400000
1906.662708	31.900000
1908.415466	44.300000
1910.167859	51.400000
1911.921629	55.400000
1913.673295	50.900000
1915.422859	63.800000
1917.173798	29.100000
1918.924375	61.300000
1920.671112	57.300000
1922.419226	46.400000
1924.165240	41.300000
1925.912629	42.100000
1927.657921	49.300000
1929.401115	58.200000
1931.145684	31.900000
1932.888158	64.800000
1934.630271	47.600000
1936.372024	48.800000
1938.113417	53.300000
1939.852717	42.700000
1941.591658	54.500000
1943.330240	40.400000
1945.066731	38.900000
1946.802864	43.400000
1948.540371	47.900000
1950.274056	56.700000
1952.009116	46.500000
1953.742087	50.000000
1955.474702	40.200000
1957.206961	45.400000
1958.938863	42.800000
1960.668679	56.100000
1962.396410	51.100000
1964.125516	48.200000
1965.854267	43.600000
1967.580934	31.300000
1969.307247	39.300000
1971.034933	38.700000
1972.757083	42.900000
1974.482334	56.900000
1976.203778	33.400000
1977.928323	45.900000
1979.650787	33.600000
1981.369449	55.100000
1983.091209	53.500000
1984.809167	47.500000
1986.528498	47.800000
1988.244030	42.000000
1989.964382	47.000000
1991.680936	41.500000
1993.393693	47.800000
1995.109546	49.300000
1996.823327	51.300000
1998.536758	54.300000
2000.248118	38.000000
2001.960850	32.600000
2003.669792	46.800000
2005.381826	44.600000
2007.088352	56.600000
2008.797969	68.700000
2010.505520	71.100000
2012.212722	43.800000
2013.917859	40.200000
2015.622650	48.800000
2017.328812	48.600000
2019.031192	50.100000
2020.734943	58.500000
2022.436632	35.300000
2024.137976	43.400000
2025.838974	49.100000
2027.537911	48.000000
2029.238220	44.100000
2030.934754	51.900000
2032.632659	66.700000
2034.328505	54.100000
2036.027437	57.300000
2037.720883	56.200000
2039.415700	56.500000
2041.110175	35.800000
2042.800881	53.400000
2044.494671	56.100000
2046.184694	51.100000
2047.876088	49.600000
2049.565429	62.400000
2051.256140	37.400000
2052.943088	53.100000
2054.629697	40.100000
2056.317675	43.500000
2058.001894	46.800000
2059.687484	51.700000
2061.372734	43.200000
2063.055935	61.400000
2064.740507	50.400000
2066.419616	44.500000
2068.103510	51.100000
2069.781943	44.100000
2071.463454	31.700000
2073.141213	31.800000
2074.818636	64.000000
2076.497428	69.800000
2078.174178	51.800000
2079.848886	45.400000
2081.524963	36.900000
2083.199000	61.100000
2084.872701	57.500000
2086.546067	55.100000
2088.217394	51.400000
2089.888387	36.900000
2091.559046	56.200000
2093.229371	50.900000
2094.899362	50.400000
2096.567317	43.200000
2098.234939	39.800000
2099.900526	66.000000
2101.567482	41.200000
2103.232405	34.700000
2104.896996	29.600000
2106.559555	42.300000
2108.223482	37.500000
2109.885378	58.300000
2111.546944	39.400000
2113.208178	55.500000
2114.867384	46.900000
2116.526259	49.000000
2118.184805	34.200000
2119.843020	62.300000
2121.497513	66.800000
2123.155070	52.000000
2124.812298	38.200000
2126.465804	44.800000
2128.120678	48.200000
2129.771833	52.700000
2131.426051	37.400000
2133.076552	47.800000
2134.728419	47.200000
2136.374878	51.200000
2138.026092	41.900000
2139.673592	51.900000
2141.322459	50.100000
2142.969307	71.900000
2144.615830	65.900000
2146.262027	44.700000
2147.904516	56.200000
2149.550063	55.000000
2151.191903	53.700000
2152.836800	54.000000
2154.477991	50.400000
2156.118860	56.400000
2157.759404	41.500000
2159.397936	38.600000
2161.037834	56.800000
2162.674032	49.200000
2164.311596	44.100000
2165.948838	45.900000
2167.584070	54.300000
2169.218981	56.800000
2170.853569	37.600000
2172.487837	58.800000
2174.118411	45.400000
2175.752037	47.700000
2177.381971	43.000000
2179.013270	52.600000
2180.642564	33.100000
2182.271539	70.800000
2183.900194	46.800000
2185.528530	50.300000
2187.154864	55.300000
2188.780879	49.400000
2190.404892	42.900000
2192.030271	59.100000
2193.653649	38.400000
2195.278392	34.600000
2196.899454	32.700000
2198.520199	54.900000
2200.142309	45.800000
2201.762421	60.500000
2203.380536	57.600000
2204.998336	54.100000
2206.615821	47.200000
2208.232990	53.900000
2209.849844	64.300000
2211.466382	52.500000
2213.080928	61.300000
2214.693481	56.000000
2216.307398	48.100000
2217.919324	49.200000
2219.532613	53.100000
2221.143912	54.400000
2222.753221	64.600000
2224.363894	46.000000
2225.972578	60.900000
2227.580949	38.400000
2229.187334	44.900000
2230.795082	51.100000
2232.400843	31.300000
2234.006293	47.900000
2235.609758	41.900000
2237.214586	39.000000
2238.817430	47.800000
2240.418291	47.700000
2242.020515	55.000000
2243.620757	55.700000
2245.222361	51.700000
2246.820312	65.300000
2248.419626	41.300000
2250.016960	45.700000
2251.613986	44.900000
2253.212374	46.700000
2254.807113	41.600000
2256.399875	47.100000
2257.994000	59.300000
2259.589486	65.100000
2261.181327	49.800000
2262.772862	39.600000
2264.365759	40.600000
2265.953346	44.200000
2267.545629	55.600000
2269.132606	55.000000
2270.722610	49.900000
2272.307310	58.300000
2273.896704	48.400000
2275.480796	50.000000
2277.066248	47.900000
2278.649732	50.300000
2280.236241	40.700000
2281.819117	43.700000
2283.401690	57.900000
2284.983959	56.600000
2286.562598	34.100000
2288.144262	45.400000
2289.722297	47.400000
2291.303355	49.600000
2292.880786	48.850000
2294.456254	48.100000
2296.034744	36.800000
2297.609610	44.700000
2299.184175	40.600000
2300.758440	43.000000
2302.332404	25.500000
2303.906067	65.800000
2305.479431	52.000000
2307.049176	60.700000
2308.618622	48.500000
2310.191086	42.100000
2311.758276	40.900000
2313.328484	37.300000
2314.895077	39.400000
2316.463030	41.600000
2318.029027	50.100000
2319.594727	50.100000
2321.160129	54.700000
2322.723578	50.100000
2324.288386	54.100000
2325.849586	53.300000
2327.413800	56.200000
2328.972752	78.300000
2330.534719	59.300000
2332.094734	42.400000
2333.654455	38.400000
2335.212226	52.000000
2336.769702	40.900000
2338.326884	55.200000
2339.882118	56.100000
2341.437059	44.000000
2342.991705	54.000000
2344.546058	68.700000
2346.100118	47.500000
2347.653883	59.400000
2349.205704	41.600000
2350.755583	49.500000
2352.308469	51.300000
2353.856112	41.500000
2355.406764	49.000000
2356.953824	66.000000
2358.502242	67.500000
2360.050369	42.000000
2361.594907	48.800000
2363.140803	37.200000
2364.684761	42.500000
2366.230076	38.200000
2367.771806	56.400000
2369.314893	47.300000
2370.856044	33.000000
2372.396906	38.800000
2373.937479	48.000000
2375.477763	47.100000
2377.017758	42.500000
2378.554175	26.400000
2380.093593	44.400000
2381.629433	45.400000
2383.166631	44.800000
2384.700253	52.400000
2386.236875	41.600000
2387.771567	41.900000
2389.304329	58.400000
2390.836804	55.700000
2392.367351	62.700000
2393.900896	36.400000
2395.429230	47.900000
2396.958921	37.700000
2398.488325	45.000000
2400.017445	45.600000
2401.546280	53.300000
2403.069909	63.400000
2404.598174	54.500000
2406.121237	48.200000
2407.648933	60.600000
2409.169790	57.700000
2410.695280	58.400000
2412.217209	48.800000
2413.740494	48.000000
2415.261857	71.300000
2416.781301	45.300000
2418.302100	50.800000
2419.820981	45.300000
2421.339579	59.500000
2422.856260	49.500000
2424.374295	71.300000
2425.892049	52.500000
2427.406252	60.400000
2428.920174	48.500000
2430.433816	71.400000
2431.948813	77.900000
2433.460261	69.500000
2434.973064	59.900000
2436.483953	51.200000
2437.994564	43.000000
2439.503263	60.100000
2441.014948	57.700000
2442.523090	53.000000
2444.030954	66.300000
2445.538540	70.400000
2447.042585	68.400000
2448.549615	57.500000
2450.054737	63.400000
2451.559582	76.600000
2453.062520	76.500000
2454.565182	67.800000
2456.067567	50.800000
2457.568047	60.600000
2459.069880	49.900000
2460.569808	37.700000
2462.069461	49.500000
2463.568839	53.500000
2465.066314	39.200000
2466.561887	56.200000
2468.060440	56.200000
2469.555465	50.100000
2471.051842	53.400000
2472.544693	54.000000
2474.038897	34.800000
2475.532827	45.400000
2477.023233	62.900000
2478.516617	52.500000
2480.008103	50.500000
2481.497692	57.200000
2482.987009	48.500000
2484.474430	63.600000
2485.964827	45.300000
2487.451706	60.200000
2488.939936	37.500000
2490.424649	72.300000
2491.909093	55.000000
2493.394887	52.100000
2494.878790	57.400000
2496.364043	68.000000
2497.844163	40.600000
2499.327256	78.700000
2500.808458	54.200000
2502.289391	74.500000
2503.768435	66.700000
2505.247210	66.000000
2506.725717	54.400000
2508.203956	71.000000
2509.681926	67.400000
2511.156391	74.100000
2512.633826	56.600000
2514.107757	60.300000
2515.583038	39.300000
2517.058052	45.500000
2518.529565	45.400000
2520.002429	54.700000
2521.473410	68.800000
2522.945741	61.800000
2524.412958	57.900000
2525.883142	57.800000
2527.351445	53.200000
2528.819483	58.600000
2530.287256	46.800000
2531.754764	57.500000
2533.222007	69.100000
2534.685758	44.100000
2536.150859	52.700000
2537.614083	67.000000
2539.078656	41.200000
2540.539741	66.300000
2542.002175	49.500000
2543.464346	61.300000
2544.923031	56.300000
2546.386287	69.300000
2547.844448	48.900000
2549.303957	56.300000
2550.758372	59.800000
2552.217358	59.400000
2553.674472	53.000000
2555.129715	60.400000
2556.584696	47.100000
2558.037809	49.200000
2559.492270	43.500000
2560.944861	53.500000
2562.397193	61.700000
2563.847658	55.700000
2565.301078	64.400000
2566.749416	61.500000
2568.200709	71.300000
2569.650137	45.900000
2571.096092	47.000000
2572.545002	67.000000
2573.990442	40.800000
2575.437229	53.900000
2576.882154	54.300000
2578.326820	71.400000
2579.772834	59.700000
2581.215382	64.600000
2582.659277	77.400000
2584.099707	62.900000
2585.541484	62.800000
2586.981402	73.600000
2588.422667	67.200000
2589.860470	59.800000
2591.301223	75.800000
2592.736914	62.000000
2594.175554	65.600000
2595.612336	86.800000
2597.047263	69.800000
2598.485137	67.200000
2599.917954	69.700000
2601.352118	72.500000
2602.784428	70.600000
2604.218084	78.300000
2605.649887	52.800000
2607.081436	73.700000
2608.512733	75.200000
2609.942177	90.000000
2611.371369	66.900000
2612.798711	82.500000
2614.227398	77.900000
2615.655834	82.200000
2617.080822	70.100000
2618.507157	80.600000
2619.931643	87.800000
2621.357475	82.200000
2622.779863	69.700000
2624.203597	104.400000
2625.625484	93.300000
2627.047122	100.200000
2628.466914	78.300000
2629.888052	93.600000
2631.308940	86.800000
2632.726390	115.900000
2634.146779	108.700000
2635.563731	88.800000
2636.980434	115.400000
2638.396889	106.300000
2639.813096	106.600000
2641.229055	100.800000
2642.643173	127.900000
2644.057043	121.300000
2645.469075	115.600000
2646.882450	131.500000
2648.292396	121.100000
2649.705278	119.900000
2651.114731	131.500000
2652.523938	147.700000
2653.931309	125.400000
2655.341614	130.800000
2656.750084	128.200000
2658.156718	133.300000
2659.563107	134.600000
2660.967662	162.300000
2662.373561	152.300000
2663.777627	143.600000
2665.181448	155.200000
2666.585025	135.400000
2667.986771	150.200000
2669.389860	162.000000
2670.789531	149.700000
2672.190546	153.400000
2673.588145	165.300000
2674.988674	172.300000
2676.385787	163.100000
2677.784244	152.400000
2679.180874	188.900000
2680.577261	176.300000
2681.973406	168.300000
2683.367725	162.600000
2684.763387	163.000000
2686.155640	161.700000
2687.549235	157.800000
2688.941006	164.300000
2690.334120	160.300000
2691.725410	162.100000
2693.114877	146.900000
2694.504104	151.200000
2695.893092	160.000000
2697.283421	143.100000
2698.668767	153.700000
2700.057036	146.600000
2701.443485	149.800000
2702.829695	125.800000
2704.215666	139.600000
2705.598239	152.200000
2706.982154	149.200000
2708.365831	133.300000
2709.749269	146.100000
2711.129313	132.400000
2712.510697	116.800000
2713.890267	111.700000
2715.271177	119.200000
2716.650273	128.800000
2718.027555	107.100000
2719.406178	104.300000
2720.782988	115.100000
2722.159561	95.900000
2723.535899	103.500000
2724.910426	86.500000
2726.286293	83.800000
2727.658773	91.200000
2729.034169	100.600000
2730.404605	69.000000
2731.776382	98.600000
2733.147924	75.500000
2734.517658	74.300000
2735.888733	83.400000
2737.257999	71.500000
2738.627032	59.100000
2739.994259	75.200000
2741.361252	74.400000
2742.728013	76.600000
2744.094542	60.200000
2745.459265	72.300000
2746.823756	84.800000
2748.188016	81.500000
2749.552043	62.500000
2750.915839	48.400000
2752.276261	61.200000
2753.639593	55.100000
2754.997983	50.400000
2756.359283	61.000000
2757.717213	79.500000
2759.078051	82.600000
2760.437090	55.000000
2761.792760	69.900000
2763.151338	72.300000
2764.506549	49.800000
2765.861531	36.800000
2767.214717	59.700000
2768.570809	56.600000
2769.923536	55.900000
2771.276036	48.700000
2772.628307	42.200000
2773.981916	60.000000
2775.332165	63.800000
2776.680619	70.600000
2778.031979	64.400000
2779.379979	53.600000
2780.729317	58.100000
2782.076863	76.100000
2783.424183	46.500000
2784.771276	61.200000
2786.116578	60.900000
2787.461653	42.400000
2788.806503	42.900000
2790.151127	59.400000
2791.492399	54.300000
2792.835009	61.100000
2794.177393	47.900000
2795.519552	50.900000
2796.858362	60.700000
2798.200072	61.200000
2799.538434	50.800000
2800.878132	48.000000
2802.216046	56.700000
2803.552175	64.700000
2804.888080	54.600000
2806.225323	59.000000
2807.560782	51.100000
2808.896018	53.600000
2810.229471	68.800000
2811.564261	39.500000
2812.895711	25.600000
2814.230056	34.900000
2815.559503	40.500000
2816.890287	63.700000
2818.220849	56.800000
2819.549632	61.900000
2820.879751	66.800000
2822.208092	63.200000
2823.536212	47.600000
2824.862554	50.200000
2826.190233	48.500000
2827.514578	40.300000
2828.840260	52.000000
2830.164166	48.700000
2831.487853	46.000000
2832.812875	55.100000
2834.134567	41.700000
2835.456041	45.300000
2836.777296	45.300000
2838.098332	53.000000
2839.417595	55.300000
2840.738194	46.400000
2842.057022	41.700000
2843.375631	44.500000
2844.692469	61.700000
2846.009090	47.900000
2847.325494	52.800000
2848.640128	51.000000
2849.956098	47.800000
2851.268747	40.400000
2852.582731	53.000000
2853.896499	48.200000
2855.210050	50.600000
2856.521835	53.700000
2857.831853	44.500000
2859.143206	51.400000
2860.451244	45.800000
2861.760616	61.300000
2863.069774	42.900000
2864.378716	57.500000
2865.685894	33.900000
2866.991310	56.100000
2868.298060	45.900000
2869.603047	32.900000
2870.907821	36.400000
2872.210833	52.800000
2873.516726	39.800000
2874.817765	57.400000
2876.120138	49.200000
2877.420751	47.100000
2878.722698	56.600000
2880.024431	42.400000
2881.322861	54.100000
2882.622624	50.800000
2883.920630	47.700000
2885.218424	50.700000
2886.514462	34.400000
2887.811833	52.800000
2889.107448	37.000000
2890.402852	35.800000
2891.698045	41.200000
2892.989941	41.900000
2894.284713	40.500000
2895.576188	39.000000
2896.868996	38.900000
2898.161594	37.600000
2899.450898	49.600000
2900.741534	52.100000
2902.030419	52.600000
2903.320636	45.600000
2904.607562	41.300000
2905.895820	52.300000
2907.182329	62.300000
2908.468629	46.600000
2909.754722	50.700000
2911.039066	53.600000
2912.326281	43.000000
2913.608670	27.200000
2914.892391	44.900000
2916.174366	54.500000
2917.456133	53.400000
2918.736156	70.800000
2920.019048	48.100000
2921.300195	51.700000
2922.578060	56.600000
2923.858794	51.000000
2925.136247	37.100000
2926.413494	52.700000
2927.688999	33.300000
2928.967372	46.400000
2930.240931	52.300000
2931.517357	51.600000
2932.792042	38.500000
2934.064986	37.100000
2935.339262	42.400000
2936.611798	35.700000
2937.884129	38.700000
2939.153188	28.500000
2940.425112	45.500000
2941.695298	41.300000
2942.965280	35.000000
2944.235059	50.900000
2945.503102	40.700000
2946.769408	54.300000
2948.035513	30.300000
2949.302947	48.900000
2950.568647	43.700000
2951.834144	32.100000
2953.099439	58.700000
2954.361469	40.100000
2955.624829	54.000000
2956.887988	32.700000
2958.149415	26.100000
2959.412171	65.500000
2960.673195	42.000000
2961.932489	47.800000
2963.191583	50.900000
2964.450476	36.800000
2965.709169	47.300000
2966.967662	42.700000
2968.224426	56.300000
2969.480990	38.400000
2970.735827	35.600000
2971.991992	50.800000
2973.244903	43.500000
2974.499143	41.500000
2975.753184	35.500000
2977.005499	32.200000
2978.257615	10.100000
2979.508007	41.800000
2980.761254	20.500000
2982.009724	39.400000
2983.261049	34.600000
2984.509124	45.200000
2985.757003	36.900000
2987.004684	43.700000
2988.252168	47.200000
2989.497931	42.300000
2990.743498	38.100000
2991.990392	52.000000
2993.234042	45.600000
2994.479020	46.200000
2995.720754	41.400000
2996.965340	51.900000
2998.208207	47.000000
2999.447833	35.300000
3000.690309	28.000000
3001.929545	58.300000
3003.170109	40.600000
3004.408957	45.900000
3005.647609	41.700000
3006.884546	48.900000
3008.122811	31.000000
3009.359360	52.700000
3010.595716	39.300000
3011.831878	54.500000
3013.066326	41.600000
3014.300582	46.100000
3015.534644	34.900000
3016.766994	39.600000
3017.997632	30.100000
3019.231116	42.400000
3020.462888	57.600000
3021.692950	46.300000
3022.922819	47.100000
3024.150980	55.700000
3025.380466	47.500000
3026.608243	48.300000
3027.835829	35.600000
3029.064742	34.300000
3030.288912	34.600000
3031.515925	49.100000
3032.739714	54.300000
3033.964830	29.500000
3035.188239	34.800000
3036.411458	56.800000
3037.632972	46.300000
3038.857327	22.700000
3040.076947	43.200000
3041.297893	43.600000
3042.518650	27.900000
3043.737703	36.400000
3044.958081	59.500000
3046.175243	49.500000
3047.393731	40.900000
3048.610516	39.400000
3049.827114	41.000000
3051.043523	39.300000
3052.256720	45.100000
3053.472754	34.000000
3054.685576	38.400000
3055.901235	36.200000
3057.112171	42.600000
3058.324432	49.100000
3059.536507	32.100000
3060.748394	49.500000
3061.958585	40.600000
3063.168589	42.700000
3064.378407	29.500000
3065.586529	33.700000
3066.794466	47.100000
3068.000707	47.500000
3069.208273	46.700000
3070.414144	49.150000
3071.619831	51.600000
3072.825332	44.600000
3074.029140	26.000000
3075.234272	34.100000
3076.437711	32.400000
3077.639459	45.000000
3078.841022	43.800000
3080.042402	36.800000
3081.243598	45.600000
3082.443104	47.900000
3083.642427	47.500000
3084.843073	34.500000
3086.042029	44.600000
3087.237791	31.700000
3088.436382	44.200000
3089.631779	32.600000
3090.828499	43.700000
3092.022027	40.100000
3093.218383	33.900000
3094.413053	44.000000
3095.604532	18.300000
3096.800342	45.300000
3097.991458	34.400000
3099.183898	31.700000
3100.373150	35.900000
3101.565227	32.100000
3102.755621	33.500000
3103.942829	49.200000
3105.131360	41.800000
3106.321212	31.400000
3107.507881	40.300000
3108.694369	36.900000
3109.880679	54.000000
3111.068310	43.300000
3112.252759	24.600000
3113.435529	45.000000
3114.621121	42.000000
3115.805034	43.200000
3116.987268	33.500000
3118.169323	35.100000
3119.351200	57.600000
3120.532899	35.300000
3121.712921	38.700000
3122.891266	41.000000
3124.072431	41.900000
3125.250421	38.400000
3126.428235	34.500000
3127.605871	44.500000
3128.781832	38.500000
3129.957616	39.700000
3131.134722	57.800000
3132.310153	28.300000
3133.483911	45.800000
3134.655996	26.900000
3135.829403	41.500000
3137.002633	33.800000
3138.174192	44.800000
3139.347071	40.600000
3140.516783	23.200000
3141.687816	39.400000
3142.857179	49.200000
3144.024871	37.300000
3145.195379	22.900000
3146.361229	24.000000
3147.531387	37.300000
3148.696889	33.000000
3149.862216	21.500000
3151.027370	36.700000
3152.192351	40.400000
3153.358651	30.000000
3154.520299	23.000000
3155.683266	50.200000
3156.846061	33.600000
3158.008683	53.800000
3159.169640	25.000000
3160.330424	22.100000
3161.491036	31.500000
3162.649984	24.600000
3163.808761	38.800000
3164.967366	42.300000
3166.125798	43.100000
3167.284060	30.800000
3168.440659	21.900000
3169.595597	35.100000
3170.751854	56.200000
3171.906450	35.400000
3173.060876	31.500000
3174.213642	33.300000
3175.366237	18.600000
3176.518663	27.600000
3177.670919	34.900000
3178.823004	49.100000
3179.971944	29.400000
3181.123690	41.800000
3182.273778	32.100000
3183.422210	30.600000
3184.570472	29.100000
3185.718566	29.300000
3186.866491	44.200000
3188.012760	31.200000
3189.158861	50.000000
3190.303308	42.600000
3191.447587	29.600000
3192.591698	45.200000
3193.737126	32.100000
3194.879416	41.400000
3196.021539	30.100000
3197.163494	35.900000
3198.305282	25.900000
3199.446903	41.700000
3200.585389	55.300000
3201.725192	45.300000
3202.866313	55.900000
3204.004299	35.300000
3205.140636	41.900000
3206.276807	34.700000
3207.414295	23.300000
3208.550135	34.800000
3209.687292	37.400000
3210.819836	35.000000
3211.956662	24.900000
3213.088876	39.900000
3214.222407	12.600000
3215.355774	21.400000
3216.486013	49.500000
3217.619050	40.400000
3218.748961	35.400000
3219.880188	28.800000
3221.008291	36.000000
3222.139190	50.400000
3223.268445	31.200000
3224.396057	31.800000
3225.520546	44.500000
3226.649311	32.800000
3227.774954	33.900000
3228.900435	19.000000
3230.024274	36.700000
3231.150907	34.000000
3232.272943	24.500000
3233.396295	30.500000
3234.519485	39.000000
3235.642512	41.500000
3236.763901	32.800000
3237.885127	33.500000
3239.004716	35.100000
3240.124143	33.900000
3241.241932	25.100000
3242.362513	43.000000
3243.479981	30.900000
3244.597288	44.500000
3245.714435	15.900000
3246.829946	33.000000
3247.946771	20.900000
3249.060487	14.800000
3250.176992	35.200000
3251.291863	33.400000
3252.403625	29.800000
3253.515227	36.500000
3254.628145	28.000000
3255.740903	59.100000
3256.850555	23.200000
3257.961522	30.000000
3259.072330	39.500000
3260.181506	31.800000
3261.289052	36.000000
3262.397911	44.500000
3263.506613	24.100000
3264.612212	36.900000
3265.719125	28.700000
3266.824409	12.100000
3267.931007	20.100000
3269.034505	36.600000
3270.139318	39.000000
3271.243973	37.300000
3272.345529	34.100000
3273.446929	34.700000
3274.549643	15.300000
3275.652201	30.700000
3276.751662	35.500000
3277.853907	30.700000
3278.953056	22.700000
3280.050581	19.700000
3281.147950	41.800000
3282.248101	35.000000
3283.345160	28.300000
3284.442063	46.000000
3285.538811	38.100000
3286.631001	19.200000
3287.727439	36.000000
3288.822255	37.900000
3289.916917	18.100000
3291.009957	35.400000
3292.102842	14.900000
3293.194108	25.700000
3294.286685	52.200000
3295.377643	43.800000
3296.466981	14.000000
3297.556166	39.700000
3298.646664	16.700000
3299.734077	37.600000
3300.821337	12.100000
3301.909910	22.400000
3302.998331	30.700000
3304.082204	39.200000
3305.170319	24.800000
3306.255352	48.100000
3307.338770	-1.300000
3308.423500	38.800000
3309.506614	16.600000
3310.591041	36.700000
3311.672389	30.900000
3312.755049	15.400000
3313.836095	17.400000
3314.916990	43.400000
3315.996271	28.500000
3317.075402	44.000000
3318.155845	25.100000
3319.233213	31.300000
3320.311893	38.600000
3321.388961	33.300000
3322.465880	33.400000
3323.541187	28.200000
3324.616345	29.500000
3325.692814	29.100000
3326.766213	8.400000
3327.839463	26.100000
3328.914023	17.100000
3329.986975	27.200000
3331.058318	26.800000
3332.130972	42.000000
3333.200560	22.600000
3334.271458	33.600000
3335.340749	49.000000
3336.411351	37.600000
3337.480346	40.200000
3338.547735	24.100000
3339.613519	33.000000
3340.683529	33.800000
3341.750476	26.600000
3342.814361	29.400000
3343.881014	35.300000
3344.946062	31.600000
3346.009507	29.600000
3347.072806	23.800000
3348.135958	25.100000
3349.198964	14.100000
3350.261824	27.700000
3351.323082	16.600000
3352.381283	21.500000
3353.443704	29.000000
3354.503070	29.200000
3355.562290	44.500000
3356.622820	24.900000
3357.678840	39.600000
3358.737624	37.300000
3359.791901	39.800000
3360.848942	11.300000
3361.904384	27.900000
3362.961136	18.700000
3364.016289	17.600000
3365.069845	17.800000
3366.121805	11.600000
3367.176526	33.400000
3368.228198	18.000000
3369.279727	28.900000
3370.332564	14.900000
3371.382354	36.200000
3372.433453	39.500000
3373.481506	17.000000
3374.532318	17.500000
3375.580086	38.700000
3376.627711	16.300000
3377.675193	24.500000
3378.721083	34.400000
3379.768281	28.600000
3380.812437	30.400000
3381.859351	27.100000
3382.904673	29.500000
3383.946954	28.800000
3384.989095	34.600000
3386.032543	33.800000
3387.075850	15.100000
3388.117568	31.800000
3389.159144	26.700000
3390.200579	23.300000
3391.240426	23.600000
3392.278684	34.000000
3393.318250	24.300000
3394.357676	22.700000
3395.395514	48.200000
3396.431765	34.400000
3397.467877	24.500000
3398.505296	27.300000
3399.539682	19.900000
3400.575375	24.500000
3401.610929	26.700000
3402.643452	35.600000
3403.678728	15.500000
3404.710973	29.600000
3405.743080	21.500000
3406.773603	9.500000
3407.805433	21.900000
3408.837125	36.000000
3409.865789	27.900000
3410.894316	38.100000
3411.924149	42.900000
3412.953845	37.300000
3413.980515	35.800000
3415.008492	24.600000
3416.033444	33.000000
3417.061146	19.800000
3418.085825	37.000000
3419.111810	10.000000
3420.136215	42.200000
3421.160484	23.400000
3422.183174	36.700000
3423.205728	37.300000
3424.229588	35.600000
3425.250428	10.800000
3426.271132	28.000000
3427.293143	28.600000
3428.312135	25.300000
3429.330991	24.100000
3430.351154	26.700000
3431.368300	34.400000
