-117.888313	-8.800000
-115.218713	2.500000
-112.552048	13.800000
-109.886135	-8.800000
-107.223154	4.600000
-104.558744	-4.400000
-101.897264	-7.900000
-99.234355	-0.500000
-96.576552	1.400000
-93.917320	20.400000
-91.258836	-21.200000
-88.603276	10.900000
-85.946288	-13.400000
-83.294398	5.800000
-80.641078	-8.600000
-77.990677	15.600000
-75.338847	5.500000
-72.692108	16.800000
-70.043940	10.900000
-67.396514	10.300000
-64.752002	-7.700000
-62.106062	-7.500000
-59.465203	13.500000
-56.822915	10.900000
-54.183536	0.500000
-51.542727	8.300000
-48.902659	6.900000
-46.267663	-8.100000
-43.631239	12.900000
-40.997717	0.600000
-38.362767	-5.400000
-35.732882	-14.000000
-33.099405	11.300000
-30.470990	18.000000
-27.843309	17.000000
-25.214199	7.100000
-22.590146	6.300000
-19.962504	22.700000
-17.339915	11.100000
-14.718058	13.700000
-12.096931	14.900000
-9.476534	31.100000
-6.859026	151.100000
-4.240089	506.700000
-1.624037	1058.600000
0.991286	1142.100000
3.605882	571.600000
6.217595	67.300000
8.830737	16.000000
11.438845	28.100000
14.050535	19.600000
16.657194	0.400000
19.265281	0.900000
21.872644	9.600000
24.474982	-5.100000
27.080898	16.900000
29.681792	-4.800000
32.284114	1.100000
34.881419	-5.300000
37.482299	4.400000
40.078164	2.600000
42.675458	10.700000
45.272032	4.600000
47.863597	10.300000
50.456590	-2.000000
53.046722	-3.500000
55.638282	-8.900000
58.226982	-4.500000
60.817109	6.100000
63.402237	11.000000
65.988793	-5.900000
68.574635	9.000000
71.157623	5.500000
73.742037	-1.100000
76.319323	6.400000
78.900175	12.300000
81.478178	-1.500000
84.055471	-17.300000
86.634190	11.000000
89.207927	9.300000
91.783092	-3.000000
94.355413	7.100000
96.927026	2.700000
99.495799	16.500000
102.065999	4.200000
104.633361	7.000000
107.202148	-1.900000
109.768099	11.400000
112.331215	-5.800000
114.897887	9.800000
117.455338	3.000000
120.018474	21.800000
122.576650	0.000000
125.138381	11.600000
127.695155	3.500000
130.253356	20.500000
132.806603	19.800000
135.359153	41.300000
137.915253	54.200000
140.466405	81.000000
143.016860	57.100000
145.566617	91.300000
148.113555	108.300000
150.659798	106.800000
153.207466	83.200000
155.754438	108.600000
158.296475	90.700000
160.837818	112.600000
163.378468	105.200000
165.920544	96.100000
168.459808	84.600000
170.996264	106.600000
173.532028	94.600000
176.069218	93.900000
178.605717	71.000000
181.139410	97.700000
183.670299	95.100000
186.200501	95.400000
188.732127	77.400000
191.260952	107.100000
193.786978	95.700000
196.312318	80.300000
198.839083	77.000000
201.363052	108.800000
203.886336	90.900000
206.408935	96.200000
208.928741	86.500000
211.447864	99.000000
213.966304	91.100000
216.486168	86.700000
218.999031	98.400000
221.515425	101.900000
224.031137	101.000000
226.541959	88.900000
229.054206	82.100000
231.563671	93.400000
234.072457	94.400000
236.580564	84.800000
239.090096	97.800000
241.594747	95.100000
244.098722	88.900000
246.604121	109.300000
249.104645	89.500000
251.608693	75.800000
254.105769	83.900000
256.606369	98.600000
259.104197	90.400000
261.601352	93.500000
264.097834	109.300000
266.589453	109.600000
269.084592	93.900000
271.576964	96.500000
274.068666	98.600000
276.557605	99.500000
279.047968	83.100000
281.535568	98.400000
284.020409	83.200000
286.508765	89.300000
288.990181	103.500000
291.475111	95.400000
293.955196	107.200000
296.438793	118.000000
298.917547	94.500000
301.397725	116.400000
303.875150	103.200000
306.351912	98.800000
308.828011	103.400000
311.301361	105.400000
313.774049	106.800000
316.246076	112.900000
318.717442	131.900000
321.186063	146.900000
323.654026	130.400000
326.123410	125.900000
328.587972	111.600000
331.056038	132.100000
333.519284	118.200000
335.981872	92.500000
338.443804	97.100000
340.905079	108.100000
343.363620	112.700000
345.823583	115.500000
348.280813	116.500000
350.737389	105.600000
353.193311	109.500000
355.646503	99.900000
358.101118	98.000000
360.550931	117.200000
363.004240	105.600000
365.452751	118.500000
367.900610	99.400000
370.349892	95.600000
372.794380	86.900000
375.240290	92.600000
377.685550	104.900000
380.128092	122.100000
382.569986	92.700000
385.011233	111.600000
387.449764	111.300000
389.889717	111.000000
392.326956	102.800000
394.761483	89.800000
397.199498	113.000000
399.632736	114.700000
402.067395	105.400000
404.497282	109.800000
406.930654	105.000000
409.359256	108.100000
411.787216	95.200000
414.216598	108.200000
416.641214	97.100000
419.067252	111.400000
421.492649	109.400000
423.917406	114.100000
426.337405	89.400000
428.758825	124.900000
431.177548	106.900000
433.597692	117.900000
436.015141	105.700000
438.434010	113.000000
440.850186	118.400000
443.261614	104.800000
445.676520	99.600000
448.088735	105.200000
450.500316	107.000000
452.911263	120.400000
455.319524	101.400000
457.727152	109.500000
460.134148	103.700000
462.540513	99.000000
464.944195	99.000000
467.347247	107.900000
469.749669	78.200000
472.151461	109.700000
474.550576	127.000000
476.951110	98.500000
479.351015	98.800000
481.746197	115.600000
484.144846	114.800000
486.538775	104.000000
488.932078	100.400000
491.324755	106.200000
493.716807	97.500000
496.110277	96.600000
498.499035	88.400000
500.885127	95.500000
503.272639	84.000000
505.659528	76.100000
508.043753	79.400000
510.429396	71.200000
512.812378	65.900000
515.192699	75.300000
517.574439	84.100000
519.953520	66.100000
522.334020	73.600000
524.711862	75.800000
527.087049	58.900000
529.461618	64.600000
531.837605	59.300000
534.210940	71.700000
536.585692	43.100000
538.955759	70.900000
541.325210	70.000000
543.696079	70.100000
546.062268	75.500000
548.429875	54.100000
550.794836	60.400000
553.159184	78.500000
555.522919	59.600000
557.888072	62.200000
560.248553	52.900000
562.610452	56.900000
564.969710	61.000000
567.326331	50.800000
569.686396	72.100000
572.039770	72.300000
574.396589	52.500000
576.750773	63.600000
579.104349	49.200000
581.457316	59.900000
583.807651	60.700000
586.159404	53.900000
588.504480	48.300000
590.855020	44.900000
593.198886	65.700000
595.548214	63.900000
597.892893	54.600000
600.234948	59.200000
602.578420	62.900000
604.919269	61.700000
607.259516	51.500000
609.597142	63.100000
611.938203	62.000000
614.274626	45.200000
616.612466	45.400000
618.947689	58.000000
621.280296	70.800000
623.614319	31.200000
625.945728	54.100000
628.276539	38.600000
630.606753	58.300000
632.936368	61.700000
635.261360	51.300000
637.591794	38.400000
639.917607	52.400000
642.240812	70.300000
644.565434	41.000000
646.887450	53.500000
649.208872	51.300000
651.527692	76.000000
653.847927	45.200000
656.167569	55.800000
658.484610	46.900000
660.801059	42.100000
663.114910	54.100000
665.430177	49.600000
667.742847	42.100000
670.056932	68.300000
672.366417	42.400000
674.677318	58.900000
676.985626	41.500000
679.293346	53.700000
681.602480	41.500000
683.907022	36.700000
686.210978	54.500000
688.514348	49.400000
690.819132	35.300000
693.119330	63.300000
695.420942	46.800000
697.721970	45.000000
700.018415	44.400000
702.316276	55.700000
704.613553	54.900000
706.910247	45.000000
709.202365	49.500000
711.497894	49.800000
713.788849	47.500000
716.081219	63.200000
718.371014	41.200000
720.660228	54.300000
722.948863	48.400000
725.234925	47.100000
727.522402	30.400000
729.807307	48.000000
732.091635	49.200000
734.373394	49.300000
736.656567	42.200000
738.939163	45.600000
741.217203	52.000000
743.496658	62.300000
745.775536	35.400000
748.053840	56.400000
750.327594	53.300000
752.602761	31.400000
754.877355	36.500000
757.149390	40.100000
759.422838	40.800000
761.693728	52.600000
763.962062	55.900000
766.231809	58.600000
768.499002	56.800000
770.765624	51.300000
773.031676	66.600000
775.295177	72.600000
777.560091	45.100000
779.824435	48.100000
782.084250	42.100000
784.345477	53.000000
786.606137	43.000000
788.864251	43.900000
791.119820	53.500000
793.378780	42.800000
795.631241	31.200000
797.889068	55.300000
800.142377	41.600000
802.393146	64.900000
804.645327	45.900000
806.894969	51.900000
809.146024	25.400000
811.392567	49.400000
813.640522	46.800000
815.885943	61.500000
818.132775	52.600000
820.379046	45.100000
822.620812	52.400000
824.865962	46.300000
827.104639	26.000000
829.346698	44.400000
831.584259	48.700000
833.823232	47.000000
836.059678	43.300000
838.297535	55.500000
840.532867	59.100000
842.765676	35.500000
844.999896	43.900000
847.231593	56.900000
849.462736	45.000000
851.693324	49.800000
853.923358	51.800000
856.152838	44.000000
858.377836	47.100000
860.606209	48.000000
862.830102	32.700000
865.055407	52.600000
867.276236	27.200000
869.500437	44.200000
871.720165	33.300000
873.941303	46.000000
876.161891	52.500000
878.379970	46.300000
880.599458	40.200000
882.814480	51.300000
885.028955	47.300000
887.242881	46.100000
889.456261	48.700000
891.669093	51.300000
893.881379	46.800000
896.091162	34.300000
898.300400	45.900000
900.509093	49.800000
902.715287	48.100000
904.922890	50.300000
907.127995	55.900000
909.332557	31.700000
911.534624	36.900000
913.738100	71.400000
915.939082	45.400000
918.139522	29.000000
920.341371	40.500000
922.536829	51.500000
924.735646	38.900000
926.930024	51.500000
929.127760	55.800000
931.321060	36.700000
933.515769	36.600000
935.707992	59.600000
937.899676	47.800000
940.090823	49.900000
942.279487	45.700000
944.467615	52.500000
946.653262	42.000000
948.842261	56.700000
951.026837	32.800000
953.210878	45.300000
955.398269	56.100000
957.577356	61.300000
959.759794	51.000000
961.941698	63.400000
964.121127	50.300000
966.298084	77.000000
968.476449	58.500000
970.656221	64.400000
972.829644	80.900000
975.006413	63.900000
977.178775	76.100000
979.352545	61.500000
981.521911	61.500000
983.694621	60.500000
985.864866	60.300000
988.034582	59.600000
990.203769	55.900000
992.368559	64.200000
994.536690	57.500000
996.700427	64.900000
998.865570	68.500000
1001.028254	61.800000
1003.190413	61.000000
1005.350115	78.800000
1007.509292	58.700000
1009.669876	73.800000
1011.828006	62.600000
1013.985611	60.300000
1016.142693	81.300000
1018.299251	84.200000
1020.451430	45.300000
1022.605016	68.300000
1024.758080	71.900000
1026.908695	74.100000
1029.060717	71.800000
1031.208365	71.700000
1033.359345	88.200000
1035.505954	72.800000
1037.652044	86.400000
1039.797616	79.200000
1041.944593	76.500000
1044.085281	62.500000
1046.229299	78.900000
1048.370876	67.800000
1050.511937	69.500000
1052.654402	68.400000
1054.790588	67.900000
1056.930099	72.100000
1059.065256	82.200000
1061.203737	89.300000
1063.337864	68.700000
1065.471478	79.100000
1067.606497	80.200000
1069.737166	50.300000
1071.869240	79.500000
1073.998885	63.500000
1076.128018	67.900000
1078.256639	73.500000
1080.384749	74.700000
1082.510433	76.500000
1084.635607	67.300000
1086.762185	68.700000
1088.884425	74.100000
1091.008070	74.400000
1093.127380	73.700000
1095.251920	76.000000
1097.370214	67.600000
1099.489913	69.000000
1101.607193	68.100000
1103.723967	65.900000
1105.840234	65.000000
1107.954085	58.900000
1110.069341	52.400000
1112.180273	88.000000
1114.294518	61.500000
1116.404442	52.100000
1118.515770	49.400000
1120.626593	68.000000
1122.733100	59.200000
1124.842917	71.700000
1126.948419	80.800000
1129.055324	53.500000
1131.156014	52.200000
1133.261916	74.300000
1135.363509	58.400000
1137.466505	64.200000
1139.569000	56.400000
1141.665288	86.200000
1143.766784	55.600000
1145.863976	51.400000
1147.960671	64.900000
1150.056867	77.800000
1152.152566	55.200000
1154.247766	69.300000
1156.340570	68.700000
1158.434777	65.700000
1160.522792	59.400000
1162.616005	62.200000
1164.703030	60.400000
1166.793354	55.000000
1168.879391	56.500000
1170.968725	85.200000
1173.051878	65.600000
1175.136433	72.200000
1177.222390	61.700000
1179.304065	66.400000
1181.387142	67.300000
1183.467833	79.500000
1185.548032	42.100000
1187.627740	65.300000
1189.706957	63.000000
1191.783792	75.700000
1193.858246	63.900000
1195.935991	78.900000
1198.009467	71.400000
1200.084343	50.500000
1202.154952	66.900000
1204.226962	57.600000
1206.296597	68.900000
1208.367632	56.600000
1210.438179	73.100000
1212.504465	58.100000
1214.572152	59.900000
1216.637467	73.300000
1218.704182	63.600000
1220.766641	55.800000
1222.832385	52.900000
1224.893875	72.700000
1226.956766	49.700000
1229.017289	51.700000
1231.077328	65.500000
1233.136885	62.100000
1235.194076	56.100000
1237.250786	64.100000
1239.305132	53.600000
1241.362760	86.600000
1243.418025	49.700000
1245.469049	73.900000
1247.521473	69.200000
1249.573417	80.100000
1251.623003	74.600000
1253.672110	57.400000
1255.720739	77.100000
1257.768889	71.700000
1259.816560	62.900000
1261.860001	74.100000
1263.906718	73.700000
1265.951081	68.000000
1267.994968	64.000000
1270.036503	75.600000
1272.075689	61.300000
1274.118148	80.300000
1276.156384	64.800000
1278.196019	89.300000
1280.235179	81.600000
1282.270120	69.500000
1284.306460	68.700000
1286.340456	86.800000
1288.375849	66.400000
1290.407030	93.400000
1292.439608	84.200000
1294.471715	88.900000
1296.501481	69.700000
1298.532645	82.300000
1300.559601	79.800000
1302.587955	82.200000
1304.612104	74.500000
1306.639519	91.500000
1308.662731	92.000000
1310.687341	105.200000
1312.709617	77.300000
1314.733290	110.400000
1316.754630	111.300000
1318.775502	112.400000
1320.795907	102.800000
1322.812119	93.100000
1324.829728	119.500000
1326.845009	126.200000
1328.863549	112.800000
1330.877900	102.500000
1332.889925	126.500000
1334.905207	122.200000
1336.916304	116.800000
1338.928798	110.200000
1340.937109	115.100000
1342.948675	138.000000
1344.954203	125.500000
1346.962986	134.000000
1348.967591	131.000000
1350.975450	124.800000
1352.982847	130.000000
1354.984213	120.200000
1356.986975	119.600000
1358.989278	121.900000
1360.991121	102.900000
1362.992504	109.200000
1364.991574	113.800000
1366.990185	98.100000
1368.988338	92.900000
1370.986032	100.300000
1372.979564	84.100000
1374.974491	103.900000
1376.968962	93.500000
1378.962976	77.700000
1380.954683	74.500000
1382.945935	87.800000
1384.934881	81.900000
1386.925222	93.100000
1388.915108	74.100000
1390.902690	67.400000
1392.889819	79.800000
1394.874646	72.400000
1396.860868	73.400000
1398.844790	62.300000
1400.828259	66.800000
1402.811275	85.600000
1404.791994	75.100000
1406.774107	73.700000
1408.753924	63.700000
1410.733289	75.500000
1412.708516	56.500000
1414.686981	79.800000
1416.663153	61.400000
1418.638876	58.100000
1420.614149	61.200000
1422.587131	71.900000
1424.559665	76.800000
1426.531751	65.200000
1428.503390	73.000000
1430.470900	70.300000
1432.443484	76.500000
1434.408262	74.400000
1436.378113	68.500000
1438.343840	70.000000
1440.310959	86.800000
1442.275795	81.000000
1444.236511	78.400000
1446.202295	84.100000
1448.162124	76.800000
1450.123347	76.400000
1452.085962	83.700000
1454.044462	62.900000
1456.002519	88.000000
1457.960135	74.200000
1459.917308	81.500000
1461.872206	63.300000
1463.828497	73.800000
1465.782513	80.600000
1467.736088	56.700000
1469.687391	71.300000
1471.640087	78.300000
1473.590510	70.200000
1475.540495	87.700000
1477.490041	75.900000
1479.437318	79.200000
1481.382327	75.200000
1483.328729	80.200000
1485.274693	73.800000
1487.220220	71.000000
1489.163481	78.800000
1491.106307	75.400000
1493.046869	95.300000
1494.988822	84.600000
1496.928513	80.200000
1498.867770	72.400000
1500.806591	88.600000
1502.743153	75.200000
1504.681106	74.800000
1506.616800	83.000000
1508.552061	89.400000
1510.485066	86.200000
1512.417638	112.600000
1514.349778	92.500000
1516.281486	103.200000
1518.210940	91.600000
1520.141785	84.700000
1522.072198	89.400000
1523.998539	118.600000
1525.926271	86.900000
1527.851752	103.100000
1529.776804	120.800000
1531.701427	87.900000
1533.625621	106.200000
1535.547567	128.400000
1537.470904	101.600000
1539.391994	130.700000
1541.310840	139.100000
1543.231076	144.700000
1545.149069	144.800000
1547.066635	141.900000
1548.981959	185.800000
1550.898673	199.300000
1552.811332	225.200000
1554.727195	244.500000
1556.640818	302.500000
1558.552203	351.300000
1560.464978	383.400000
1562.373703	429.100000
1564.283817	463.600000
1566.193508	513.700000
1568.102776	552.800000
1570.009810	561.800000
1571.914611	585.400000
1573.820801	557.100000
1575.724759	479.100000
1577.628296	484.700000
1579.531413	404.900000
1581.432300	356.800000
1583.334576	296.900000
1585.234624	259.000000
1587.136059	230.700000
1589.033461	239.500000
1590.930444	194.500000
1592.827009	195.400000
1594.724962	161.500000
1596.617080	143.000000
1598.512391	141.400000
1600.407285	153.200000
1602.299957	137.100000
1604.192212	125.900000
1606.082248	139.100000
1607.971868	130.400000
1609.861073	115.500000
1611.749863	126.100000
1613.636435	111.900000
1615.524395	110.200000
1617.408338	106.300000
1619.293668	95.200000
1621.178585	117.200000
1623.061288	84.400000
1624.945378	77.000000
1626.825456	66.200000
1628.706922	69.900000
1630.586177	85.300000
1632.466818	74.500000
1634.341655	60.400000
1636.221473	73.000000
1638.097287	77.600000
1639.972690	86.200000
1641.849479	72.000000
1643.720472	71.100000
1645.594646	82.800000
1647.464821	69.100000
1649.338178	51.600000
1651.209331	60.200000
1653.078282	62.900000
1654.948618	64.700000
1656.814962	53.400000
1658.682691	71.200000
1660.548221	55.600000
1662.415137	60.600000
1664.278064	61.000000
1666.142376	41.800000
1668.004492	48.100000
1669.866203	46.300000
1671.729300	54.800000
1673.590201	54.900000
1675.448910	49.800000
1677.307215	51.100000
1679.166905	47.400000
1681.020827	59.400000
1682.877923	59.900000
1684.734616	35.500000
1686.587332	69.900000
1688.443220	42.100000
1690.295134	53.400000
1692.146647	59.400000
1693.997759	59.100000
1695.848471	51.900000
1697.698782	38.300000
1699.546908	57.100000
1701.396419	56.200000
1703.240181	62.000000
1705.088892	42.700000
1706.931857	29.200000
1708.777989	44.800000
1710.620158	38.500000
1712.465493	41.100000
1714.305087	50.000000
1716.146065	55.000000
1717.988426	55.300000
1719.826831	53.800000
1721.666619	57.600000
1723.504232	46.300000
1725.341449	42.900000
1727.176493	48.200000
1729.012920	38.800000
1730.847175	52.600000
1732.681035	47.900000
1734.514501	35.900000
1736.344022	48.500000
1738.176701	49.000000
1740.005436	39.400000
1741.837328	50.400000
1743.665278	45.900000
1745.492837	50.300000
1747.320003	37.000000
1749.146778	63.100000
1750.973161	37.600000
1752.795608	45.200000
1754.621210	57.400000
1756.442877	49.800000
1758.265926	50.800000
1760.086813	46.100000
1761.907312	32.200000
1763.729191	37.300000
1765.545372	55.500000
1767.364704	32.500000
1769.180109	44.300000
1770.998664	48.600000
1772.813294	39.300000
1774.627537	46.800000
1776.441394	36.100000
1778.254864	50.000000
1780.066181	48.500000
1781.878878	39.600000
1783.691190	47.100000
1785.499584	42.000000
1787.309358	49.600000
1789.115218	49.100000
1790.924223	43.500000
1792.729315	35.300000
1794.535788	40.500000
1796.341877	39.500000
1798.144055	32.800000
1799.949378	20.400000
1801.750792	50.800000
1803.553586	35.400000
1805.352474	38.800000
1807.152743	34.000000
1808.952630	41.800000
1810.750375	40.800000
1812.547740	34.200000
1814.344725	31.600000
1816.141329	44.900000
1817.935794	46.400000
1819.731638	46.500000
1821.521827	48.000000
1823.316913	40.300000
1825.106347	52.600000
1826.898917	63.800000
1828.689352	41.300000
1830.477653	34.700000
1832.269089	40.400000
1834.054879	46.600000
1835.842049	55.900000
1837.627087	34.500000
1839.415259	40.000000
1841.199545	53.500000
1842.981701	53.900000
1844.765237	48.200000
1846.546644	39.700000
1848.329430	45.400000
1850.108335	29.700000
1851.888620	48.000000
1853.666778	38.500000
1855.446315	27.300000
1857.223727	48.300000
1858.999015	52.900000
1860.775681	52.000000
1862.550225	44.900000
1864.326147	34.000000
1866.096448	35.800000
1867.869877	52.100000
1869.641186	59.300000
1871.412124	42.900000
1873.184440	43.500000
1874.951142	52.100000
1876.720970	32.700000
1878.486934	39.500000
1880.256021	54.200000
1882.021247	46.500000
1883.786105	43.400000
1885.552340	49.700000
1887.314716	41.700000
1889.076725	48.800000
1890.838366	47.900000
1892.599641	36.600000
1894.360548	54.800000
1896.121089	35.400000
1897.879520	54.200000
1899.637585	31.200000
1901.393543	35.600000
1903.150877	32.800000
1904.907846	40.200000
1906.662708	52.700000
1908.415466	40.500000
1910.167859	45.200000
1911.921629	36.200000
1913.673295	36.500000
1915.422859	49.400000
1917.173798	36.700000
1918.924375	58.300000
1920.671112	41.100000
1922.419226	36.700000
1924.165240	31.600000
1925.912629	37.400000
1927.657921	26.500000
1929.401115	48.200000
1931.145684	53.200000
1932.888158	43.800000
1934.630271	39.200000
1936.372024	25.800000
1938.113417	46.900000
1939.852717	35.400000
1941.591658	44.700000
1943.330240	50.400000
1945.066731	40.800000
1946.802864	40.350000
1948.540371	39.900000
1950.274056	38.500000
1952.009116	47.300000
1953.742087	29.400000
1955.474702	31.200000
1957.206961	36.800000
1958.938863	41.400000
1960.668679	40.200000
1962.396410	42.000000
1964.125516	45.500000
1965.854267	45.100000
1967.580934	23.400000
1969.307247	29.500000
1971.034933	29.500000
1972.757083	38.500000
1974.482334	43.400000
1976.203778	42.600000
1977.928323	39.400000
1979.650787	47.200000
1981.369449	35.500000
1983.091209	56.900000
1984.809167	49.000000
1986.528498	43.600000
1988.244030	56.900000
1989.964382	46.100000
1991.680936	51.300000
1993.393693	53.600000
1995.109546	31.700000
1996.823327	32.500000
1998.536758	30.400000
2000.248118	46.900000
2001.960850	34.500000
2003.669792	51.400000
2005.381826	31.600000
2007.088352	39.900000
2008.797969	31.200000
2010.505520	33.200000
2012.212722	43.100000
2013.917859	33.400000
2015.622650	29.100000
2017.328812	47.100000
2019.031192	41.900000
2020.734943	36.000000
2022.436632	51.600000
2024.137976	30.800000
2025.838974	23.600000
2027.537911	40.200000
2029.238220	31.500000
2030.934754	45.200000
2032.632659	41.200000
2034.328505	53.700000
2036.027437	57.200000
2037.720883	41.700000
2039.415700	30.400000
2041.110175	27.900000
2042.800881	45.900000
2044.494671	31.900000
2046.184694	46.800000
2047.876088	47.300000
2049.565429	41.400000
2051.256140	29.300000
2052.943088	45.500000
2054.629697	42.300000
2056.317675	35.500000
2058.001894	43.800000
2059.687484	34.700000
2061.372734	50.200000
2063.055935	33.400000
2064.740507	54.500000
2066.419616	25.900000
2068.103510	54.700000
2069.781943	31.600000
2071.463454	36.300000
2073.141213	41.000000
2074.818636	54.000000
2076.497428	31.300000
2078.174178	51.200000
2079.848886	44.800000
2081.524963	39.800000
2083.199000	32.500000
2084.872701	51.500000
2086.546067	56.700000
2088.217394	38.800000
2089.888387	43.600000
2091.559046	45.600000
2093.229371	48.400000
2094.899362	29.800000
2096.567317	22.600000
2098.234939	26.800000
2099.900526	31.000000
2101.567482	48.300000
2103.232405	52.500000
2104.896996	28.800000
2106.559555	51.900000
2108.223482	29.500000
2109.885378	33.500000
2111.546944	24.900000
2113.208178	33.600000
2114.867384	46.700000
2116.526259	30.200000
2118.184805	35.600000
2119.843020	28.300000
2121.497513	33.800000
2123.155070	38.900000
2124.812298	37.200000
2126.465804	36.500000
2128.120678	28.400000
2129.771833	43.000000
2131.426051	33.300000
2133.076552	42.400000
2134.728419	40.900000
2136.374878	35.000000
2138.026092	21.600000
2139.673592	43.300000
2141.322459	55.300000
2142.969307	27.400000
2144.615830	50.700000
2146.262027	53.300000
2147.904516	41.900000
2149.550063	28.900000
2151.191903	48.900000
2152.836800	56.500000
2154.477991	37.500000
2156.118860	44.400000
2157.759404	32.500000
2159.397936	33.300000
2161.037834	44.400000
2162.674032	27.500000
2164.311596	24.200000
2165.948838	27.200000
2167.584070	40.300000
2169.218981	28.800000
2170.853569	30.000000
2172.487837	25.700000
2174.118411	38.500000
2175.752037	43.600000
2177.381971	33.400000
2179.013270	37.600000
2180.642564	34.300000
2182.271539	46.600000
2183.900194	34.400000
2185.528530	38.800000
2187.154864	46.500000
2188.780879	37.600000
2190.404892	56.700000
2192.030271	31.100000
2193.653649	49.100000
2195.278392	42.800000
2196.899454	34.500000
2198.520199	42.200000
2200.142309	38.200000
2201.762421	30.600000
2203.380536	30.300000
2204.998336	35.000000
2206.615821	20.100000
2208.232990	51.000000
2209.849844	41.000000
2211.466382	45.800000
2213.080928	38.400000
2214.693481	33.300000
2216.307398	43.400000
2217.919324	33.000000
2219.532613	29.100000
2221.143912	41.700000
2222.753221	36.400000
2224.363894	40.600000
2225.972578	28.800000
2227.580949	32.800000
2229.187334	54.000000
2230.795082	30.700000
2232.400843	35.900000
2234.006293	43.300000
2235.609758	37.100000
2237.214586	46.100000
2238.817430	48.600000
2240.418291	40.800000
2242.020515	41.200000
2243.620757	22.500000
2245.222361	32.900000
2246.820312	35.900000
2248.419626	29.300000
2250.016960	42.500000
2251.613986	26.100000
2253.212374	33.400000
2254.807113	39.500000
2256.399875	35.900000
2257.994000	36.100000
2259.589486	43.300000
2261.181327	34.800000
2262.772862	30.200000
2264.365759	19.500000
2265.953346	29.500000
2267.545629	37.600000
2269.132606	25.300000
2270.722610	34.500000
2272.307310	41.000000
2273.896704	36.200000
2275.480796	22.100000
2277.066248	39.800000
2278.649732	32.500000
2280.236241	49.000000
2281.819117	21.100000
2283.401690	39.500000
2284.983959	44.000000
2286.562598	42.500000
2288.144262	42.500000
2289.722297	46.500000
2291.303355	40.000000
2292.880786	38.400000
2294.456254	36.800000
2296.034744	39.600000
2297.609610	53.900000
2299.184175	22.700000
2300.758440	46.300000
2302.332404	38.700000
2303.906067	38.000000
2305.479431	37.300000
2307.049176	37.800000
2308.618622	46.000000
2310.191086	26.600000
2311.758276	28.700000
2313.328484	35.100000
2314.895077	33.400000
2316.463030	30.900000
2318.029027	57.900000
2319.594727	46.600000
2321.160129	27.100000
2322.723578	51.000000
2324.288386	42.200000
2325.849586	45.100000
2327.413800	66.800000
2328.972752	43.300000
2330.534719	38.500000
2332.094734	45.500000
2333.654455	49.600000
2335.212226	27.700000
2336.769702	40.700000
2338.326884	27.500000
2339.882118	32.500000
2341.437059	30.500000
2342.991705	46.300000
2344.546058	34.500000
2346.100118	40.000000
2347.653883	50.300000
2349.205704	38.700000
2350.755583	33.000000
2352.308469	40.700000
2353.856112	31.000000
2355.406764	33.700000
2356.953824	44.900000
2358.502242	37.100000
2360.050369	33.800000
2361.594907	47.900000
2363.140803	58.300000
2364.684761	53.700000
2366.230076	14.100000
2367.771806	51.600000
2369.314893	35.400000
2370.856044	47.500000
2372.396906	49.100000
2373.937479	30.100000
2375.477763	26.400000
2377.017758	50.300000
2378.554175	42.600000
2380.093593	34.800000
2381.629433	31.000000
2383.166631	41.100000
2384.700253	49.600000
2386.236875	48.100000
2387.771567	44.300000
2389.304329	64.200000
2390.836804	32.600000
2392.367351	34.800000
2393.900896	37.900000
2395.429230	52.500000
2396.958921	37.400000
2398.488325	32.200000
2400.017445	51.000000
2401.546280	43.000000
2403.069909	52.500000
2404.598174	38.300000
2406.121237	32.700000
2407.648933	42.200000
2409.169790	27.500000
2410.695280	50.500000
2412.217209	32.500000
2413.740494	47.100000
2415.261857	48.300000
2416.781301	36.600000
2418.302100	47.600000
2419.820981	53.800000
2421.339579	45.600000
2422.856260	63.700000
2424.374295	47.500000
2425.892049	66.800000
2427.406252	46.300000
2428.920174	42.400000
2430.433816	43.000000
2431.948813	62.400000
2433.460261	52.300000
2434.973064	59.900000
2436.483953	65.500000
2437.994564	51.000000
2439.503263	57.300000
2441.014948	55.000000
2442.523090	38.400000
2444.030954	63.500000
2445.538540	47.900000
2447.042585	48.700000
2448.549615	54.400000
2450.054737	51.400000
2451.559582	56.100000
2453.062520	51.600000
2454.565182	57.200000
2456.067567	43.000000
2457.568047	68.900000
2459.069880	48.100000
2460.569808	44.200000
2462.069461	46.400000
2463.568839	57.000000
2465.066314	32.800000
2466.561887	42.300000
2468.060440	43.800000
2469.555465	44.500000
2471.051842	46.200000
2472.544693	53.000000
2474.038897	40.800000
2475.532827	42.800000
2477.023233	47.500000
2478.516617	56.700000
2480.008103	45.400000
2481.497692	47.900000
2482.987009	53.800000
2484.474430	33.400000
2485.964827	55.900000
2487.451706	41.600000
2488.939936	40.000000
2490.424649	21.100000
2491.909093	40.400000
2493.394887	45.200000
2494.878790	31.400000
2496.364043	44.900000
2497.844163	41.300000
2499.327256	58.100000
2500.808458	35.700000
2502.289391	37.500000
2503.768435	42.400000
2505.247210	37.000000
2506.725717	60.800000
2508.203956	30.200000
2509.681926	43.000000
2511.156391	53.700000
2512.633826	34.500000
2514.107757	61.600000
2515.583038	55.400000
2517.058052	48.200000
2518.529565	53.700000
2520.002429	44.400000
2521.473410	39.500000
2522.945741	33.600000
2524.412958	37.900000
2525.883142	45.800000
2527.351445	49.200000
2528.819483	36.100000
2530.287256	45.400000
2531.754764	64.500000
2533.222007	32.500000
2534.685758	40.200000
2536.150859	58.400000
2537.614083	27.300000
2539.078656	63.200000
2540.539741	51.000000
2542.002175	41.100000
2543.464346	43.300000
2544.923031	46.000000
2546.386287	36.800000
2547.844448	45.600000
2549.303957	48.700000
2550.758372	43.600000
2552.217358	57.600000
2553.674472	49.400000
2555.129715	48.900000
2556.584696	61.200000
2558.037809	41.300000
2559.492270	39.500000
2560.944861	46.200000
2562.397193	56.300000
2563.847658	48.300000
2565.301078	43.300000
2566.749416	41.400000
2568.200709	34.400000
2569.650137	50.600000
2571.096092	30.700000
2572.545002	63.400000
2573.990442	42.500000
2575.437229	56.500000
2576.882154	52.300000
2578.326820	48.100000
2579.772834	35.800000
2581.215382	58.500000
2582.659277	52.700000
2584.099707	47.600000
2585.541484	45.800000
2586.981402	57.300000
2588.422667	34.700000
2589.860470	56.300000
2591.301223	62.900000
2592.736914	61.000000
2594.175554	48.500000
2595.612336	62.400000
2597.047263	62.000000
2598.485137	44.700000
2599.917954	60.600000
2601.352118	57.900000
2602.784428	70.400000
2604.218084	84.400000
2605.649887	55.800000
2607.081436	60.200000
2608.512733	67.000000
2609.942177	62.200000
2611.371369	65.600000
2612.798711	77.000000
2614.227398	75.300000
2615.655834	70.400000
2617.080822	66.000000
2618.507157	68.000000
2619.931643	74.200000
2621.357475	67.700000
2622.779863	67.500000
2624.203597	65.900000
2625.625484	68.700000
2627.047122	68.900000
2628.466914	82.900000
2629.888052	78.600000
2631.308940	69.700000
2632.726390	74.700000
2634.146779	88.200000
2635.563731	88.200000
2636.980434	85.600000
2638.396889	83.400000
2639.813096	84.100000
2641.229055	87.000000
2642.643173	100.700000
2644.057043	75.400000
2645.469075	105.400000
2646.882450	105.400000
2648.292396	95.100000
2649.705278	97.100000
2651.114731	107.900000
2652.523938	110.900000
2653.931309	104.800000
2655.341614	123.500000
2656.750084	114.500000
2658.156718	131.800000
2659.563107	137.100000
2660.967662	128.900000
2662.373561	130.700000
2663.777627	126.600000
2665.181448	118.100000
2666.585025	110.700000
2667.986771	136.800000
2669.389860	148.400000
2670.789531	133.000000
2672.190546	141.000000
2673.588145	128.400000
2674.988674	145.500000
2676.385787	156.900000
2677.784244	141.900000
2679.180874	124.800000
2680.577261	142.100000
2681.973406	159.800000
2683.367725	137.600000
2684.763387	150.000000
2686.155640	159.000000
2687.549235	154.700000
2688.941006	141.400000
2690.334120	146.900000
2691.725410	162.600000
2693.114877	162.200000
2694.504104	153.100000
2695.893092	144.300000
2697.283421	134.400000
2698.668767	163.900000
2700.057036	140.500000
2701.443485	146.000000
2702.829695	153.800000
2704.215666	136.300000
2705.598239	128.300000
2706.982154	147.800000
2708.365831	126.100000
2709.749269	131.800000
2711.129313	130.400000
2712.510697	135.600000
2713.890267	125.400000
2715.271177	111.000000
2716.650273	129.600000
2718.027555	129.800000
2719.406178	111.400000
2720.782988	99.600000
2722.159561	115.900000
2723.535899	106.300000
2724.910426	91.400000
2726.286293	88.400000
2727.658773	89.000000
2729.034169	78.500000
2730.404605	88.800000
2731.776382	88.500000
2733.147924	94.100000
2734.517658	74.300000
2735.888733	72.500000
2737.257999	86.700000
2738.627032	54.800000
2739.994259	76.800000
2741.361252	74.600000
2742.728013	78.200000
2744.094542	60.400000
2745.459265	53.900000
2746.823756	57.400000
2748.188016	66.900000
2749.552043	55.200000
2750.915839	54.100000
2752.276261	38.300000
2753.639593	65.000000
2754.997983	63.800000
2756.359283	50.800000
2757.717213	41.900000
2759.078051	60.800000
2760.437090	53.000000
2761.792760	48.000000
2763.151338	60.000000
2764.506549	45.400000
2765.861531	46.400000
2767.214717	42.300000
2768.570809	42.100000
2769.923536	60.400000
2771.276036	53.300000
2772.628307	32.100000
2773.981916	41.000000
2775.332165	48.800000
2776.680619	51.200000
2778.031979	65.800000
2779.379979	66.100000
2780.729317	49.000000
2782.076863	37.600000
2783.424183	39.100000
2784.771276	52.500000
2786.116578	39.200000
2787.461653	44.500000
2788.806503	44.500000
2790.151127	50.400000
2791.492399	56.200000
2792.835009	40.200000
2794.177393	37.300000
2795.519552	43.400000
2796.858362	25.800000
2798.200072	33.300000
2799.538434	30.500000
2800.878132	35.400000
2802.216046	32.100000
2803.552175	36.200000
2804.888080	32.800000
2806.225323	33.900000
2807.560782	47.100000
2808.896018	45.500000
2810.229471	44.100000
2811.564261	28.000000
2812.895711	36.300000
2814.230056	36.100000
2815.559503	48.500000
2816.890287	32.400000
2818.220849	56.100000
2819.549632	45.200000
2820.879751	46.200000
2822.208092	36.500000
2823.536212	38.200000
2824.862554	32.000000
2826.190233	28.700000
2827.514578	44.600000
2828.840260	37.000000
2830.164166	45.800000
2831.487853	39.900000
2832.812875	53.500000
2834.134567	39.100000
2835.456041	51.800000
2836.777296	31.000000
2838.098332	55.700000
2839.417595	37.300000
2840.738194	25.500000
2842.057022	51.500000
2843.375631	38.800000
2844.692469	42.400000
2846.009090	46.900000
2847.325494	33.700000
2848.640128	31.300000
2849.956098	43.700000
2851.268747	38.600000
2852.582731	36.100000
2853.896499	30.800000
2855.210050	51.100000
2856.521835	26.400000
2857.831853	50.900000
2859.143206	51.300000
2860.451244	53.000000
2861.760616	37.100000
2863.069774	34.600000
2864.378716	40.900000
2865.685894	44.600000
2866.991310	39.400000
2868.298060	54.400000
2869.603047	40.700000
2870.907821	27.900000
2872.210833	30.300000
2873.516726	38.400000
2874.817765	34.800000
2876.120138	57.800000
2877.420751	29.700000
2878.722698	27.900000
2880.024431	41.100000
2881.322861	32.500000
2882.622624	39.900000
2883.920630	33.400000
2885.218424	36.100000
2886.514462	35.200000
2887.811833	21.600000
2889.107448	26.100000
2890.402852	47.400000
2891.698045	31.000000
2892.989941	22.900000
2894.284713	50.600000
2895.576188	37.800000
2896.868996	51.800000
2898.161594	49.900000
2899.450898	29.400000
2900.741534	22.700000
2902.030419	31.800000
2903.320636	39.900000
2904.607562	45.600000
2905.895820	48.900000
2907.182329	52.000000
2908.468629	22.900000
2909.754722	40.500000
2911.039066	37.000000
2912.326281	42.400000
2913.608670	30.000000
2914.892391	32.800000
2916.174366	31.600000
2917.456133	24.100000
2918.736156	41.600000
2920.019048	61.300000
2921.300195	49.000000
2922.578060	28.300000
2923.858794	24.200000
2925.136247	23.000000
2926.413494	36.500000
2927.688999	43.300000
2928.967372	28.700000
2930.240931	27.000000
2931.517357	34.900000
2932.792042	42.800000
2934.064986	59.700000
2935.339262	54.200000
2936.611798	32.500000
2937.884129	54.500000
2939.153188	41.800000
2940.425112	40.000000
2941.695298	33.900000
2942.965280	5.900000
2944.235059	37.000000
2945.503102	34.200000
2946.769408	23.400000
2948.035513	35.200000
2949.302947	30.100000
2950.568647	27.400000
2951.834144	29.500000
2953.099439	39.700000
2954.361469	37.200000
2955.624829	45.600000
2956.887988	29.100000
2958.149415	37.200000
2959.412171	27.600000
2960.673195	28.400000
2961.932489	29.500000
2963.191583	37.000000
2964.450476	37.500000
2965.709169	33.900000
2966.967662	29.800000
2968.224426	33.800000
2969.480990	45.800000
2970.735827	41.200000
2971.991992	25.600000
2973.244903	30.400000
2974.499143	44.100000
2975.753184	37.700000
2977.005499	42.900000
2978.257615	26.500000
2979.508007	33.100000
2980.761254	41.500000
2982.009724	46.800000
2983.261049	32.800000
2984.509124	27.600000
2985.757003	39.900000
2987.004684	38.200000
2988.252168	46.200000
2989.497931	35.700000
2990.743498	30.900000
2991.990392	40.500000
2993.234042	42.500000
2994.479020	44.800000
2995.720754	39.000000
2996.965340	27.100000
2998.208207	27.500000
2999.447833	18.600000
3000.690309	20.100000
3001.929545	22.100000
3003.170109	23.400000
3004.408957	32.300000
3005.647609	23.900000
3006.884546	45.800000
3008.122811	35.900000
3009.359360	29.300000
3010.595716	30.800000
3011.831878	35.500000
3013.066326	21.200000
3014.300582	27.400000
3015.534644	24.700000
3016.766994	33.800000
3017.997632	35.400000
3019.231116	39.300000
3020.462888	46.500000
3021.692950	19.900000
3022.922819	24.000000
3024.150980	36.400000
3025.380466	40.400000
3026.608243	13.600000
3027.835829	26.100000
3029.064742	37.200000
3030.288912	44.300000
3031.515925	28.400000
3032.739714	36.900000
3033.964830	25.600000
3035.188239	32.300000
3036.411458	14.200000
3037.632972	27.500000
3038.857327	34.400000
3040.076947	18.000000
3041.297893	28.200000
3042.518650	36.700000
3043.737703	27.600000
3044.958081	45.500000
3046.175243	31.600000
3047.393731	53.600000
3048.610516	32.700000
3049.827114	24.600000
3051.043523	39.500000
3052.256720	48.600000
3053.472754	50.200000
3054.685576	27.000000
3055.901235	45.200000
3057.112171	45.400000
3058.324432	32.700000
3059.536507	20.000000
3060.748394	39.100000
3061.958585	36.400000
3063.168589	21.300000
3064.378407	26.200000
3065.586529	34.300000
3066.794466	13.700000
3068.000707	26.500000
3069.208273	34.200000
3070.414144	26.400000
3071.619831	18.600000
3072.825332	33.500000
3074.029140	38.700000
3075.234272	27.400000
3076.437711	35.700000
3077.639459	26.100000
3078.841022	27.200000
3080.042402	27.600000
3081.243598	38.000000
3082.443104	20.800000
3083.642427	36.700000
3084.843073	23.300000
3086.042029	39.300000
3087.237791	38.500000
3088.436382	26.800000
3089.631779	27.700000
3090.828499	22.800000
3092.022027	23.900000
3093.218383	38.500000
3094.413053	46.900000
3095.604532	26.000000
3096.800342	34.100000
3097.991458	29.800000
3099.183898	39.100000
3100.373150	26.000000
3101.565227	23.600000
3102.755621	29.700000
3103.942829	26.400000
3105.131360	27.300000
3106.321212	25.700000
3107.507881	35.000000
3108.694369	26.600000
3109.880679	27.400000
3111.068310	37.700000
3112.252759	34.200000
3113.435529	32.000000
3114.621121	28.200000
3115.805034	33.600000
3116.987268	23.400000
3118.169323	48.300000
3119.351200	54.700000
3120.532899	39.500000
3121.712921	20.800000
3122.891266	45.600000
3124.072431	44.000000
3125.250421	27.700000
3126.428235	39.600000
3127.605871	26.200000
3128.781832	48.500000
3129.957616	21.600000
3131.134722	30.800000
3132.310153	30.400000
3133.483911	27.300000
3134.655996	19.700000
3135.829403	12.600000
3137.002633	45.300000
3138.174192	21.700000
3139.347071	30.400000
3140.516783	23.800000
3141.687816	40.800000
3142.857179	31.100000
3144.024871	31.100000
3145.195379	25.000000
3146.361229	27.700000
3147.531387	13.600000
3148.696889	10.500000
3149.862216	47.400000
3151.027370	26.700000
3152.192351	38.300000
3153.358651	27.800000
3154.520299	25.700000
3155.683266	42.600000
3156.846061	26.700000
3158.008683	36.100000
3159.169640	36.200000
3160.330424	22.900000
3161.491036	19.500000
3162.649984	12.600000
3163.808761	37.900000
3164.967366	21.600000
3166.125798	30.200000
3167.284060	33.300000
3168.440659	17.400000
3169.595597	38.500000
3170.751854	25.700000
3171.906450	17.600000
3173.060876	22.000000
3174.213642	34.500000
3175.366237	44.200000
3176.518663	30.900000
3177.670919	19.100000
3178.823004	23.600000
3179.971944	39.100000
3181.123690	39.100000
3182.273778	32.200000
3183.422210	13.600000
3184.570472	34.900000
3185.718566	34.400000
3186.866491	33.100000
3188.012760	17.800000
3189.158861	23.700000
3190.303308	37.300000
3191.447587	27.700000
3192.591698	29.200000
3193.737126	26.300000
3194.879416	37.700000
3196.021539	34.700000
3197.163494	22.000000
3198.305282	40.400000
3199.446903	24.800000
3200.585389	30.100000
3201.725192	41.500000
3202.866313	43.300000
3204.004299	39.000000
3205.140636	42.100000
3206.276807	29.000000
3207.414295	28.900000
3208.550135	39.100000
3209.687292	30.300000
3210.819836	29.200000
3211.956662	45.200000
3213.088876	17.700000
3214.222407	38.600000
3215.355774	25.800000
3216.486013	33.400000
3217.619050	28.900000
3218.748961	32.700000
3219.880188	33.200000
3221.008291	33.200000
3222.139190	16.500000
3223.268445	35.000000
3224.396057	27.300000
3225.520546	38.000000
3226.649311	21.700000
3227.774954	29.400000
3228.900435	42.500000
3230.024274	31.100000
3231.150907	27.300000
3232.272943	45.200000
3233.396295	27.800000
3234.519485	29.000000
3235.642512	32.100000
3236.763901	38.200000
3237.885127	17.800000
3239.004716	27.300000
3240.124143	12.000000
3241.241932	50.000000
3242.362513	21.900000
3243.479981	36.200000
3244.597288	21.800000
3245.714435	31.800000
3246.829946	34.000000
3247.946771	34.900000
3249.060487	33.300000
3250.176992	10.200000
3251.291863	12.900000
3252.403625	31.200000
3253.515227	35.100000
3254.628145	29.500000
3255.740903	38.500000
3256.850555	22.200000
3257.961522	10.100000
3259.072330	37.600000
3260.181506	22.300000
3261.289052	45.100000
3262.397911	19.600000
3263.506613	28.300000
3264.612212	37.400000
3265.719125	31.900000
3266.824409	21.200000
3267.931007	39.300000
3269.034505	35.000000
3270.139318	9.400000
3271.243973	29.800000
3272.345529	23.200000
3273.446929	37.500000
3274.549643	30.100000
3275.652201	33.400000
3276.751662	29.200000
3277.853907	25.900000
3278.953056	16.700000
3280.050581	26.700000
3281.147950	20.200000
3282.248101	33.000000
3283.345160	21.800000
3284.442063	16.900000
3285.538811	11.900000
3286.631001	24.200000
3287.727439	12.100000
3288.822255	14.700000
3289.916917	36.000000
3291.009957	15.900000
3292.102842	13.600000
3293.194108	11.500000
3294.286685	22.900000
3295.377643	27.700000
3296.466981	38.900000
3297.556166	16.500000
3298.646664	14.400000
3299.734077	11.200000
3300.821337	20.600000
3301.909910	6.600000
3302.998331	41.400000
3304.082204	29.500000
3305.170319	25.600000
3306.255352	34.700000
3307.338770	28.600000
3308.423500	33.900000
3309.506614	10.400000
3310.591041	27.800000
3311.672389	37.700000
3312.755049	27.800000
3313.836095	21.500000
3314.916990	14.800000
3315.996271	15.200000
3317.075402	18.900000
3318.155845	31.700000
3319.233213	32.700000
3320.311893	20.100000
3321.388961	9.200000
3322.465880	26.000000
3323.541187	25.300000
3324.616345	39.200000
3325.692814	18.200000
3326.766213	25.500000
3327.839463	24.100000
3328.914023	17.700000
3329.986975	30.100000
3331.058318	10.000000
3332.130972	9.500000
3333.200560	15.800000
3334.271458	24.800000
3335.340749	32.900000
3336.411351	31.000000
3337.480346	23.000000
3338.547735	18.300000
3339.613519	14.700000
3340.683529	29.000000
3341.750476	29.600000
3342.814361	20.300000
3343.881014	35.900000
3344.946062	24.300000
3346.009507	24.800000
3347.072806	20.800000
3348.135958	25.900000
3349.198964	20.200000
3350.261824	18.300000
3351.323082	15.900000
3352.381283	35.600000
3353.443704	14.000000
3354.503070	35.800000
3355.562290	18.400000
3356.622820	25.200000
3357.678840	20.600000
3358.737624	36.300000
3359.791901	32.600000
3360.848942	19.500000
3361.904384	28.200000
3362.961136	13.800000
3364.016289	10.400000
3365.069845	20.400000
3366.121805	27.800000
3367.176526	16.600000
3368.228198	32.300000
3369.279727	20.200000
3370.332564	26.500000
3371.382354	22.900000
3372.433453	28.000000
3373.481506	17.400000
3374.532318	25.600000
3375.580086	23.900000
3376.627711	30.100000
3377.675193	12.600000
3378.721083	22.000000
3379.768281	19.300000
3380.812437	17.200000
3381.859351	22.200000
3382.904673	18.200000
3383.946954	17.600000
3384.989095	19.900000
3386.032543	17.100000
3387.075850	28.100000
3388.117568	25.500000
3389.159144	30.200000
3390.200579	12.700000
3391.240426	18.300000
3392.278684	30.700000
3393.318250	-1.900000
3394.357676	42.500000
3395.395514	19.200000
3396.431765	32.200000
3397.467877	36.300000
3398.505296	35.200000
3399.539682	22.700000
3400.575375	33.500000
3401.610929	21.900000
3402.643452	10.300000
3403.678728	4.600000
3404.710973	9.500000
3405.743080	9.900000
3406.773603	15.900000
3407.805433	13.900000
3408.837125	20.600000
3409.865789	8.500000
3410.894316	33.100000
3411.924149	15.700000
3412.953845	25.300000
3413.980515	21.800000
3415.008492	27.400000
3416.033444	20.200000
3417.061146	32.100000
3418.085825	27.700000
3419.111810	26.800000
3420.136215	27.600000
3421.160484	32.300000
3422.183174	29.300000
3423.205728	30.700000
3424.229588	9.500000
3425.250428	20.900000
3426.271132	34.300000
3427.293143	17.300000
3428.312135	22.400000
3429.330991	36.000000
3430.351154	16.400000
3431.368300	1.200000
