-117.888313	5.000000
-115.218713	-21.500000
-112.552048	16.400000
-109.886135	3.200000
-107.223154	11.600000
-104.558744	10.000000
-101.897264	-4.000000
-99.234355	10.300000
-96.576552	1.200000
-93.917320	14.400000
-91.258836	-8.000000
-88.603276	-1.700000
-85.946288	13.700000
-83.294398	-9.100000
-80.641078	19.400000
-77.990677	8.100000
-75.338847	-12.600000
-72.692108	6.900000
-70.043940	-2.800000
-67.396514	-0.500000
-64.752002	1.400000
-62.106062	-3.900000
-59.465203	14.700000
-56.822915	2.900000
-54.183536	3.500000
-51.542727	9.300000
-48.902659	3.600000
-46.267663	-10.300000
-43.631239	-4.100000
-40.997717	16.000000
-38.362767	-2.900000
-35.732882	9.700000
-33.099405	6.600000
-30.470990	4.200000
-27.843309	18.800000
-25.214199	15.000000
-22.590146	10.400000
-19.962504	14.300000
-17.339915	16.800000
-14.718058	22.000000
-12.096931	39.800000
-9.476534	67.200000
-6.859026	187.600000
-4.240089	616.600000
-1.624037	1679.300000
0.991286	1962.400000
3.605882	951.100000
6.217595	101.900000
8.830737	19.200000
11.438845	27.300000
14.050535	12.500000
16.657194	-11.700000
19.265281	9.900000
21.872644	6.900000
24.474982	2.900000
27.080898	17.800000
29.681792	8.800000
32.284114	7.100000
34.881419	2.100000
37.482299	-12.000000
40.078164	1.300000
42.675458	5.500000
45.272032	6.800000
47.863597	14.300000
50.456590	5.700000
53.046722	-0.300000
55.638282	8.000000
58.226982	2.900000
60.817109	4.600000
63.402237	9.700000
65.988793	-0.700000
68.574635	-5.700000
71.157623	16.900000
73.742037	-1.800000
76.319323	23.500000
78.900175	1.900000
81.478178	17.700000
84.055471	5.200000
86.634190	9.200000
89.207927	2.900000
91.783092	14.400000
94.355413	6.300000
96.927026	-12.900000
99.495799	20.900000
102.065999	-8.100000
104.633361	-2.500000
107.202148	-1.500000
109.768099	0.200000
112.331215	15.000000
114.897887	2.500000
117.455338	-4.000000
120.018474	-0.600000
122.576650	3.900000
125.138381	4.200000
127.695155	-9.700000
130.253356	24.800000
132.806603	18.500000
135.359153	40.500000
137.915253	59.800000
140.466405	67.000000
143.016860	71.000000
145.566617	86.700000
148.113555	104.100000
150.659798	96.400000
153.207466	100.300000
155.754438	107.800000
158.296475	108.100000
160.837818	103.700000
163.378468	114.700000
165.920544	105.600000
168.459808	116.000000
170.996264	111.900000
173.532028	98.100000
176.069218	108.500000
178.605717	100.900000
181.139410	112.900000
183.670299	100.600000
186.200501	94.800000
188.732127	101.000000
191.260952	99.500000
193.786978	105.100000
196.312318	98.800000
198.839083	113.400000
201.363052	101.400000
203.886336	110.400000
206.408935	100.900000
208.928741	98.300000
211.447864	92.600000
213.966304	133.000000
216.486168	102.700000
218.999031	109.600000
221.515425	108.400000
224.031137	105.600000
226.541959	108.700000
229.054206	109.400000
231.563671	111.200000
234.072457	83.100000
236.580564	105.300000
239.090096	108.600000
241.594747	109.600000
244.098722	113.800000
246.604121	107.000000
249.104645	104.200000
251.608693	99.700000
254.105769	110.600000
256.606369	119.800000
259.104197	112.500000
261.601352	118.600000
264.097834	117.600000
266.589453	120.900000
269.084592	115.000000
271.576964	117.700000
274.068666	120.300000
276.557605	114.700000
279.047968	120.000000
281.535568	106.800000
284.020409	122.900000
286.508765	112.300000
288.990181	117.500000
291.475111	117.400000
293.955196	121.100000
296.438793	113.600000
298.917547	122.800000
301.397725	115.900000
303.875150	103.100000
306.351912	137.400000
308.828011	136.500000
311.301361	131.300000
313.774049	122.300000
316.246076	139.100000
318.717442	153.100000
321.186063	135.900000
323.654026	177.500000
326.123410	144.400000
328.587972	136.700000
331.056038	117.600000
333.519284	147.200000
335.981872	111.600000
338.443804	125.500000
340.905079	102.800000
343.363620	136.400000
345.823583	126.600000
348.280813	127.700000
350.737389	128.600000
353.193311	127.500000
355.646503	143.300000
358.101118	129.800000
360.550931	122.300000
363.004240	98.100000
365.452751	117.100000
367.900610	111.800000
370.349892	124.300000
372.794380	121.100000
375.240290	108.700000
377.685550	139.300000
380.128092	95.400000
382.569986	104.300000
385.011233	113.000000
387.449764	120.900000
389.889717	109.000000
392.326956	122.200000
394.761483	125.700000
397.199498	140.300000
399.632736	127.800000
402.067395	118.600000
404.497282	98.100000
406.930654	120.600000
409.359256	105.100000
411.787216	130.500000
414.216598	129.300000
416.641214	122.500000
419.067252	118.200000
421.492649	124.600000
423.917406	112.300000
426.337405	130.900000
428.758825	118.600000
431.177548	119.700000
433.597692	115.000000
436.015141	122.300000
438.434010	126.000000
440.850186	134.200000
443.261614	114.000000
445.676520	117.900000
448.088735	98.300000
450.500316	118.600000
452.911263	113.900000
455.319524	123.400000
457.727152	120.700000
460.134148	110.300000
462.540513	123.400000
464.944195	116.100000
467.347247	127.200000
469.749669	107.300000
472.151461	108.800000
474.550576	104.600000
476.951110	107.500000
479.351015	126.200000
481.746197	113.100000
484.144846	113.900000
486.538775	114.400000
488.932078	118.000000
491.324755	112.800000
493.716807	110.500000
496.110277	96.000000
498.499035	89.800000
500.885127	104.800000
503.272639	89.700000
505.659528	99.900000
508.043753	79.800000
510.429396	83.000000
512.812378	93.700000
515.192699	79.900000
517.574439	69.700000
519.953520	86.800000
522.334020	86.400000
524.711862	67.800000
527.087049	69.300000
529.461618	74.100000
531.837605	76.900000
534.210940	72.600000
536.585692	60.900000
538.955759	66.500000
541.325210	67.200000
543.696079	87.600000
546.062268	82.600000
548.429875	66.500000
550.794836	69.300000
553.159184	73.000000
555.522919	88.200000
557.888072	76.000000
560.248553	69.300000
562.610452	64.200000
564.969710	61.700000
567.326331	74.800000
569.686396	63.800000
572.039770	62.000000
574.396589	75.600000
576.750773	65.000000
579.104349	57.600000
581.457316	58.000000
583.807651	77.000000
586.159404	72.400000
588.504480	70.700000
590.855020	54.300000
593.198886	65.300000
595.548214	67.200000
597.892893	73.400000
600.234948	68.600000
602.578420	61.200000
604.919269	78.500000
607.259516	59.000000
609.597142	66.800000
611.938203	68.200000
614.274626	75.100000
616.612466	63.800000
618.947689	66.800000
621.280296	67.500000
623.614319	74.000000
625.945728	71.900000
628.276539	61.300000
630.606753	67.100000
632.936368	37.500000
635.261360	66.500000
637.591794	58.700000
639.917607	61.800000
642.240812	44.000000
644.565434	69.000000
646.887450	63.200000
649.208872	75.800000
651.527692	77.000000
653.847927	57.900000
656.167569	59.000000
658.484610	51.300000
660.801059	73.700000
663.114910	67.800000
665.430177	55.400000
667.742847	74.500000
670.056932	68.900000
672.366417	65.300000
674.677318	66.100000
676.985626	58.000000
679.293346	65.900000
681.602480	76.800000
683.907022	55.700000
686.210978	54.500000
688.514348	45.700000
690.819132	86.800000
693.119330	54.600000
695.420942	61.400000
697.721970	49.300000
700.018415	62.300000
702.316276	55.100000
704.613553	55.200000
706.910247	62.500000
709.202365	49.600000
711.497894	71.700000
713.788849	60.100000
716.081219	52.800000
718.371014	63.500000
720.660228	55.600000
722.948863	75.000000
725.234925	58.900000
727.522402	52.800000
729.807307	74.500000
732.091635	43.000000
734.373394	70.600000
736.656567	57.300000
738.939163	56.200000
741.217203	63.400000
743.496658	40.200000
745.775536	53.000000
748.053840	64.400000
750.327594	53.400000
752.602761	45.000000
754.877355	76.200000
757.149390	60.700000
759.422838	64.800000
761.693728	71.400000
763.962062	54.500000
766.231809	50.700000
768.499002	56.700000
770.765624	50.200000
773.031676	61.500000
775.295177	51.300000
777.560091	71.500000
779.824435	59.600000
782.084250	56.400000
784.345477	69.500000
786.606137	56.500000
788.864251	69.500000
791.119820	60.300000
793.378780	62.200000
795.631241	62.700000
797.889068	61.900000
800.142377	50.700000
802.393146	34.700000
804.645327	76.100000
806.894969	60.800000
809.146024	71.500000
811.392567	47.900000
813.640522	55.100000
815.885943	46.600000
818.132775	59.000000
820.379046	61.000000
822.620812	48.700000
824.865962	53.300000
827.104639	51.800000
829.346698	53.600000
831.584259	56.200000
833.823232	47.100000
836.059678	44.600000
838.297535	54.600000
840.532867	50.100000
842.765676	50.400000
844.999896	73.300000
847.231593	30.700000
849.462736	54.400000
851.693324	60.900000
853.923358	56.300000
856.152838	40.200000
858.377836	61.500000
860.606209	50.700000
862.830102	67.800000
865.055407	54.000000
867.276236	41.000000
869.500437	67.600000
871.720165	69.200000
873.941303	66.000000
876.161891	56.300000
878.379970	56.600000
880.599458	43.800000
882.814480	58.600000
885.028955	72.700000
887.242881	48.700000
889.456261	62.300000
891.669093	43.900000
893.881379	44.600000
896.091162	53.700000
898.300400	46.700000
900.509093	62.300000
902.715287	48.900000
904.922890	51.300000
907.127995	50.300000
909.332557	53.700000
911.534624	74.500000
913.738100	54.400000
915.939082	52.400000
918.139522	69.100000
920.341371	44.300000
922.536829	60.100000
924.735646	54.400000
926.930024	61.100000
929.127760	62.700000
931.321060	60.200000
933.515769	60.200000
935.707992	50.200000
937.899676	46.800000
940.090823	73.100000
942.279487	62.200000
944.467615	54.900000
946.653262	58.700000
948.842261	65.600000
951.026837	55.300000
953.210878	83.900000
955.398269	68.700000
957.577356	50.700000
959.759794	64.100000
961.941698	65.200000
964.121127	59.200000
966.298084	65.100000
968.476449	58.000000
970.656221	71.600000
972.829644	68.600000
975.006413	74.100000
977.178775	66.300000
979.352545	58.300000
981.521911	77.200000
983.694621	73.600000
985.864866	68.300000
988.034582	58.200000
990.203769	74.500000
992.368559	71.400000
994.536690	77.100000
996.700427	83.500000
998.865570	69.900000
1001.028254	72.100000
1003.190413	73.400000
1005.350115	90.300000
1007.509292	68.100000
1009.669876	69.400000
1011.828006	88.600000
1013.985611	82.900000
1016.142693	89.300000
1018.299251	87.500000
1020.451430	82.600000
1022.605016	89.000000
1024.758080	84.000000
1026.908695	71.400000
1029.060717	83.800000
1031.208365	77.200000
1033.359345	87.100000
1035.505954	77.500000
1037.652044	96.400000
1039.797616	102.000000
1041.944593	102.400000
1044.085281	78.100000
1046.229299	82.400000
1048.370876	70.900000
1050.511937	90.400000
1052.654402	76.700000
1054.790588	73.100000
1056.930099	88.100000
1059.065256	95.800000
1061.203737	93.900000
1063.337864	85.000000
1065.471478	61.000000
1067.606497	81.400000
1069.737166	96.000000
1071.869240	86.600000
1073.998885	83.100000
1076.128018	82.500000
1078.256639	69.100000
1080.384749	72.600000
1082.510433	77.400000
1084.635607	89.300000
1086.762185	78.000000
1088.884425	77.800000
1091.008070	82.600000
1093.127380	80.500000
1095.251920	80.200000
1097.370214	69.600000
1099.489913	65.200000
1101.607193	104.100000
1103.723967	55.400000
1105.840234	65.800000
1107.954085	87.900000
1110.069341	86.000000
1112.180273	82.300000
1114.294518	84.800000
1116.404442	88.900000
1118.515770	85.100000
1120.626593	77.600000
1122.733100	59.800000
1124.842917	77.000000
1126.948419	72.800000
1129.055324	74.000000
1131.156014	67.500000
1133.261916	59.700000
1135.363509	88.300000
1137.466505	87.000000
1139.569000	71.400000
1141.665288	66.100000
1143.766784	63.500000
1145.863976	68.000000
1147.960671	70.000000
1150.056867	87.100000
1152.152566	79.100000
1154.247766	77.300000
1156.340570	72.500000
1158.434777	60.600000
1160.522792	83.400000
1162.616005	81.000000
1164.703030	85.100000
1166.793354	96.500000
1168.879391	67.800000
1170.968725	96.200000
1173.051878	76.700000
1175.136433	58.300000
1177.222390	61.400000
1179.304065	74.000000
1181.387142	78.200000
1183.467833	79.200000
1185.548032	74.200000
1187.627740	73.500000
1189.706957	86.800000
1191.783792	69.100000
1193.858246	72.600000
1195.935991	86.700000
1198.009467	80.800000
1200.084343	73.600000
1202.154952	82.300000
1204.226962	87.400000
1206.296597	84.800000
1208.367632	78.800000
1210.438179	83.400000
1212.504465	87.200000
1214.572152	71.700000
1216.637467	87.600000
1218.704182	78.300000
1220.766641	65.200000
1222.832385	69.300000
1224.893875	67.800000
1226.956766	80.400000
1229.017289	84.300000
1231.077328	85.900000
1233.136885	79.000000
1235.194076	68.700000
1237.250786	88.800000
1239.305132	83.600000
1241.362760	76.000000
1243.418025	90.600000
1245.469049	82.900000
1247.521473	89.700000
1249.573417	86.300000
1251.623003	86.100000
1253.672110	80.200000
1255.720739	79.500000
1257.768889	91.900000
1259.816560	97.200000
1261.860001	70.100000
1263.906718	83.200000
1265.951081	76.800000
1267.994968	85.400000
1270.036503	101.600000
1272.075689	92.700000
1274.118148	79.300000
1276.156384	88.600000
1278.196019	85.500000
1280.235179	77.100000
1282.270120	92.600000
1284.306460	76.100000
1286.340456	85.400000
1288.375849	100.900000
1290.407030	87.000000
1292.439608	83.400000
1294.471715	94.000000
1296.501481	67.700000
1298.532645	89.800000
1300.559601	94.900000
1302.587955	79.900000
1304.612104	93.700000
1306.639519	96.900000
1308.662731	97.000000
1310.687341	115.500000
1312.709617	119.400000
1314.733290	119.500000
1316.754630	107.200000
1318.775502	118.200000
1320.795907	114.500000
1322.812119	119.300000
1324.829728	141.100000
1326.845009	129.700000
1328.863549	137.300000
1330.877900	140.200000
1332.889925	137.400000
1334.905207	137.400000
1336.916304	157.500000
1338.928798	149.200000
1340.937109	158.000000
1342.948675	150.500000
1344.954203	136.800000
1346.962986	156.900000
1348.967591	159.600000
1350.975450	158.900000
1352.982847	148.200000
1354.984213	167.700000
1356.986975	160.000000
1358.989278	137.600000
1360.991121	135.000000
1362.992504	138.100000
1364.991574	115.300000
1366.990185	135.000000
1368.988338	118.200000
1370.986032	126.300000
1372.979564	122.700000
1374.974491	95.600000
1376.968962	112.200000
1378.962976	125.000000
1380.954683	99.600000
1382.945935	115.100000
1384.934881	96.300000
1386.925222	106.900000
1388.915108	86.100000
1390.902690	96.000000
1392.889819	123.200000
1394.874646	87.800000
1396.860868	107.800000
1398.844790	98.000000
1400.828259	101.600000
1402.811275	111.100000
1404.791994	103.400000
1406.774107	96.800000
1408.753924	95.800000
1410.733289	99.100000
1412.708516	92.800000
1414.686981	84.900000
1416.663153	113.800000
1418.638876	93.100000
1420.614149	91.200000
1422.587131	85.200000
1424.559665	85.500000
1426.531751	88.600000
1428.503390	101.600000
1430.470900	91.800000
1432.443484	80.500000
1434.408262	78.600000
1436.378113	90.000000
1438.343840	97.800000
1440.310959	81.700000
1442.275795	105.300000
1444.236511	96.500000
1446.202295	83.200000
1448.162124	80.700000
1450.123347	92.100000
1452.085962	90.800000
1454.044462	87.600000
1456.002519	88.300000
1457.960135	97.400000
1459.917308	90.200000
1461.872206	83.600000
1463.828497	89.600000
1465.782513	87.100000
1467.736088	93.300000
1469.687391	92.900000
1471.640087	94.700000
1473.590510	94.800000
1475.540495	83.200000
1477.490041	89.700000
1479.437318	98.100000
1481.382327	96.600000
1483.328729	110.200000
1485.274693	106.600000
1487.220220	95.800000
1489.163481	89.600000
1491.106307	94.300000
1493.046869	87.900000
1494.988822	104.300000
1496.928513	98.400000
1498.867770	110.500000
1500.806591	112.900000
1502.743153	81.500000
1504.681106	97.400000
1506.616800	101.900000
1508.552061	97.600000
1510.485066	108.200000
1512.417638	105.400000
1514.349778	105.500000
1516.281486	116.000000
1518.210940	113.200000
1520.141785	103.900000
1522.072198	115.800000
1523.998539	120.100000
1525.926271	125.600000
1527.851752	129.400000
1529.776804	129.700000
1531.701427	140.700000
1533.625621	132.800000
1535.547567	138.600000
1537.470904	158.200000
1539.391994	154.000000
1541.310840	179.100000
1543.231076	165.500000
1545.149069	179.000000
1547.066635	200.800000
1548.981959	200.700000
1550.898673	240.400000
1552.811332	265.700000
1554.727195	292.800000
1556.640818	329.000000
1558.552203	358.300000
1560.464978	420.900000
1562.373703	474.900000
1564.283817	533.900000
1566.193508	536.600000
1568.102776	559.800000
1570.009810	556.300000
1571.914611	570.700000
1573.820801	540.600000
1575.724759	508.900000
1577.628296	458.600000
1579.531413	422.000000
1581.432300	382.300000
1583.334576	346.800000
1585.234624	278.800000
1587.136059	263.900000
1589.033461	229.200000
1590.930444	213.700000
1592.827009	202.700000
1594.724962	198.200000
1596.617080	176.000000
1598.512391	158.100000
1600.407285	162.700000
1602.299957	163.400000
1604.192212	137.200000
1606.082248	154.900000
1607.971868	149.200000
1609.861073	140.200000
1611.749863	136.500000
1613.636435	151.800000
1615.524395	123.100000
1617.408338	124.500000
1619.293668	115.600000
1621.178585	92.700000
1623.061288	113.300000
1624.945378	99.500000
1626.825456	94.300000
1628.706922	105.700000
1630.586177	101.300000
1632.466818	102.200000
1634.341655	90.100000
1636.221473	94.900000
1638.097287	84.000000
1639.972690	95.500000
1641.849479	90.200000
1643.720472	74.100000
1645.594646	83.400000
1647.464821	71.500000
1649.338178	75.900000
1651.209331	80.900000
1653.078282	90.100000
1654.948618	75.900000
1656.814962	48.200000
1658.682691	73.900000
1660.548221	65.700000
1662.415137	74.100000
1664.278064	67.900000
1666.142376	77.200000
1668.004492	59.700000
1669.866203	62.500000
1671.729300	69.700000
1673.590201	63.000000
1675.448910	65.900000
1677.307215	67.300000
1679.166905	62.500000
1681.020827	64.300000
1682.877923	49.000000
1684.734616	52.400000
1686.587332	70.000000
1688.443220	58.000000
1690.295134	68.900000
1692.146647	70.400000
1693.997759	59.300000
1695.848471	43.700000
1697.698782	63.600000
1699.546908	59.900000
1701.396419	72.700000
1703.240181	46.800000
1705.088892	50.300000
1706.931857	61.800000
1708.777989	54.300000
1710.620158	53.100000
1712.465493	57.000000
1714.305087	68.000000
1716.146065	58.100000
1717.988426	49.100000
1719.826831	52.600000
1721.666619	63.300000
1723.504232	48.600000
1725.341449	29.800000
1727.176493	49.000000
1729.012920	64.100000
1730.847175	68.600000
1732.681035	59.300000
1734.514501	55.400000
1736.344022	53.300000
1738.176701	72.500000
1740.005436	36.700000
1741.837328	47.300000
1743.665278	57.500000
1745.492837	64.700000
1747.320003	47.600000
1749.146778	43.000000
1750.973161	57.900000
1752.795608	36.100000
1754.621210	52.200000
1756.442877	56.900000
1758.265926	42.800000
1760.086813	48.100000
1761.907312	50.700000
1763.729191	52.400000
1765.545372	55.500000
1767.364704	45.800000
1769.180109	43.000000
1770.998664	44.300000
1772.813294	57.800000
1774.627537	60.800000
1776.441394	46.600000
1778.254864	52.900000
1780.066181	56.600000
1781.878878	37.900000
1783.691190	42.700000
1785.499584	45.900000
1787.309358	55.200000
1789.115218	29.000000
1790.924223	40.300000
1792.729315	45.800000
1794.535788	49.500000
1796.341877	61.700000
1798.144055	44.800000
1799.949378	44.000000
1801.750792	56.900000
1803.553586	50.100000
1805.352474	42.900000
1807.152743	43.600000
1808.952630	65.500000
1810.750375	47.100000
1812.547740	45.100000
1814.344725	44.700000
1816.141329	53.200000
1817.935794	48.400000
1819.731638	63.700000
1821.521827	39.200000
1823.316913	72.500000
1825.106347	57.400000
1826.898917	53.800000
1828.689352	48.000000
1830.477653	48.900000
1832.269089	35.500000
1834.054879	47.800000
1835.842049	48.300000
1837.627087	63.900000
1839.415259	41.400000
1841.199545	55.700000
1842.981701	45.600000
1844.765237	43.400000
1846.546644	57.800000
1848.329430	44.900000
1850.108335	48.900000
1851.888620	61.400000
1853.666778	24.700000
1855.446315	39.600000
1857.223727	44.000000
1858.999015	66.100000
1860.775681	45.300000
1862.550225	61.800000
1864.326147	44.000000
1866.096448	59.100000
1867.869877	37.000000
1869.641186	35.400000
1871.412124	41.400000
1873.184440	51.700000
1874.951142	68.100000
1876.720970	45.500000
1878.486934	37.300000
1880.256021	67.700000
1882.021247	41.200000
1883.786105	49.900000
1885.552340	54.200000
1887.314716	44.000000
1889.076725	36.200000
1890.838366	53.500000
1892.599641	52.100000
1894.360548	60.600000
1896.121089	54.300000
1897.879520	82.900000
1899.637585	56.000000
1901.393543	51.900000
1903.150877	39.800000
1904.907846	42.700000
1906.662708	31.900000
1908.415466	40.500000
1910.167859	47.800000
1911.921629	43.800000
1913.673295	45.800000
1915.422859	45.200000
1917.173798	40.300000
1918.924375	47.900000
1920.671112	43.800000
1922.419226	51.900000
1924.165240	46.800000
1925.912629	61.500000
1927.657921	46.400000
1929.401115	37.600000
1931.145684	59.600000
1932.888158	45.500000
1934.630271	60.300000
1936.372024	39.900000
1938.113417	52.700000
1939.852717	61.700000
1941.591658	42.000000
1943.330240	36.400000
1945.066731	52.300000
1946.802864	46.950000
1948.540371	41.600000
1950.274056	52.800000
1952.009116	29.600000
1953.742087	36.300000
1955.474702	56.000000
1957.206961	61.200000
1958.938863	28.500000
1960.668679	59.100000
1962.396410	62.600000
1964.125516	59.800000
1965.854267	57.400000
1967.580934	52.100000
1969.307247	30.800000
1971.034933	57.000000
1972.757083	31.600000
1974.482334	55.800000
1976.203778	32.900000
1977.928323	62.100000
1979.650787	41.600000
1981.369449	62.800000
1983.091209	59.100000
1984.809167	47.300000
1986.528498	45.300000
1988.244030	47.600000
1989.964382	35.700000
1991.680936	38.200000
1993.393693	42.900000
1995.109546	51.100000
1996.823327	44.900000
1998.536758	40.000000
2000.248118	42.300000
2001.960850	68.400000
2003.669792	62.000000
2005.381826	45.600000
2007.088352	52.900000
2008.797969	50.700000
2010.505520	50.000000
2012.212722	38.100000
2013.917859	33.000000
2015.622650	37.000000
2017.328812	44.900000
2019.031192	50.600000
2020.734943	49.900000
2022.436632	41.000000
2024.137976	46.000000
2025.838974	43.600000
2027.537911	32.700000
2029.238220	45.200000
2030.934754	45.600000
2032.632659	48.300000
2034.328505	44.800000
2036.027437	62.400000
2037.720883	45.300000
2039.415700	39.800000
2041.110175	57.900000
2042.800881	40.000000
2044.494671	45.600000
2046.184694	50.200000
2047.876088	47.500000
2049.565429	51.900000
2051.256140	56.200000
2052.943088	38.300000
2054.629697	46.900000
2056.317675	42.700000
2058.001894	57.400000
2059.687484	45.600000
2061.372734	44.300000
2063.055935	48.600000
2064.740507	47.800000
2066.419616	44.500000
2068.103510	47.300000
2069.781943	29.900000
2071.463454	38.500000
2073.141213	45.100000
2074.818636	34.900000
2076.497428	35.500000
2078.174178	60.600000
2079.848886	59.000000
2081.524963	36.700000
2083.199000	41.000000
2084.872701	38.600000
2086.546067	52.400000
2088.217394	40.700000
2089.888387	38.100000
2091.559046	30.700000
2093.229371	56.200000
2094.899362	48.400000
2096.567317	34.000000
2098.234939	40.900000
2099.900526	30.700000
2101.567482	32.700000
2103.232405	47.500000
2104.896996	32.800000
2106.559555	35.000000
2108.223482	34.900000
2109.885378	44.700000
2111.546944	40.500000
2113.208178	32.700000
2114.867384	20.400000
2116.526259	47.400000
2118.184805	32.500000
2119.843020	41.100000
2121.497513	51.700000
2123.155070	54.200000
2124.812298	45.800000
2126.465804	47.600000
2128.120678	53.200000
2129.771833	60.400000
2131.426051	46.800000
2133.076552	43.600000
2134.728419	45.800000
2136.374878	57.600000
2138.026092	61.400000
2139.673592	36.100000
2141.322459	34.200000
2142.969307	44.600000
2144.615830	37.300000
2146.262027	51.400000
2147.904516	39.800000
2149.550063	50.300000
2151.191903	44.000000
2152.836800	37.000000
2154.477991	45.700000
2156.118860	41.400000
2157.759404	48.800000
2159.397936	35.600000
2161.037834	41.800000
2162.674032	46.600000
2164.311596	57.900000
2165.948838	34.900000
2167.584070	36.900000
2169.218981	52.100000
2170.853569	24.500000
2172.487837	50.900000
2174.118411	51.300000
2175.752037	46.600000
2177.381971	40.500000
2179.013270	59.500000
2180.642564	51.100000
2182.271539	34.700000
2183.900194	30.300000
2185.528530	38.900000
2187.154864	58.100000
2188.780879	49.700000
2190.404892	40.300000
2192.030271	45.300000
2193.653649	38.100000
2195.278392	35.400000
2196.899454	59.700000
2198.520199	42.700000
2200.142309	45.600000
2201.762421	56.600000
2203.380536	39.400000
2204.998336	50.900000
2206.615821	55.900000
2208.232990	55.700000
2209.849844	42.700000
2211.466382	50.800000
2213.080928	36.300000
2214.693481	36.300000
2216.307398	20.400000
2217.919324	40.500000
2219.532613	42.500000
2221.143912	46.900000
2222.753221	44.900000
2224.363894	52.700000
2225.972578	48.100000
2227.580949	36.300000
2229.187334	48.300000
2230.795082	45.400000
2232.400843	48.500000
2234.006293	47.900000
2235.609758	44.100000
2237.214586	49.600000
2238.817430	43.200000
2240.418291	54.000000
2242.020515	40.200000
2243.620757	45.400000
2245.222361	57.300000
2246.820312	30.200000
2248.419626	44.300000
2250.016960	41.900000
2251.613986	56.900000
2253.212374	39.700000
2254.807113	20.300000
2256.399875	37.400000
2257.994000	49.300000
2259.589486	54.700000
2261.181327	51.100000
2262.772862	33.700000
2264.365759	64.900000
2265.953346	51.800000
2267.545629	49.700000
2269.132606	42.100000
2270.722610	46.600000
2272.307310	42.200000
2273.896704	52.000000
2275.480796	39.000000
2277.066248	39.900000
2278.649732	49.300000
2280.236241	50.800000
2281.819117	44.500000
2283.401690	37.400000
2284.983959	21.300000
2286.562598	54.800000
2288.144262	52.700000
2289.722297	50.900000
2291.303355	54.600000
2292.880786	47.650000
2294.456254	40.700000
2296.034744	52.600000
2297.609610	39.700000
2299.184175	46.900000
2300.758440	55.800000
2302.332404	48.300000
2303.906067	58.900000
2305.479431	46.300000
2307.049176	31.800000
2308.618622	41.400000
2310.191086	48.700000
2311.758276	37.800000
2313.328484	40.600000
2314.895077	60.700000
2316.463030	65.300000
2318.029027	29.400000
2319.594727	21.200000
2321.160129	46.200000
2322.723578	43.800000
2324.288386	64.100000
2325.849586	33.900000
2327.413800	60.300000
2328.972752	54.900000
2330.534719	52.300000
2332.094734	36.900000
2333.654455	51.100000
2335.212226	47.300000
2336.769702	47.700000
2338.326884	41.100000
2339.882118	37.400000
2341.437059	56.600000
2342.991705	49.400000
2344.546058	48.100000
2346.100118	53.700000
2347.653883	44.500000
2349.205704	35.500000
2350.755583	61.000000
2352.308469	51.100000
2353.856112	39.200000
2355.406764	35.200000
2356.953824	32.300000
2358.502242	47.400000
2360.050369	42.200000
2361.594907	40.000000
2363.140803	46.700000
2364.684761	40.700000
2366.230076	37.900000
2367.771806	51.700000
2369.314893	52.900000
2370.856044	41.100000
2372.396906	34.700000
2373.937479	29.000000
2375.477763	51.000000
2377.017758	38.600000
2378.554175	53.800000
2380.093593	50.200000
2381.629433	52.200000
2383.166631	38.300000
2384.700253	46.200000
2386.236875	52.500000
2387.771567	59.800000
2389.304329	47.900000
2390.836804	55.700000
2392.367351	45.300000
2393.900896	39.900000
2395.429230	68.200000
2396.958921	44.600000
2398.488325	44.400000
2400.017445	53.800000
2401.546280	36.100000
2403.069909	65.700000
2404.598174	45.100000
2406.121237	35.300000
2407.648933	47.600000
2409.169790	43.400000
2410.695280	54.600000
2412.217209	43.700000
2413.740494	46.100000
2415.261857	62.100000
2416.781301	42.400000
2418.302100	78.900000
2419.820981	64.400000
2421.339579	47.800000
2422.856260	56.600000
2424.374295	49.700000
2425.892049	73.400000
2427.406252	54.500000
2428.920174	38.400000
2430.433816	71.400000
2431.948813	52.800000
2433.460261	60.900000
2434.973064	71.000000
2436.483953	69.200000
2437.994564	57.600000
2439.503263	64.900000
2441.014948	55.800000
2442.523090	53.200000
2444.030954	64.400000
2445.538540	47.600000
2447.042585	52.600000
2448.549615	64.000000
2450.054737	60.800000
2451.559582	67.700000
2453.062520	73.800000
2454.565182	53.700000
2456.067567	58.800000
2457.568047	44.000000
2459.069880	55.100000
2460.569808	63.600000
2462.069461	51.000000
2463.568839	65.100000
2465.066314	50.800000
2466.561887	61.200000
2468.060440	71.300000
2469.555465	58.500000
2471.051842	49.400000
2472.544693	52.200000
2474.038897	56.500000
2475.532827	57.900000
2477.023233	50.800000
2478.516617	35.900000
2480.008103	41.300000
2481.497692	47.700000
2482.987009	42.500000
2484.474430	45.200000
2485.964827	50.500000
2487.451706	48.200000
2488.939936	25.000000
2490.424649	41.500000
2491.909093	55.500000
2493.394887	46.700000
2494.878790	53.100000
2496.364043	47.700000
2497.844163	54.700000
2499.327256	45.900000
2500.808458	56.500000
2502.289391	50.400000
2503.768435	43.700000
2505.247210	41.800000
2506.725717	55.900000
2508.203956	56.000000
2509.681926	36.300000
2511.156391	54.900000
2512.633826	46.700000
2514.107757	62.800000
2515.583038	38.700000
2517.058052	53.400000
2518.529565	43.900000
2520.002429	60.800000
2521.473410	47.500000
2522.945741	39.500000
2524.412958	52.400000
2525.883142	29.000000
2527.351445	48.300000
2528.819483	34.100000
2530.287256	49.900000
2531.754764	55.300000
2533.222007	41.700000
2534.685758	59.800000
2536.150859	67.100000
2537.614083	57.400000
2539.078656	48.000000
2540.539741	47.800000
2542.002175	56.600000
2543.464346	58.700000
2544.923031	45.400000
2546.386287	50.400000
2547.844448	40.100000
2549.303957	63.000000
2550.758372	46.400000
2552.217358	61.400000
2553.674472	55.800000
2555.129715	69.500000
2556.584696	64.500000
2558.037809	36.000000
2559.492270	46.300000
2560.944861	57.000000
2562.397193	56.200000
2563.847658	62.700000
2565.301078	46.500000
2566.749416	55.600000
2568.200709	56.100000
2569.650137	71.400000
2571.096092	57.300000
2572.545002	65.800000
2573.990442	54.100000
2575.437229	65.400000
2576.882154	61.500000
2578.326820	58.100000
2579.772834	40.300000
2581.215382	71.300000
2582.659277	75.300000
2584.099707	56.600000
2585.541484	71.300000
2586.981402	76.000000
2588.422667	59.800000
2589.860470	58.700000
2591.301223	69.900000
2592.736914	70.800000
2594.175554	60.100000
2595.612336	73.100000
2597.047263	75.800000
2598.485137	56.100000
2599.917954	69.300000
2601.352118	54.400000
2602.784428	74.000000
2604.218084	69.400000
2605.649887	70.200000
2607.081436	75.200000
2608.512733	70.400000
2609.942177	60.700000
2611.371369	58.200000
2612.798711	87.500000
2614.227398	79.100000
2615.655834	60.400000
2617.080822	79.700000
2618.507157	82.800000
2619.931643	85.700000
2621.357475	82.500000
2622.779863	82.600000
2624.203597	84.700000
2625.625484	92.100000
2627.047122	93.900000
2628.466914	83.700000
2629.888052	96.300000
2631.308940	98.500000
2632.726390	79.500000
2634.146779	101.400000
2635.563731	86.800000
2636.980434	83.100000
2638.396889	125.900000
2639.813096	113.500000
2641.229055	113.200000
2642.643173	111.300000
2644.057043	110.800000
2645.469075	106.900000
2646.882450	118.900000
2648.292396	112.500000
2649.705278	146.000000
2651.114731	134.400000
2652.523938	126.900000
2653.931309	131.900000
2655.341614	118.100000
2656.750084	129.900000
2658.156718	126.400000
2659.563107	129.100000
2660.967662	137.900000
2662.373561	138.100000
2663.777627	159.300000
2665.181448	149.000000
2666.585025	166.400000
2667.986771	174.700000
2669.389860	156.800000
2670.789531	174.800000
2672.190546	166.200000
2673.588145	173.700000
2674.988674	169.600000
2676.385787	166.800000
2677.784244	181.900000
2679.180874	161.400000
2680.577261	176.800000
2681.973406	173.000000
2683.367725	183.700000
2684.763387	164.800000
2686.155640	176.800000
2687.549235	192.100000
2688.941006	189.600000
2690.334120	189.700000
2691.725410	191.900000
2693.114877	172.200000
2694.504104	163.900000
2695.893092	172.600000
2697.283421	169.800000
2698.668767	170.700000
2700.057036	179.500000
2701.443485	170.900000
2702.829695	154.000000
2704.215666	156.400000
2705.598239	149.700000
2706.982154	154.700000
2708.365831	161.500000
2709.749269	128.500000
2711.129313	167.100000
2712.510697	128.000000
2713.890267	133.400000
2715.271177	133.500000
2716.650273	126.300000
2718.027555	117.300000
2719.406178	113.500000
2720.782988	134.000000
2722.159561	138.100000
2723.535899	118.900000
2724.910426	97.700000
2726.286293	92.800000
2727.658773	102.100000
2729.034169	91.500000
2730.404605	95.400000
2731.776382	109.200000
2733.147924	99.000000
2734.517658	78.000000
2735.888733	97.100000
2737.257999	70.400000
2738.627032	88.400000
2739.994259	102.100000
2741.361252	85.500000
2742.728013	85.200000
2744.094542	50.600000
2745.459265	67.700000
2746.823756	73.800000
2748.188016	47.000000
2749.552043	77.700000
2750.915839	75.400000
2752.276261	69.100000
2753.639593	67.500000
2754.997983	70.400000
2756.359283	50.800000
2757.717213	70.700000
2759.078051	81.300000
2760.437090	62.300000
2761.792760	65.200000
2763.151338	60.000000
2764.506549	64.700000
2765.861531	53.000000
2767.214717	47.900000
2768.570809	49.900000
2769.923536	49.500000
2771.276036	49.600000
2772.628307	64.500000
2773.981916	70.400000
2775.332165	55.100000
2776.680619	63.900000
2778.031979	69.700000
2779.379979	58.500000
2780.729317	48.300000
2782.076863	55.000000
2783.424183	60.700000
2784.771276	42.100000
2786.116578	41.000000
2787.461653	44.300000
2788.806503	59.800000
2790.151127	48.800000
2791.492399	84.800000
2792.835009	47.600000
2794.177393	50.700000
2795.519552	49.300000
2796.858362	58.800000
2798.200072	67.900000
2799.538434	41.400000
2800.878132	43.200000
2802.216046	45.300000
2803.552175	52.800000
2804.888080	64.200000
2806.225323	53.100000
2807.560782	50.000000
2808.896018	59.900000
2810.229471	51.700000
2811.564261	47.200000
2812.895711	51.500000
2814.230056	49.100000
2815.559503	62.700000
2816.890287	54.300000
2818.220849	54.800000
2819.549632	40.500000
2820.879751	64.200000
2822.208092	45.500000
2823.536212	38.400000
2824.862554	41.200000
2826.190233	35.300000
2827.514578	48.500000
2828.840260	38.200000
2830.164166	45.700000
2831.487853	46.300000
2832.812875	36.100000
2834.134567	40.900000
2835.456041	47.500000
2836.777296	40.700000
2838.098332	32.800000
2839.417595	57.700000
2840.738194	44.500000
2842.057022	45.700000
2843.375631	44.700000
2844.692469	39.800000
2846.009090	45.700000
2847.325494	30.000000
2848.640128	39.300000
2849.956098	67.200000
2851.268747	46.000000
2852.582731	40.200000
2853.896499	63.700000
2855.210050	40.100000
2856.521835	50.000000
2857.831853	34.700000
2859.143206	43.500000
2860.451244	54.300000
2861.760616	46.400000
2863.069774	48.900000
2864.378716	43.500000
2865.685894	44.900000
2866.991310	51.800000
2868.298060	62.500000
2869.603047	57.900000
2870.907821	31.400000
2872.210833	29.300000
2873.516726	43.400000
2874.817765	60.900000
2876.120138	61.400000
2877.420751	47.200000
2878.722698	59.400000
2880.024431	51.900000
2881.322861	58.000000
2882.622624	69.600000
2883.920630	35.200000
2885.218424	38.300000
2886.514462	63.500000
2887.811833	44.300000
2889.107448	35.800000
2890.402852	24.800000
2891.698045	37.100000
2892.989941	41.100000
2894.284713	49.400000
2895.576188	39.600000
2896.868996	38.300000
2898.161594	48.700000
2899.450898	41.300000
2900.741534	33.300000
2902.030419	42.200000
2903.320636	43.600000
2904.607562	36.000000
2905.895820	34.500000
2907.182329	51.200000
2908.468629	28.400000
2909.754722	47.100000
2911.039066	41.100000
2912.326281	49.400000
2913.608670	45.200000
2914.892391	32.200000
2916.174366	35.200000
2917.456133	38.600000
2918.736156	47.000000
2920.019048	40.500000
2921.300195	44.200000
2922.578060	47.100000
2923.858794	48.800000
2925.136247	47.900000
2926.413494	59.400000
2927.688999	36.200000
2928.967372	61.700000
2930.240931	62.600000
2931.517357	57.600000
2932.792042	43.600000
2934.064986	48.800000
2935.339262	42.100000
2936.611798	43.300000
2937.884129	36.700000
2939.153188	43.600000
2940.425112	49.500000
2941.695298	39.800000
2942.965280	36.400000
2944.235059	39.900000
2945.503102	36.900000
2946.769408	39.300000
2948.035513	38.200000
2949.302947	44.500000
2950.568647	32.800000
2951.834144	40.200000
2953.099439	44.600000
2954.361469	40.800000
2955.624829	45.500000
2956.887988	64.700000
2958.149415	34.700000
2959.412171	50.500000
2960.673195	38.000000
2961.932489	52.500000
2963.191583	46.200000
2964.450476	32.200000
2965.709169	37.600000
2966.967662	40.200000
2968.224426	45.300000
2969.480990	49.800000
2970.735827	31.900000
2971.991992	31.700000
2973.244903	43.400000
2974.499143	60.200000
2975.753184	32.200000
2977.005499	34.300000
2978.257615	47.400000
2979.508007	49.300000
2980.761254	45.600000
2982.009724	29.900000
2983.261049	56.600000
2984.509124	35.200000
2985.757003	30.600000
2987.004684	32.500000
2988.252168	38.400000
2989.497931	26.700000
2990.743498	29.600000
2991.990392	37.300000
2993.234042	47.600000
2994.479020	37.700000
2995.720754	34.000000
2996.965340	50.900000
2998.208207	40.600000
2999.447833	53.300000
3000.690309	49.700000
3001.929545	52.800000
3003.170109	37.800000
3004.408957	44.000000
3005.647609	40.900000
3006.884546	45.800000
3008.122811	45.200000
3009.359360	43.800000
3010.595716	43.600000
3011.831878	39.500000
3013.066326	38.200000
3014.300582	41.000000
3015.534644	43.900000
3016.766994	24.800000
3017.997632	47.200000
3019.231116	34.600000
3020.462888	45.200000
3021.692950	24.200000
3022.922819	29.600000
3024.150980	47.600000
3025.380466	41.800000
3026.608243	32.600000
3027.835829	52.700000
3029.064742	49.500000
3030.288912	28.200000
3031.515925	54.400000
3032.739714	38.800000
3033.964830	16.500000
3035.188239	25.300000
3036.411458	45.400000
3037.632972	46.900000
3038.857327	39.400000
3040.076947	30.700000
3041.297893	35.500000
3042.518650	39.700000
3043.737703	40.100000
3044.958081	52.700000
3046.175243	21.800000
3047.393731	27.300000
3048.610516	32.500000
3049.827114	29.500000
3051.043523	41.300000
3052.256720	40.100000
3053.472754	30.700000
3054.685576	46.200000
3055.901235	32.000000
3057.112171	16.900000
3058.324432	39.800000
3059.536507	30.000000
3060.748394	32.400000
3061.958585	51.800000
3063.168589	27.300000
3064.378407	42.300000
3065.586529	25.000000
3066.794466	44.200000
3068.000707	32.500000
3069.208273	37.000000
3070.414144	30.750000
3071.619831	24.500000
3072.825332	43.600000
3074.029140	48.900000
3075.234272	26.900000
3076.437711	15.200000
3077.639459	47.300000
3078.841022	45.700000
3080.042402	39.900000
3081.243598	29.400000
3082.443104	37.400000
3083.642427	30.900000
3084.843073	31.900000
3086.042029	33.500000
3087.237791	36.800000
3088.436382	19.300000
3089.631779	38.400000
3090.828499	26.400000
3092.022027	40.900000
3093.218383	35.800000
3094.413053	33.900000
3095.604532	32.900000
3096.800342	41.400000
3097.991458	42.900000
3099.183898	27.300000
3100.373150	38.900000
3101.565227	32.700000
3102.755621	47.100000
3103.942829	33.300000
3105.131360	38.900000
3106.321212	50.800000
3107.507881	37.000000
3108.694369	53.000000
3109.880679	43.100000
3111.068310	26.400000
3112.252759	53.400000
3113.435529	24.000000
3114.621121	29.700000
3115.805034	42.000000
3116.987268	38.300000
3118.169323	43.900000
3119.351200	37.100000
3120.532899	38.200000
3121.712921	32.300000
3122.891266	38.700000
3124.072431	38.500000
3125.250421	48.500000
3126.428235	44.200000
3127.605871	40.900000
3128.781832	36.500000
3129.957616	34.300000
3131.134722	42.100000
3132.310153	39.600000
3133.483911	40.600000
3134.655996	48.200000
3135.829403	30.600000
3137.002633	37.100000
3138.174192	58.100000
3139.347071	54.200000
3140.516783	46.800000
3141.687816	46.300000
3142.857179	36.200000
3144.024871	39.500000
3145.195379	29.600000
3146.361229	35.000000
3147.531387	51.500000
3148.696889	22.300000
3149.862216	34.000000
3151.027370	42.900000
3152.192351	39.400000
3153.358651	45.900000
3154.520299	47.500000
3155.683266	30.400000
3156.846061	34.900000
3158.008683	25.400000
3159.169640	35.800000
3160.330424	42.400000
3161.491036	41.700000
3162.649984	35.600000
3163.808761	30.200000
3164.967366	29.300000
3166.125798	33.200000
3167.284060	20.900000
3168.440659	17.500000
3169.595597	29.400000
3170.751854	43.800000
3171.906450	39.100000
3173.060876	25.300000
3174.213642	30.400000
3175.366237	36.300000
3176.518663	45.700000
3177.670919	20.600000
3178.823004	36.800000
3179.971944	31.500000
3181.123690	28.500000
3182.273778	30.700000
3183.422210	34.600000
3184.570472	35.700000
3185.718566	28.400000
3186.866491	42.800000
3188.012760	24.900000
3189.158861	37.500000
3190.303308	37.300000
3191.447587	35.900000
3192.591698	34.200000
3193.737126	51.700000
3194.879416	50.500000
3196.021539	44.800000
3197.163494	11.100000
3198.305282	47.200000
3199.446903	26.300000
3200.585389	37.900000
3201.725192	22.700000
3202.866313	40.300000
3204.004299	45.400000
3205.140636	37.700000
3206.276807	37.800000
3207.414295	29.400000
3208.550135	29.400000
3209.687292	41.100000
3210.819836	35.400000
3211.956662	35.300000
3213.088876	42.300000
3214.222407	52.200000
3215.355774	32.000000
3216.486013	35.500000
3217.619050	21.000000
3218.748961	15.700000
3219.880188	41.500000
3221.008291	25.700000
3222.139190	21.300000
3223.268445	42.200000
3224.396057	30.200000
3225.520546	37.500000
3226.649311	46.600000
3227.774954	22.900000
3228.900435	51.600000
3230.024274	41.500000
3231.150907	29.600000
3232.272943	48.700000
3233.396295	42.800000
3234.519485	35.000000
3235.642512	32.500000
3236.763901	42.000000
3237.885127	37.900000
3239.004716	28.100000
3240.124143	35.600000
3241.241932	30.500000
3242.362513	18.500000
3243.479981	25.800000
3244.597288	37.300000
3245.714435	27.400000
3246.829946	37.700000
3247.946771	32.600000
3249.060487	42.000000
3250.176992	41.900000
3251.291863	26.700000
3252.403625	36.600000
3253.515227	20.200000
3254.628145	16.400000
3255.740903	39.000000
3256.850555	32.600000
3257.961522	30.400000
3259.072330	30.100000
3260.181506	19.900000
3261.289052	23.300000
3262.397911	39.400000
3263.506613	15.700000
3264.612212	25.500000
3265.719125	28.100000
3266.824409	14.500000
3267.931007	34.100000
3269.034505	39.700000
3270.139318	39.600000
3271.243973	28.200000
3272.345529	31.200000
3273.446929	13.300000
3274.549643	28.100000
3275.652201	33.400000
3276.751662	26.100000
3277.853907	24.600000
3278.953056	30.400000
3280.050581	46.500000
3281.147950	28.300000
3282.248101	32.700000
3283.345160	29.000000
3284.442063	31.400000
3285.538811	23.200000
3286.631001	13.000000
3287.727439	46.300000
3288.822255	42.700000
3289.916917	13.600000
3291.009957	44.300000
3292.102842	26.100000
3293.194108	34.900000
3294.286685	36.600000
3295.377643	21.200000
3296.466981	16.600000
3297.556166	44.200000
3298.646664	44.200000
3299.734077	31.900000
3300.821337	41.300000
3301.909910	42.600000
3302.998331	24.300000
3304.082204	16.700000
3305.170319	22.600000
3306.255352	11.800000
3307.338770	35.400000
3308.423500	23.000000
3309.506614	22.200000
3310.591041	32.100000
3311.672389	35.800000
3312.755049	32.400000
3313.836095	28.500000
3314.916990	32.100000
3315.996271	36.100000
3317.075402	18.200000
3318.155845	24.200000
3319.233213	39.200000
3320.311893	24.400000
3321.388961	28.100000
3322.465880	26.300000
3323.541187	21.400000
3324.616345	23.400000
3325.692814	38.500000
3326.766213	26.100000
3327.839463	36.500000
3328.914023	25.300000
3329.986975	37.800000
3331.058318	24.400000
3332.130972	31.700000
3333.200560	34.300000
3334.271458	38.400000
3335.340749	30.100000
3336.411351	21.900000
3337.480346	28.300000
3338.547735	33.400000
3339.613519	8.600000
3340.683529	33.400000
3341.750476	32.400000
3342.814361	52.600000
3343.881014	22.900000
3344.946062	14.600000
3346.009507	31.600000
3347.072806	50.700000
3348.135958	24.400000
3349.198964	26.300000
3350.261824	25.400000
3351.323082	33.800000
3352.381283	32.700000
3353.443704	41.600000
3354.503070	32.600000
3355.562290	14.500000
3356.622820	38.200000
3357.678840	44.900000
3358.737624	39.700000
3359.791901	39.300000
3360.848942	30.800000
3361.904384	21.000000
3362.961136	33.400000
3364.016289	32.200000
3365.069845	40.100000
3366.121805	43.900000
3367.176526	32.200000
3368.228198	40.700000
3369.279727	23.300000
3370.332564	21.100000
3371.382354	49.300000
3372.433453	41.000000
3373.481506	37.000000
3374.532318	31.700000
3375.580086	30.700000
3376.627711	30.300000
3377.675193	36.100000
3378.721083	31.900000
3379.768281	33.900000
3380.812437	34.600000
3381.859351	29.500000
3382.904673	32.600000
3383.946954	19.800000
3384.989095	29.000000
3386.032543	16.400000
3387.075850	28.700000
3388.117568	31.400000
3389.159144	28.200000
3390.200579	38.500000
3391.240426	26.300000
3392.278684	36.900000
3393.318250	24.200000
3394.357676	12.300000
3395.395514	14.600000
3396.431765	43.600000
3397.467877	30.900000
3398.505296	8.400000
3399.539682	41.400000
3400.575375	29.500000
3401.610929	3.500000
3402.643452	26.500000
3403.678728	29.000000
3404.710973	20.900000
3405.743080	34.400000
3406.773603	22.500000
3407.805433	25.000000
3408.837125	30.500000
3409.865789	29.200000
3410.894316	21.700000
3411.924149	36.500000
3412.953845	29.500000
3413.980515	36.800000
3415.008492	27.800000
3416.033444	20.000000
3417.061146	30.500000
3418.085825	36.400000
3419.111810	22.100000
3420.136215	24.300000
3421.160484	9.300000
3422.183174	27.100000
3423.205728	30.500000
3424.229588	9.800000
3425.250428	30.800000
3426.271132	21.400000
3427.293143	30.900000
3428.312135	26.200000
3429.330991	30.400000
3430.351154	33.600000
3431.368300	20.600000
