-117.888313	2.600000
-115.218713	0.300000
-112.552048	17.100000
-109.886135	-2.700000
-107.223154	15.700000
-104.558744	-6.100000
-101.897264	12.000000
-99.234355	2.200000
-96.576552	14.400000
-93.917320	-2.400000
-91.258836	15.200000
-88.603276	23.100000
-85.946288	-8.200000
-83.294398	2.000000
-80.641078	3.500000
-77.990677	-3.500000
-75.338847	0.300000
-72.692108	13.300000
-70.043940	-2.000000
-67.396514	3.300000
-64.752002	-2.400000
-62.106062	-1.300000
-59.465203	-4.300000
-56.822915	3.000000
-54.183536	5.700000
-51.542727	-9.000000
-48.902659	11.700000
-46.267663	2.300000
-43.631239	-5.600000
-40.997717	8.400000
-38.362767	-2.800000
-35.732882	-10.300000
-33.099405	-2.100000
-30.470990	-16.000000
-27.843309	1.100000
-25.214199	5.700000
-22.590146	-9.900000
-19.962504	-5.000000
-17.339915	3.200000
-14.718058	1.100000
-12.096931	18.200000
-9.476534	64.300000
-6.859026	182.000000
-4.240089	493.600000
-1.624037	1218.700000
0.991286	1426.100000
3.605882	907.700000
6.217595	98.200000
8.830737	12.600000
11.438845	0.500000
14.050535	6.500000
16.657194	-13.600000
19.265281	6.400000
21.872644	8.800000
24.474982	11.000000
27.080898	-9.100000
29.681792	-0.300000
32.284114	-6.700000
34.881419	-3.400000
37.482299	2.000000
40.078164	-1.400000
42.675458	-6.700000
45.272032	-9.700000
47.863597	-9.000000
50.456590	4.400000
53.046722	-1.700000
55.638282	-2.500000
58.226982	6.800000
60.817109	-1.800000
63.402237	8.400000
65.988793	8.000000
68.574635	-8.300000
71.157623	1.200000
73.742037	4.500000
76.319323	4.400000
78.900175	-3.400000
81.478178	0.300000
84.055471	-15.800000
86.634190	6.000000
89.207927	7.600000
91.783092	11.200000
94.355413	2.800000
96.927026	-1.600000
99.495799	-10.000000
102.065999	-8.600000
104.633361	-24.900000
107.202148	-3.400000
109.768099	-15.300000
112.331215	-4.400000
114.897887	-5.900000
117.455338	3.000000
120.018474	-3.600000
122.576650	5.700000
125.138381	2.200000
127.695155	-0.300000
130.253356	21.200000
132.806603	25.200000
135.359153	41.900000
137.915253	52.900000
140.466405	52.900000
143.016860	83.100000
145.566617	74.400000
148.113555	88.700000
150.659798	85.100000
153.207466	117.500000
155.754438	106.900000
158.296475	98.300000
160.837818	106.200000
163.378468	87.500000
165.920544	82.600000
168.459808	87.800000
170.996264	100.800000
173.532028	92.000000
176.069218	82.500000
178.605717	91.300000
181.139410	82.300000
183.670299	90.000000
186.200501	94.400000
188.732127	97.700000
191.260952	88.700000
193.786978	84.600000
196.312318	103.200000
198.839083	88.300000
201.363052	87.200000
203.886336	85.900000
206.408935	84.900000
208.928741	92.800000
211.447864	87.500000
213.966304	109.900000
216.486168	83.400000
218.999031	96.900000
221.515425	85.000000
224.031137	82.700000
226.541959	97.000000
229.054206	96.500000
231.563671	82.200000
234.072457	100.000000
236.580564	94.000000
239.090096	100.400000
241.594747	100.200000
244.098722	96.700000
246.604121	97.200000
249.104645	102.900000
251.608693	93.600000
254.105769	105.700000
256.606369	89.900000
259.104197	122.800000
261.601352	98.100000
264.097834	76.700000
266.589453	107.500000
269.084592	105.100000
271.576964	106.900000
274.068666	88.900000
276.557605	105.600000
279.047968	110.600000
281.535568	102.000000
284.020409	93.800000
286.508765	82.400000
288.990181	104.100000
291.475111	101.600000
293.955196	100.300000
296.438793	93.900000
298.917547	105.600000
301.397725	105.700000
303.875150	97.800000
306.351912	113.600000
308.828011	104.800000
311.301361	94.300000
313.774049	97.900000
316.246076	112.900000
318.717442	133.300000
321.186063	129.400000
323.654026	132.300000
326.123410	119.700000
328.587972	117.900000
331.056038	103.000000
333.519284	124.000000
335.981872	119.600000
338.443804	98.100000
340.905079	114.900000
343.363620	95.200000
345.823583	104.500000
348.280813	110.800000
350.737389	120.300000
353.193311	114.500000
355.646503	97.700000
358.101118	120.200000
360.550931	119.300000
363.004240	110.400000
365.452751	109.200000
367.900610	118.800000
370.349892	106.400000
372.794380	116.100000
375.240290	100.200000
377.685550	105.900000
380.128092	98.300000
382.569986	109.000000
385.011233	118.200000
387.449764	116.000000
389.889717	110.600000
392.326956	110.200000
394.761483	89.200000
397.199498	105.700000
399.632736	108.300000
402.067395	81.600000
404.497282	97.600000
406.930654	117.700000
409.359256	128.000000
411.787216	117.000000
414.216598	97.300000
416.641214	119.600000
419.067252	113.100000
421.492649	97.000000
423.917406	114.100000
426.337405	114.000000
428.758825	123.900000
431.177548	117.400000
433.597692	88.500000
436.015141	103.100000
438.434010	113.000000
440.850186	108.000000
443.261614	102.300000
445.676520	96.700000
448.088735	110.700000
450.500316	101.800000
452.911263	95.000000
455.319524	114.900000
457.727152	109.600000
460.134148	118.500000
462.540513	117.100000
464.944195	94.500000
467.347247	84.100000
469.749669	102.300000
472.151461	82.600000
474.550576	107.800000
476.951110	111.800000
479.351015	99.000000
481.746197	106.400000
484.144846	119.600000
486.538775	108.800000
488.932078	91.900000
491.324755	96.300000
493.716807	96.000000
496.110277	106.900000
498.499035	95.800000
500.885127	78.200000
503.272639	71.600000
505.659528	88.400000
508.043753	76.700000
510.429396	72.900000
512.812378	74.200000
515.192699	69.700000
517.574439	77.200000
519.953520	64.900000
522.334020	62.300000
524.711862	63.800000
527.087049	73.400000
529.461618	64.000000
531.837605	53.500000
534.210940	54.700000
536.585692	72.700000
538.955759	53.500000
541.325210	82.000000
543.696079	61.200000
546.062268	54.900000
548.429875	70.500000
550.794836	60.600000
553.159184	60.100000
555.522919	54.800000
557.888072	70.700000
560.248553	74.000000
562.610452	53.000000
564.969710	61.700000
567.326331	75.300000
569.686396	44.600000
572.039770	41.800000
574.396589	67.100000
576.750773	47.500000
579.104349	53.800000
581.457316	56.600000
583.807651	72.800000
586.159404	57.800000
588.504480	56.000000
590.855020	63.900000
593.198886	51.600000
595.548214	65.000000
597.892893	56.100000
600.234948	59.200000
602.578420	61.500000
604.919269	65.900000
607.259516	53.400000
609.597142	51.000000
611.938203	57.600000
614.274626	48.900000
616.612466	57.100000
618.947689	49.400000
621.280296	69.700000
623.614319	59.200000
625.945728	62.300000
628.276539	58.600000
630.606753	55.300000
632.936368	36.800000
635.261360	40.000000
637.591794	54.300000
639.917607	59.100000
642.240812	52.200000
644.565434	61.500000
646.887450	39.300000
649.208872	49.100000
651.527692	44.500000
653.847927	64.200000
656.167569	44.900000
658.484610	55.300000
660.801059	55.000000
663.114910	41.400000
665.430177	59.400000
667.742847	30.800000
670.056932	54.300000
672.366417	60.700000
674.677318	53.200000
676.985626	55.200000
679.293346	39.600000
681.602480	73.400000
683.907022	52.400000
686.210978	51.300000
688.514348	47.300000
690.819132	49.600000
693.119330	58.100000
695.420942	56.700000
697.721970	46.500000
700.018415	44.200000
702.316276	52.300000
704.613553	45.400000
706.910247	35.900000
709.202365	42.500000
711.497894	27.300000
713.788849	34.400000
716.081219	55.400000
718.371014	39.700000
720.660228	47.200000
722.948863	48.200000
725.234925	59.500000
727.522402	36.400000
729.807307	47.400000
732.091635	54.900000
734.373394	46.900000
736.656567	57.600000
738.939163	48.000000
741.217203	64.500000
743.496658	36.700000
745.775536	47.700000
748.053840	44.400000
750.327594	65.200000
752.602761	54.500000
754.877355	50.800000
757.149390	43.000000
759.422838	48.900000
761.693728	54.200000
763.962062	61.800000
766.231809	50.200000
768.499002	36.100000
770.765624	47.300000
773.031676	51.500000
775.295177	41.700000
777.560091	40.500000
779.824435	58.700000
782.084250	49.100000
784.345477	40.200000
786.606137	53.300000
788.864251	37.800000
791.119820	40.900000
793.378780	56.400000
795.631241	54.000000
797.889068	30.200000
800.142377	43.400000
802.393146	41.500000
804.645327	59.100000
806.894969	55.300000
809.146024	47.100000
811.392567	37.900000
813.640522	56.100000
815.885943	60.000000
818.132775	46.800000
820.379046	32.200000
822.620812	50.800000
824.865962	29.700000
827.104639	40.500000
829.346698	44.900000
831.584259	33.300000
833.823232	42.400000
836.059678	66.700000
838.297535	43.200000
840.532867	45.000000
842.765676	48.800000
844.999896	41.900000
847.231593	33.800000
849.462736	31.900000
851.693324	41.600000
853.923358	40.400000
856.152838	27.000000
858.377836	58.300000
860.606209	31.700000
862.830102	31.700000
865.055407	27.200000
867.276236	41.800000
869.500437	40.400000
871.720165	46.500000
873.941303	49.400000
876.161891	42.000000
878.379970	51.600000
880.599458	43.900000
882.814480	40.200000
885.028955	54.700000
887.242881	38.600000
889.456261	45.500000
891.669093	63.200000
893.881379	28.600000
896.091162	42.100000
898.300400	65.000000
900.509093	27.600000
902.715287	51.500000
904.922890	45.600000
907.127995	59.600000
909.332557	48.600000
911.534624	39.600000
913.738100	43.800000
915.939082	49.000000
918.139522	56.200000
920.341371	46.200000
922.536829	58.700000
924.735646	36.900000
926.930024	53.800000
929.127760	47.200000
931.321060	31.900000
933.515769	31.800000
935.707992	49.600000
937.899676	52.800000
940.090823	38.000000
942.279487	48.700000
944.467615	43.900000
946.653262	50.900000
948.842261	44.100000
951.026837	55.500000
953.210878	40.300000
955.398269	41.500000
957.577356	56.200000
959.759794	49.500000
961.941698	47.100000
964.121127	60.300000
966.298084	33.900000
968.476449	61.900000
970.656221	47.600000
972.829644	46.600000
975.006413	48.900000
977.178775	45.800000
979.352545	55.900000
981.521911	55.900000
983.694621	68.500000
985.864866	45.200000
988.034582	60.700000
990.203769	74.800000
992.368559	54.800000
994.536690	66.600000
996.700427	44.100000
998.865570	58.900000
1001.028254	45.700000
1003.190413	73.500000
1005.350115	49.400000
1007.509292	60.100000
1009.669876	54.900000
1011.828006	54.800000
1013.985611	68.100000
1016.142693	71.300000
1018.299251	56.800000
1020.451430	67.800000
1022.605016	88.500000
1024.758080	80.900000
1026.908695	73.400000
1029.060717	73.500000
1031.208365	58.400000
1033.359345	73.000000
1035.505954	67.900000
1037.652044	64.200000
1039.797616	63.300000
1041.944593	90.800000
1044.085281	64.800000
1046.229299	65.600000
1048.370876	77.400000
1050.511937	58.100000
1052.654402	61.600000
1054.790588	81.100000
1056.930099	81.500000
1059.065256	51.500000
1061.203737	77.300000
1063.337864	76.900000
1065.471478	90.500000
1067.606497	66.200000
1069.737166	84.700000
1071.869240	79.400000
1073.998885	64.700000
1076.128018	66.500000
1078.256639	61.800000
1080.384749	68.700000
1082.510433	61.700000
1084.635607	68.100000
1086.762185	55.200000
1088.884425	75.400000
1091.008070	65.100000
1093.127380	69.400000
1095.251920	82.300000
1097.370214	70.000000
1099.489913	69.900000
1101.607193	71.200000
1103.723967	52.100000
1105.840234	50.400000
1107.954085	67.900000
1110.069341	58.700000
1112.180273	47.300000
1114.294518	68.800000
1116.404442	63.900000
1118.515770	63.600000
1120.626593	46.000000
1122.733100	71.900000
1124.842917	66.700000
1126.948419	58.700000
1129.055324	49.900000
1131.156014	49.200000
1133.261916	65.800000
1135.363509	68.800000
1137.466505	47.500000
1139.569000	66.300000
1141.665288	70.400000
1143.766784	72.200000
1145.863976	61.400000
1147.960671	65.400000
1150.056867	47.600000
1152.152566	55.200000
1154.247766	57.600000
1156.340570	65.100000
1158.434777	59.200000
1160.522792	30.600000
1162.616005	70.900000
1164.703030	57.600000
1166.793354	57.300000
1168.879391	60.900000
1170.968725	49.400000
1173.051878	71.400000
1175.136433	49.900000
1177.222390	73.800000
1179.304065	74.600000
1181.387142	67.400000
1183.467833	57.600000
1185.548032	81.400000
1187.627740	35.900000
1189.706957	59.800000
1191.783792	35.000000
1193.858246	56.100000
1195.935991	58.100000
1198.009467	52.100000
1200.084343	64.500000
1202.154952	75.200000
1204.226962	49.300000
1206.296597	46.500000
1208.367632	56.500000
1210.438179	62.500000
1212.504465	53.400000
1214.572152	57.100000
1216.637467	54.900000
1218.704182	57.800000
1220.766641	66.100000
1222.832385	70.100000
1224.893875	66.100000
1226.956766	58.600000
1229.017289	60.300000
1231.077328	62.100000
1233.136885	51.600000
1235.194076	68.900000
1237.250786	66.900000
1239.305132	53.100000
1241.362760	65.400000
1243.418025	43.800000
1245.469049	45.700000
1247.521473	40.400000
1249.573417	70.500000
1251.623003	59.100000
1253.672110	86.000000
1255.720739	62.300000
1257.768889	76.000000
1259.816560	74.300000
1261.860001	54.500000
1263.906718	50.900000
1265.951081	72.700000
1267.994968	69.100000
1270.036503	60.000000
1272.075689	78.800000
1274.118148	60.700000
1276.156384	74.500000
1278.196019	72.300000
1280.235179	79.500000
1282.270120	73.500000
1284.306460	58.200000
1286.340456	84.400000
1288.375849	84.200000
1290.407030	92.300000
1292.439608	77.500000
1294.471715	80.800000
1296.501481	73.100000
1298.532645	71.300000
1300.559601	63.700000
1302.587955	63.200000
1304.612104	76.600000
1306.639519	97.900000
1308.662731	78.200000
1310.687341	64.300000
1312.709617	82.100000
1314.733290	93.200000
1316.754630	81.200000
1318.775502	97.300000
1320.795907	103.800000
1322.812119	100.800000
1324.829728	97.900000
1326.845009	106.100000
1328.863549	110.800000
1330.877900	102.200000
1332.889925	107.200000
1334.905207	113.600000
1336.916304	112.600000
1338.928798	115.100000
1340.937109	128.700000
1342.948675	119.500000
1344.954203	128.000000
1346.962986	123.400000
1348.967591	122.000000
1350.975450	104.700000
1352.982847	128.100000
1354.984213	123.400000
1356.986975	111.900000
1358.989278	104.700000
1360.991121	114.000000
1362.992504	101.100000
1364.991574	106.300000
1366.990185	107.300000
1368.988338	96.700000
1370.986032	65.600000
1372.979564	94.500000
1374.974491	97.200000
1376.968962	91.200000
1378.962976	86.900000
1380.954683	78.700000
1382.945935	89.800000
1384.934881	80.400000
1386.925222	73.400000
1388.915108	76.200000
1390.902690	75.200000
1392.889819	59.200000
1394.874646	64.200000
1396.860868	78.400000
1398.844790	64.900000
1400.828259	67.500000
1402.811275	64.500000
1404.791994	88.900000
1406.774107	83.500000
1408.753924	69.900000
1410.733289	67.800000
1412.708516	76.300000
1414.686981	58.600000
1416.663153	77.900000
1418.638876	70.200000
1420.614149	80.100000
1422.587131	62.300000
1424.559665	80.600000
1426.531751	63.500000
1428.503390	82.200000
1430.470900	74.200000
1432.443484	76.900000
1434.408262	49.900000
1436.378113	75.500000
1438.343840	56.500000
1440.310959	68.100000
1442.275795	56.400000
1444.236511	62.200000
1446.202295	63.600000
1448.162124	70.100000
1450.123347	69.700000
1452.085962	72.300000
1454.044462	63.200000
1456.002519	77.100000
1457.960135	78.800000
1459.917308	77.800000
1461.872206	58.400000
1463.828497	47.600000
1465.782513	58.300000
1467.736088	70.700000
1469.687391	67.300000
1471.640087	73.600000
1473.590510	67.300000
1475.540495	78.700000
1477.490041	72.200000
1479.437318	76.800000
1481.382327	68.300000
1483.328729	68.500000
1485.274693	73.800000
1487.220220	81.600000
1489.163481	77.400000
1491.106307	74.600000
1493.046869	73.000000
1494.988822	70.800000
1496.928513	71.400000
1498.867770	80.900000
1500.806591	79.000000
1502.743153	82.900000
1504.681106	92.800000
1506.616800	78.700000
1508.552061	80.600000
1510.485066	90.000000
1512.417638	97.800000
1514.349778	85.600000
1516.281486	86.900000
1518.210940	91.500000
1520.141785	96.500000
1522.072198	99.600000
1523.998539	89.300000
1525.926271	95.600000
1527.851752	93.500000
1529.776804	117.400000
1531.701427	91.600000
1533.625621	104.100000
1535.547567	104.100000
1537.470904	105.900000
1539.391994	117.900000
1541.310840	132.200000
1543.231076	125.500000
1545.149069	151.200000
1547.066635	167.400000
1548.981959	188.800000
1550.898673	202.400000
1552.811332	236.500000
1554.727195	260.000000
1556.640818	304.300000
1558.552203	325.200000
1560.464978	372.000000
1562.373703	424.600000
1564.283817	472.600000
1566.193508	493.900000
1568.102776	522.800000
1570.009810	537.800000
1571.914611	565.200000
1573.820801	553.700000
1575.724759	534.100000
1577.628296	463.600000
1579.531413	428.000000
1581.432300	374.300000
1583.334576	318.200000
1585.234624	275.700000
1587.136059	237.000000
1589.033461	239.100000
1590.930444	206.600000
1592.827009	160.900000
1594.724962	173.200000
1596.617080	150.500000
1598.512391	166.200000
1600.407285	140.400000
1602.299957	124.700000
1604.192212	134.600000
1606.082248	115.500000
1607.971868	112.800000
1609.861073	97.500000
1611.749863	123.900000
1613.636435	112.400000
1615.524395	114.400000
1617.408338	120.600000
1619.293668	96.300000
1621.178585	93.400000
1623.061288	88.900000
1624.945378	89.500000
1626.825456	87.200000
1628.706922	57.400000
1630.586177	58.800000
1632.466818	67.400000
1634.341655	75.800000
1636.221473	69.400000
1638.097287	70.000000
1639.972690	81.200000
1641.849479	40.700000
1643.720472	65.700000
1645.594646	78.100000
1647.464821	64.400000
1649.338178	51.400000
1651.209331	62.400000
1653.078282	60.500000
1654.948618	67.100000
1656.814962	58.400000
1658.682691	44.200000
1660.548221	63.200000
1662.415137	62.700000
1664.278064	63.200000
1666.142376	61.900000
1668.004492	58.100000
1669.866203	46.000000
1671.729300	51.800000
1673.590201	67.900000
1675.448910	40.700000
1677.307215	46.700000
1679.166905	50.900000
1681.020827	51.500000
1682.877923	50.000000
1684.734616	41.800000
1686.587332	65.000000
1688.443220	57.400000
1690.295134	40.200000
1692.146647	35.200000
1693.997759	34.600000
1695.848471	59.400000
1697.698782	44.700000
1699.546908	49.600000
1701.396419	50.400000
1703.240181	68.800000
1705.088892	36.500000
1706.931857	47.000000
1708.777989	45.100000
1710.620158	58.900000
1712.465493	50.800000
1714.305087	45.700000
1716.146065	47.800000
1717.988426	46.600000
1719.826831	35.300000
1721.666619	53.900000
1723.504232	55.000000
1725.341449	54.600000
1727.176493	42.200000
1729.012920	48.100000
1730.847175	62.500000
1732.681035	42.700000
1734.514501	40.900000
1736.344022	42.100000
1738.176701	42.400000
1740.005436	32.500000
1741.837328	44.700000
1743.665278	48.400000
1745.492837	50.800000
1747.320003	49.700000
1749.146778	31.800000
1750.973161	58.700000
1752.795608	50.100000
1754.621210	68.900000
1756.442877	26.600000
1758.265926	47.100000
1760.086813	33.900000
1761.907312	45.200000
1763.729191	28.900000
1765.545372	48.600000
1767.364704	44.800000
1769.180109	32.800000
1770.998664	29.200000
1772.813294	40.400000
1774.627537	32.100000
1776.441394	34.700000
1778.254864	40.000000
1780.066181	39.900000
1781.878878	45.900000
1783.691190	41.500000
1785.499584	34.200000
1787.309358	45.500000
1789.115218	26.300000
1790.924223	50.800000
1792.729315	33.900000
1794.535788	41.400000
1796.341877	20.600000
1798.144055	59.500000
1799.949378	47.300000
1801.750792	44.100000
1803.553586	42.300000
1805.352474	52.200000
1807.152743	32.300000
1808.952630	48.200000
1810.750375	39.300000
1812.547740	41.900000
1814.344725	36.000000
1816.141329	61.000000
1817.935794	31.100000
1819.731638	26.100000
1821.521827	37.500000
1823.316913	45.800000
1825.106347	25.000000
1826.898917	39.100000
1828.689352	25.900000
1830.477653	53.900000
1832.269089	33.500000
1834.054879	40.800000
1835.842049	25.100000
1837.627087	25.300000
1839.415259	46.000000
1841.199545	40.800000
1842.981701	37.300000
1844.765237	41.600000
1846.546644	21.700000
1848.329430	35.400000
1850.108335	31.000000
1851.888620	35.700000
1853.666778	22.700000
1855.446315	29.000000
1857.223727	41.100000
1858.999015	55.000000
1860.775681	31.000000
1862.550225	39.200000
1864.326147	45.000000
1866.096448	49.500000
1867.869877	46.800000
1869.641186	50.000000
1871.412124	42.100000
1873.184440	32.800000
1874.951142	44.900000
1876.720970	53.300000
1878.486934	38.100000
1880.256021	50.800000
1882.021247	38.500000
1883.786105	51.900000
1885.552340	53.200000
1887.314716	41.600000
1889.076725	31.900000
1890.838366	49.700000
1892.599641	30.800000
1894.360548	35.900000
1896.121089	49.900000
1897.879520	45.000000
1899.637585	41.500000
1901.393543	32.400000
1903.150877	30.900000
1904.907846	43.400000
1906.662708	46.300000
1908.415466	42.900000
1910.167859	41.700000
1911.921629	50.900000
1913.673295	39.600000
1915.422859	26.100000
1917.173798	40.400000
1918.924375	46.200000
1920.671112	10.500000
1922.419226	29.100000
1924.165240	34.100000
1925.912629	39.600000
1927.657921	27.300000
1929.401115	47.000000
1931.145684	35.700000
1932.888158	32.100000
1934.630271	27.300000
1936.372024	39.900000
1938.113417	31.700000
1939.852717	37.600000
1941.591658	31.600000
1943.330240	54.400000
1945.066731	27.600000
1946.802864	24.700000
1948.540371	21.800000
1950.274056	38.700000
1952.009116	19.000000
1953.742087	48.700000
1955.474702	39.800000
1957.206961	40.900000
1958.938863	30.500000
1960.668679	44.000000
1962.396410	27.400000
1964.125516	48.000000
1965.854267	38.900000
1967.580934	38.400000
1969.307247	24.000000
1971.034933	42.700000
1972.757083	53.400000
1974.482334	53.700000
1976.203778	27.500000
1977.928323	35.800000
1979.650787	46.200000
1981.369449	42.400000
1983.091209	26.700000
1984.809167	48.800000
1986.528498	43.900000
1988.244030	40.000000
1989.964382	30.000000
1991.680936	48.400000
1993.393693	29.800000
1995.109546	46.400000
1996.823327	35.900000
1998.536758	61.900000
2000.248118	33.400000
2001.960850	32.000000
2003.669792	28.000000
2005.381826	38.500000
2007.088352	53.500000
2008.797969	38.300000
2010.505520	43.300000
2012.212722	44.200000
2013.917859	51.100000
2015.622650	35.100000
2017.328812	31.000000
2019.031192	41.000000
2020.734943	58.000000
2022.436632	41.700000
2024.137976	34.000000
2025.838974	48.600000
2027.537911	31.300000
2029.238220	37.800000
2030.934754	40.100000
2032.632659	44.700000
2034.328505	37.000000
2036.027437	43.000000
2037.720883	54.100000
2039.415700	38.800000
2041.110175	45.000000
2042.800881	31.800000
2044.494671	43.400000
2046.184694	27.400000
2047.876088	41.100000
2049.565429	45.000000
2051.256140	28.100000
2052.943088	40.700000
2054.629697	47.500000
2056.317675	26.800000
2058.001894	40.000000
2059.687484	42.800000
2061.372734	31.700000
2063.055935	39.500000
2064.740507	36.100000
2066.419616	40.300000
2068.103510	36.600000
2069.781943	37.500000
2071.463454	32.700000
2073.141213	39.600000
2074.818636	41.100000
2076.497428	40.100000
2078.174178	24.300000
2079.848886	42.600000
2081.524963	43.700000
2083.199000	26.100000
2084.872701	29.000000
2086.546067	34.700000
2088.217394	29.600000
2089.888387	45.700000
2091.559046	39.600000
2093.229371	32.200000
2094.899362	59.200000
2096.567317	40.800000
2098.234939	34.400000
2099.900526	35.200000
2101.567482	21.200000
2103.232405	31.100000
2104.896996	41.800000
2106.559555	37.100000
2108.223482	34.700000
2109.885378	38.100000
2111.546944	23.100000
2113.208178	34.500000
2114.867384	41.000000
2116.526259	46.400000
2118.184805	28.500000
2119.843020	43.300000
2121.497513	38.700000
2123.155070	33.500000
2124.812298	40.400000
2126.465804	28.800000
2128.120678	41.000000
2129.771833	41.100000
2131.426051	34.200000
2133.076552	57.300000
2134.728419	23.700000
2136.374878	37.500000
2138.026092	45.700000
2139.673592	40.800000
2141.322459	30.300000
2142.969307	26.800000
2144.615830	37.700000
2146.262027	39.800000
2147.904516	47.500000
2149.550063	35.700000
2151.191903	43.800000
2152.836800	37.200000
2154.477991	43.100000
2156.118860	44.200000
2157.759404	22.800000
2159.397936	46.700000
2161.037834	17.600000
2162.674032	42.400000
2164.311596	38.000000
2165.948838	37.400000
2167.584070	35.100000
2169.218981	41.000000
2170.853569	34.100000
2172.487837	46.800000
2174.118411	36.300000
2175.752037	32.600000
2177.381971	34.500000
2179.013270	34.400000
2180.642564	33.200000
2182.271539	45.600000
2183.900194	41.200000
2185.528530	28.500000
2187.154864	28.900000
2188.780879	34.600000
2190.404892	47.300000
2192.030271	39.900000
2193.653649	42.900000
2195.278392	52.500000
2196.899454	51.500000
2198.520199	35.500000
2200.142309	26.200000
2201.762421	44.700000
2203.380536	46.400000
2204.998336	33.300000
2206.615821	20.000000
2208.232990	29.600000
2209.849844	53.400000
2211.466382	32.800000
2213.080928	34.800000
2214.693481	43.200000
2216.307398	37.700000
2217.919324	48.400000
2219.532613	35.300000
2221.143912	32.000000
2222.753221	32.000000
2224.363894	53.900000
2225.972578	43.100000
2227.580949	39.300000
2229.187334	53.200000
2230.795082	47.300000
2232.400843	30.900000
2234.006293	38.500000
2235.609758	25.400000
2237.214586	25.500000
2238.817430	45.000000
2240.418291	39.600000
2242.020515	41.200000
2243.620757	33.900000
2245.222361	28.200000
2246.820312	50.500000
2248.419626	35.700000
2250.016960	43.300000
2251.613986	45.000000
2253.212374	41.900000
2254.807113	47.000000
2256.399875	30.400000
2257.994000	41.300000
2259.589486	36.700000
2261.181327	26.000000
2262.772862	47.400000
2264.365759	35.600000
2265.953346	43.500000
2267.545629	30.500000
2269.132606	57.400000
2270.722610	32.400000
2272.307310	34.100000
2273.896704	37.000000
2275.480796	46.100000
2277.066248	29.000000
2278.649732	41.600000
2280.236241	28.300000
2281.819117	36.400000
2283.401690	30.700000
2284.983959	41.400000
2286.562598	40.200000
2288.144262	59.500000
2289.722297	42.400000
2291.303355	39.500000
2292.880786	36.150000
2294.456254	32.800000
2296.034744	34.100000
2297.609610	47.200000
2299.184175	33.800000
2300.758440	49.600000
2302.332404	20.400000
2303.906067	27.300000
2305.479431	31.000000
2307.049176	46.300000
2308.618622	21.300000
2310.191086	47.000000
2311.758276	43.400000
2313.328484	39.100000
2314.895077	41.900000
2316.463030	50.900000
2318.029027	37.200000
2319.594727	55.400000
2321.160129	39.500000
2322.723578	49.700000
2324.288386	45.500000
2325.849586	43.200000
2327.413800	36.100000
2328.972752	63.900000
2330.534719	50.500000
2332.094734	35.600000
2333.654455	27.500000
2335.212226	47.000000
2336.769702	40.100000
2338.326884	45.400000
2339.882118	24.100000
2341.437059	50.200000
2342.991705	43.900000
2344.546058	41.100000
2346.100118	30.600000
2347.653883	42.500000
2349.205704	37.200000
2350.755583	47.600000
2352.308469	34.600000
2353.856112	37.800000
2355.406764	40.900000
2356.953824	30.400000
2358.502242	38.600000
2360.050369	58.000000
2361.594907	40.900000
2363.140803	41.100000
2364.684761	31.600000
2366.230076	42.600000
2367.771806	46.100000
2369.314893	22.800000
2370.856044	23.600000
2372.396906	33.600000
2373.937479	38.000000
2375.477763	38.400000
2377.017758	31.000000
2378.554175	45.300000
2380.093593	44.300000
2381.629433	49.100000
2383.166631	46.400000
2384.700253	35.900000
2386.236875	40.200000
2387.771567	49.700000
2389.304329	58.400000
2390.836804	37.900000
2392.367351	25.900000
2393.900896	59.400000
2395.429230	39.000000
2396.958921	44.000000
2398.488325	57.700000
2400.017445	38.200000
2401.546280	41.100000
2403.069909	42.700000
2404.598174	42.300000
2406.121237	55.600000
2407.648933	62.900000
2409.169790	44.500000
2410.695280	67.100000
2412.217209	51.800000
2413.740494	41.200000
2415.261857	38.000000
2416.781301	38.200000
2418.302100	52.900000
2419.820981	72.400000
2421.339579	47.800000
2422.856260	48.200000
2424.374295	48.600000
2425.892049	58.700000
2427.406252	38.900000
2428.920174	62.400000
2430.433816	42.200000
2431.948813	42.800000
2433.460261	52.500000
2434.973064	63.400000
2436.483953	60.300000
2437.994564	57.600000
2439.503263	46.600000
2441.014948	38.300000
2442.523090	53.700000
2444.030954	39.800000
2445.538540	42.200000
2447.042585	52.400000
2448.549615	41.600000
2450.054737	69.100000
2451.559582	58.200000
2453.062520	49.900000
2454.565182	44.500000
2456.067567	59.200000
2457.568047	33.700000
2459.069880	56.200000
2460.569808	52.600000
2462.069461	36.300000
2463.568839	40.200000
2465.066314	60.600000
2466.561887	43.400000
2468.060440	44.700000
2469.555465	42.600000
2471.051842	56.200000
2472.544693	45.100000
2474.038897	32.500000
2475.532827	43.800000
2477.023233	50.900000
2478.516617	44.000000
2480.008103	40.200000
2481.497692	54.700000
2482.987009	58.600000
2484.474430	39.500000
2485.964827	37.800000
2487.451706	54.300000
2488.939936	46.700000
2490.424649	58.100000
2491.909093	55.400000
2493.394887	45.300000
2494.878790	55.100000
2496.364043	38.100000
2497.844163	35.300000
2499.327256	48.200000
2500.808458	60.000000
2502.289391	49.300000
2503.768435	44.900000
2505.247210	66.900000
2506.725717	22.800000
2508.203956	37.500000
2509.681926	41.500000
2511.156391	41.400000
2512.633826	33.900000
2514.107757	55.100000
2515.583038	39.300000
2517.058052	46.400000
2518.529565	33.800000
2520.002429	57.200000
2521.473410	47.100000
2522.945741	45.400000
2524.412958	48.400000
2525.883142	55.100000
2527.351445	44.300000
2528.819483	56.600000
2530.287256	49.500000
2531.754764	37.000000
2533.222007	58.000000
2534.685758	34.700000
2536.150859	41.000000
2537.614083	46.400000
2539.078656	57.200000
2540.539741	50.700000
2542.002175	36.900000
2543.464346	51.700000
2544.923031	37.300000
2546.386287	45.300000
2547.844448	42.200000
2549.303957	64.000000
2550.758372	57.200000
2552.217358	42.600000
2553.674472	30.000000
2555.129715	44.500000
2556.584696	54.500000
2558.037809	59.100000
2559.492270	49.400000
2560.944861	57.500000
2562.397193	39.500000
2563.847658	57.400000
2565.301078	49.500000
2566.749416	62.700000
2568.200709	42.500000
2569.650137	72.100000
2571.096092	48.200000
2572.545002	59.800000
2573.990442	63.000000
2575.437229	46.000000
2576.882154	56.500000
2578.326820	54.500000
2579.772834	60.600000
2581.215382	53.000000
2582.659277	62.800000
2584.099707	38.900000
2585.541484	64.100000
2586.981402	69.600000
2588.422667	53.600000
2589.860470	55.600000
2591.301223	49.800000
2592.736914	69.100000
2594.175554	58.700000
2595.612336	73.700000
2597.047263	59.300000
2598.485137	58.500000
2599.917954	68.800000
2601.352118	50.300000
2602.784428	74.000000
2604.218084	73.800000
2605.649887	56.600000
2607.081436	87.900000
2608.512733	64.000000
2609.942177	80.600000
2611.371369	77.500000
2612.798711	62.000000
2614.227398	84.800000
2615.655834	67.800000
2617.080822	69.400000
2618.507157	62.900000
2619.931643	64.600000
2621.357475	72.400000
2622.779863	82.500000
2624.203597	64.000000
2625.625484	62.000000
2627.047122	87.400000
2628.466914	84.300000
2629.888052	77.700000
2631.308940	89.600000
2632.726390	76.300000
2634.146779	97.800000
2635.563731	117.100000
2636.980434	79.800000
2638.396889	83.600000
2639.813096	86.500000
2641.229055	96.700000
2642.643173	106.700000
2644.057043	115.500000
2645.469075	106.500000
2646.882450	107.000000
2648.292396	95.100000
2649.705278	103.600000
2651.114731	134.500000
2652.523938	124.100000
2653.931309	94.700000
2655.341614	131.900000
2656.750084	127.100000
2658.156718	133.400000
2659.563107	130.400000
2660.967662	137.800000
2662.373561	122.700000
2663.777627	128.500000
2665.181448	135.400000
2666.585025	125.200000
2667.986771	147.400000
2669.389860	163.300000
2670.789531	170.700000
2672.190546	167.600000
2673.588145	154.400000
2674.988674	183.300000
2676.385787	188.100000
2677.784244	178.600000
2679.180874	162.100000
2680.577261	172.600000
2681.973406	198.800000
2683.367725	192.700000
2684.763387	170.400000
2686.155640	185.100000
2687.549235	168.100000
2688.941006	166.600000
2690.334120	186.400000
2691.725410	167.400000
2693.114877	161.800000
2694.504104	178.400000
2695.893092	178.900000
2697.283421	178.800000
2698.668767	187.000000
2700.057036	152.400000
2701.443485	179.400000
2702.829695	192.100000
2704.215666	179.200000
2705.598239	151.300000
2706.982154	154.200000
2708.365831	165.900000
2709.749269	142.900000
2711.129313	155.600000
2712.510697	144.300000
2713.890267	142.900000
2715.271177	127.700000
2716.650273	136.200000
2718.027555	117.100000
2719.406178	122.300000
2720.782988	147.400000
2722.159561	137.800000
2723.535899	135.900000
2724.910426	120.100000
2726.286293	122.600000
2727.658773	103.100000
2729.034169	109.300000
2730.404605	86.400000
2731.776382	101.500000
2733.147924	91.000000
2734.517658	89.900000
2735.888733	101.400000
2737.257999	80.400000
2738.627032	78.000000
2739.994259	81.300000
2741.361252	71.900000
2742.728013	58.900000
2744.094542	89.700000
2745.459265	61.400000
2746.823756	69.200000
2748.188016	64.900000
2749.552043	40.300000
2750.915839	83.500000
2752.276261	57.200000
2753.639593	71.700000
2754.997983	63.400000
2756.359283	63.100000
2757.717213	50.300000
2759.078051	50.900000
2760.437090	65.100000
2761.792760	40.700000
2763.151338	53.000000
2764.506549	69.800000
2765.861531	57.400000
2767.214717	57.500000
2768.570809	73.000000
2769.923536	43.800000
2771.276036	55.800000
2772.628307	37.200000
2773.981916	50.100000
2775.332165	58.000000
2776.680619	66.200000
2778.031979	64.900000
2779.379979	54.600000
2780.729317	49.800000
2782.076863	65.200000
2783.424183	57.300000
2784.771276	57.600000
2786.116578	30.200000
2787.461653	49.500000
2788.806503	55.000000
2790.151127	46.100000
2791.492399	28.100000
2792.835009	38.400000
2794.177393	38.200000
2795.519552	38.800000
2796.858362	25.400000
2798.200072	42.100000
2799.538434	48.700000
2800.878132	46.000000
2802.216046	48.300000
2803.552175	31.800000
2804.888080	53.700000
2806.225323	44.500000
2807.560782	49.100000
2808.896018	57.900000
2810.229471	46.100000
2811.564261	45.800000
2812.895711	38.800000
2814.230056	47.500000
2815.559503	33.500000
2816.890287	50.100000
2818.220849	39.500000
2819.549632	40.400000
2820.879751	38.900000
2822.208092	38.100000
2823.536212	45.200000
2824.862554	55.000000
2826.190233	32.500000
2827.514578	47.000000
2828.840260	44.800000
2830.164166	67.500000
2831.487853	42.700000
2832.812875	16.200000
2834.134567	24.600000
2835.456041	41.900000
2836.777296	56.000000
2838.098332	42.900000
2839.417595	29.700000
2840.738194	33.000000
2842.057022	63.800000
2843.375631	60.500000
2844.692469	53.400000
2846.009090	43.400000
2847.325494	33.500000
2848.640128	53.200000
2849.956098	52.900000
2851.268747	54.500000
2852.582731	51.900000
2853.896499	24.200000
2855.210050	32.500000
2856.521835	41.500000
2857.831853	48.100000
2859.143206	50.700000
2860.451244	46.200000
2861.760616	38.500000
2863.069774	37.800000
2864.378716	45.700000
2865.685894	46.100000
2866.991310	46.400000
2868.298060	43.100000
2869.603047	35.700000
2870.907821	27.600000
2872.210833	36.300000
2873.516726	33.700000
2874.817765	41.300000
2876.120138	32.300000
2877.420751	51.300000
2878.722698	46.400000
2880.024431	32.900000
2881.322861	49.000000
2882.622624	45.200000
2883.920630	42.500000
2885.218424	45.700000
2886.514462	39.800000
2887.811833	44.100000
2889.107448	28.000000
2890.402852	40.300000
2891.698045	31.800000
2892.989941	36.600000
2894.284713	46.100000
2895.576188	49.700000
2896.868996	16.900000
2898.161594	40.900000
2899.450898	40.100000
2900.741534	36.300000
2902.030419	53.900000
2903.320636	44.800000
2904.607562	37.100000
2905.895820	47.700000
2907.182329	40.600000
2908.468629	37.100000
2909.754722	43.000000
2911.039066	33.900000
2912.326281	39.900000
2913.608670	48.000000
2914.892391	38.700000
2916.174366	38.900000
2917.456133	39.400000
2918.736156	46.600000
2920.019048	35.000000
2921.300195	48.300000
2922.578060	44.300000
2923.858794	32.600000
2925.136247	32.400000
2926.413494	20.700000
2927.688999	25.900000
2928.967372	32.700000
2930.240931	28.700000
2931.517357	60.000000
2932.792042	32.500000
2934.064986	42.900000
2935.339262	35.900000
2936.611798	42.700000
2937.884129	38.600000
2939.153188	50.200000
2940.425112	44.100000
2941.695298	37.100000
2942.965280	35.500000
2944.235059	46.300000
2945.503102	31.700000
2946.769408	40.200000
2948.035513	41.600000
2949.302947	62.400000
2950.568647	40.000000
2951.834144	44.300000
2953.099439	30.600000
2954.361469	49.500000
2955.624829	44.200000
2956.887988	44.600000
2958.149415	34.500000
2959.412171	33.000000
2960.673195	37.900000
2961.932489	28.900000
2963.191583	41.200000
2964.450476	42.100000
2965.709169	28.000000
2966.967662	36.600000
2968.224426	33.500000
2969.480990	36.000000
2970.735827	37.800000
2971.991992	35.300000
2973.244903	30.300000
2974.499143	39.800000
2975.753184	34.000000
2977.005499	36.200000
2978.257615	35.300000
2979.508007	38.000000
2980.761254	30.100000
2982.009724	33.400000
2983.261049	27.400000
2984.509124	38.300000
2985.757003	31.700000
2987.004684	38.500000
2988.252168	35.200000
2989.497931	47.700000
2990.743498	26.300000
2991.990392	38.100000
2993.234042	24.400000
2994.479020	21.300000
2995.720754	33.500000
2996.965340	38.300000
2998.208207	23.100000
2999.447833	24.300000
3000.690309	24.200000
3001.929545	34.100000
3003.170109	31.000000
3004.408957	38.800000
3005.647609	44.400000
3006.884546	32.900000
3008.122811	29.400000
3009.359360	48.800000
3010.595716	31.700000
3011.831878	25.100000
3013.066326	31.200000
3014.300582	31.200000
3015.534644	19.400000
3016.766994	33.500000
3017.997632	29.300000
3019.231116	44.600000
3020.462888	30.000000
3021.692950	47.500000
3022.922819	34.100000
3024.150980	43.000000
3025.380466	24.100000
3026.608243	37.300000
3027.835829	27.400000
3029.064742	49.100000
3030.288912	32.200000
3031.515925	37.700000
3032.739714	40.600000
3033.964830	43.400000
3035.188239	26.900000
3036.411458	43.100000
3037.632972	39.100000
3038.857327	38.600000
3040.076947	38.900000
3041.297893	24.600000
3042.518650	37.200000
3043.737703	41.200000
3044.958081	20.800000
3046.175243	29.700000
3047.393731	32.000000
3048.610516	26.500000
3049.827114	42.200000
3051.043523	43.300000
3052.256720	40.900000
3053.472754	28.300000
3054.685576	41.100000
3055.901235	42.500000
3057.112171	24.400000
3058.324432	16.800000
3059.536507	34.800000
3060.748394	37.700000
3061.958585	21.700000
3063.168589	44.200000
3064.378407	38.800000
3065.586529	21.400000
3066.794466	28.100000
3068.000707	39.800000
3069.208273	13.100000
3070.414144	23.300000
3071.619831	33.500000
3072.825332	35.200000
3074.029140	30.500000
3075.234272	35.000000
3076.437711	32.400000
3077.639459	45.200000
3078.841022	21.700000
3080.042402	40.400000
3081.243598	37.100000
3082.443104	50.700000
3083.642427	32.400000
3084.843073	30.800000
3086.042029	40.000000
3087.237791	18.200000
3088.436382	18.000000
3089.631779	32.100000
3090.828499	32.400000
3092.022027	40.600000
3093.218383	24.800000
3094.413053	41.500000
3095.604532	25.800000
3096.800342	23.400000
3097.991458	23.600000
3099.183898	42.800000
3100.373150	26.200000
3101.565227	26.600000
3102.755621	37.900000
3103.942829	40.400000
3105.131360	22.200000
3106.321212	43.500000
3107.507881	24.000000
3108.694369	26.900000
3109.880679	40.300000
3111.068310	16.200000
3112.252759	32.000000
3113.435529	26.900000
3114.621121	30.900000
3115.805034	39.600000
3116.987268	24.100000
3118.169323	27.100000
3119.351200	28.600000
3120.532899	31.800000
3121.712921	27.100000
3122.891266	28.300000
3124.072431	27.200000
3125.250421	37.300000
3126.428235	24.100000
3127.605871	18.900000
3128.781832	35.600000
3129.957616	36.700000
3131.134722	20.900000
3132.310153	22.100000
3133.483911	24.700000
3134.655996	23.400000
3135.829403	35.100000
3137.002633	35.300000
3138.174192	28.400000
3139.347071	34.500000
3140.516783	25.200000
3141.687816	30.500000
3142.857179	32.500000
3144.024871	35.900000
3145.195379	26.300000
3146.361229	36.400000
3147.531387	45.300000
3148.696889	17.800000
3149.862216	31.500000
3151.027370	40.900000
3152.192351	38.500000
3153.358651	33.200000
3154.520299	22.600000
3155.683266	19.100000
3156.846061	35.900000
3158.008683	24.600000
3159.169640	33.900000
3160.330424	23.400000
3161.491036	30.300000
3162.649984	28.300000
3163.808761	38.100000
3164.967366	50.500000
3166.125798	39.400000
3167.284060	38.200000
3168.440659	25.100000
3169.595597	18.200000
3170.751854	26.300000
3171.906450	40.400000
3173.060876	47.900000
3174.213642	27.400000
3175.366237	26.200000
3176.518663	42.100000
3177.670919	34.600000
3178.823004	46.000000
3179.971944	24.400000
3181.123690	19.100000
3182.273778	26.000000
3183.422210	26.300000
3184.570472	44.300000
3185.718566	14.400000
3186.866491	22.400000
3188.012760	16.900000
3189.158861	36.800000
3190.303308	23.300000
3191.447587	44.800000
3192.591698	40.200000
3193.737126	23.100000
3194.879416	39.900000
3196.021539	28.000000
3197.163494	61.200000
3198.305282	32.800000
3199.446903	23.600000
3200.585389	32.500000
3201.725192	36.100000
3202.866313	27.900000
3204.004299	25.900000
3205.140636	48.200000
3206.276807	35.200000
3207.414295	17.900000
3208.550135	52.600000
3209.687292	38.500000
3210.819836	29.700000
3211.956662	39.200000
3213.088876	40.900000
3214.222407	29.300000
3215.355774	42.800000
3216.486013	31.000000
3217.619050	42.100000
3218.748961	28.100000
3219.880188	40.200000
3221.008291	60.700000
3222.139190	40.200000
3223.268445	27.200000
3224.396057	42.300000
3225.520546	43.200000
3226.649311	32.800000
3227.774954	24.600000
3228.900435	46.100000
3230.024274	15.800000
3231.150907	52.400000
3232.272943	36.900000
3233.396295	44.300000
3234.519485	28.400000
3235.642512	34.100000
3236.763901	31.300000
3237.885127	35.900000
3239.004716	40.300000
3240.124143	32.900000
3241.241932	30.200000
3242.362513	30.900000
3243.479981	33.200000
3244.597288	37.100000
3245.714435	44.700000
3246.829946	33.800000
3247.946771	20.700000
3249.060487	30.900000
3250.176992	32.300000
3251.291863	36.500000
3252.403625	28.600000
3253.515227	43.200000
3254.628145	26.100000
3255.740903	44.900000
3256.850555	30.900000
3257.961522	48.800000
3259.072330	20.100000
3260.181506	22.700000
3261.289052	35.300000
3262.397911	47.400000
3263.506613	21.700000
3264.612212	29.500000
3265.719125	19.000000
3266.824409	40.500000
3267.931007	34.000000
3269.034505	25.200000
3270.139318	20.500000
3271.243973	29.900000
3272.345529	20.500000
3273.446929	33.900000
3274.549643	36.000000
3275.652201	34.700000
3276.751662	25.400000
3277.853907	24.000000
3278.953056	36.100000
3280.050581	23.000000
3281.147950	24.600000
3282.248101	24.400000
3283.345160	21.100000
3284.442063	18.300000
3285.538811	35.200000
3286.631001	45.400000
3287.727439	28.500000
3288.822255	25.900000
3289.916917	24.100000
3291.009957	21.700000
3292.102842	36.000000
3293.194108	22.500000
3294.286685	32.100000
3295.377643	31.600000
3296.466981	27.000000
3297.556166	41.500000
3298.646664	14.800000
3299.734077	20.500000
3300.821337	33.800000
3301.909910	3.900000
3302.998331	3.100000
3304.082204	50.900000
3305.170319	30.900000
3306.255352	29.200000
3307.338770	29.400000
3308.423500	31.200000
3309.506614	40.900000
3310.591041	28.800000
3311.672389	27.900000
3312.755049	37.400000
3313.836095	24.000000
3314.916990	27.900000
3315.996271	24.800000
3317.075402	19.700000
3318.155845	21.300000
3319.233213	20.500000
3320.311893	11.600000
3321.388961	22.300000
3322.465880	10.900000
3323.541187	20.600000
3324.616345	39.600000
3325.692814	31.400000
3326.766213	23.900000
3327.839463	31.400000
3328.914023	29.700000
3329.986975	38.600000
3331.058318	36.000000
3332.130972	13.800000
3333.200560	32.000000
3334.271458	12.100000
3335.340749	24.400000
3336.411351	28.200000
3337.480346	13.900000
3338.547735	30.300000
3339.613519	33.300000
3340.683529	27.000000
3341.750476	30.500000
3342.814361	24.400000
3343.881014	8.200000
3344.946062	24.700000
3346.009507	35.300000
3347.072806	31.900000
3348.135958	24.000000
3349.198964	22.400000
3350.261824	-2.600000
3351.323082	25.100000
3352.381283	11.400000
3353.443704	35.400000
3354.503070	23.700000
3355.562290	27.400000
3356.622820	39.100000
3357.678840	25.400000
3358.737624	19.700000
3359.791901	36.100000
3360.848942	31.300000
3361.904384	24.200000
3362.961136	21.400000
3364.016289	34.400000
3365.069845	14.900000
3366.121805	32.800000
3367.176526	26.300000
3368.228198	18.100000
3369.279727	30.600000
3370.332564	13.800000
3371.382354	27.000000
3372.433453	7.600000
3373.481506	28.200000
3374.532318	24.800000
3375.580086	15.500000
3376.627711	26.300000
3377.675193	28.900000
3378.721083	8.300000
3379.768281	20.800000
3380.812437	48.400000
3381.859351	21.200000
3382.904673	21.700000
3383.946954	17.600000
3384.989095	41.600000
3386.032543	29.400000
3387.075850	28.400000
3388.117568	33.800000
3389.159144	20.900000
3390.200579	15.200000
3391.240426	14.700000
3392.278684	30.300000
3393.318250	32.400000
3394.357676	3.400000
3395.395514	19.500000
3396.431765	17.700000
3397.467877	33.100000
3398.505296	14.400000
3399.539682	10.000000
3400.575375	19.600000
3401.610929	21.900000
3402.643452	23.000000
3403.678728	22.600000
3404.710973	32.600000
3405.743080	14.000000
3406.773603	13.700000
3407.805433	45.100000
3408.837125	25.200000
3409.865789	29.500000
3410.894316	10.900000
3411.924149	26.800000
3412.953845	51.300000
3413.980515	27.400000
3415.008492	20.300000
3416.033444	25.500000
3417.061146	17.400000
3418.085825	17.900000
3419.111810	21.600000
3420.136215	26.000000
3421.160484	27.600000
3422.183174	18.000000
3423.205728	30.000000
3424.229588	20.200000
3425.250428	13.700000
3426.271132	11.100000
3427.293143	26.400000
3428.312135	36.700000
3429.330991	22.200000
3430.351154	24.800000
3431.368300	11.500000
