-117.888313	10.000000
-115.218713	6.600000
-112.552048	10.900000
-109.886135	12.000000
-107.223154	7.500000
-104.558744	17.900000
-101.897264	7.400000
-99.234355	4.000000
-96.576552	-7.000000
-93.917320	3.200000
-91.258836	6.800000
-88.603276	-2.300000
-85.946288	0.200000
-83.294398	0.400000
-80.641078	23.700000
-77.990677	-7.900000
-75.338847	4.600000
-72.692108	1.100000
-70.043940	-9.800000
-67.396514	-11.800000
-64.752002	23.600000
-62.106062	-4.400000
-59.465203	-6.500000
-56.822915	-13.200000
-54.183536	17.600000
-51.542727	-4.000000
-48.902659	4.300000
-46.267663	-12.600000
-43.631239	2.400000
-40.997717	-22.900000
-38.362767	5.100000
-35.732882	10.800000
-33.099405	3.800000
-30.470990	8.100000
-27.843309	13.200000
-25.214199	-12.800000
-22.590146	11.000000
-19.962504	-13.900000
-17.339915	12.600000
-14.718058	5.200000
-12.096931	27.900000
-9.476534	58.000000
-6.859026	181.700000
-4.240089	549.600000
-1.624037	1121.700000
0.991286	1472.800000
3.605882	728.400000
6.217595	87.500000
8.830737	-7.900000
11.438845	0.400000
14.050535	1.600000
16.657194	-11.000000
19.265281	-1.100000
21.872644	-3.200000
24.474982	7.300000
27.080898	13.800000
29.681792	-5.200000
32.284114	0.000000
34.881419	18.500000
37.482299	-10.300000
40.078164	-0.200000
42.675458	3.200000
45.272032	-6.600000
47.863597	12.800000
50.456590	3.100000
53.046722	-0.900000
55.638282	-13.500000
58.226982	15.900000
60.817109	7.000000
63.402237	-20.800000
65.988793	-9.500000
68.574635	2.400000
71.157623	22.500000
73.742037	3.900000
76.319323	-11.100000
78.900175	-13.000000
81.478178	12.700000
84.055471	-11.300000
86.634190	-12.000000
89.207927	-4.100000
91.783092	17.700000
94.355413	1.500000
96.927026	-12.600000
99.495799	-4.500000
102.065999	14.500000
104.633361	-1.200000
107.202148	-3.700000
109.768099	9.700000
112.331215	-5.300000
114.897887	-8.800000
117.455338	12.700000
120.018474	5.100000
122.576650	17.400000
125.138381	-1.600000
127.695155	4.900000
130.253356	22.200000
132.806603	7.100000
135.359153	38.500000
137.915253	32.800000
140.466405	76.800000
143.016860	73.400000
145.566617	103.000000
148.113555	111.600000
150.659798	108.300000
153.207466	101.700000
155.754438	120.600000
158.296475	144.000000
160.837818	113.600000
163.378468	116.800000
165.920544	96.200000
168.459808	111.300000
170.996264	87.900000
173.532028	130.200000
176.069218	103.400000
178.605717	111.800000
181.139410	114.700000
183.670299	120.800000
186.200501	105.400000
188.732127	118.900000
191.260952	100.600000
193.786978	117.400000
196.312318	86.100000
198.839083	103.500000
201.363052	117.600000
203.886336	108.200000
206.408935	93.500000
208.928741	102.900000
211.447864	116.800000
213.966304	96.700000
216.486168	104.900000
218.999031	106.400000
221.515425	118.000000
224.031137	108.500000
226.541959	108.900000
229.054206	101.800000
231.563671	105.500000
234.072457	107.700000
236.580564	112.300000
239.090096	97.000000
241.594747	106.200000
244.098722	111.600000
246.604121	118.800000
249.104645	109.600000
251.608693	118.400000
254.105769	114.900000
256.606369	118.200000
259.104197	116.900000
261.601352	103.400000
264.097834	113.700000
266.589453	101.400000
269.084592	117.000000
271.576964	119.800000
274.068666	107.800000
276.557605	98.900000
279.047968	125.800000
281.535568	122.100000
284.020409	118.200000
286.508765	122.800000
288.990181	122.600000
291.475111	114.100000
293.955196	108.900000
296.438793	115.300000
298.917547	121.700000
301.397725	109.400000
303.875150	115.600000
306.351912	123.200000
308.828011	122.700000
311.301361	120.800000
313.774049	136.700000
316.246076	131.500000
318.717442	149.300000
321.186063	164.900000
323.654026	154.800000
326.123410	145.500000
328.587972	148.200000
331.056038	115.300000
333.519284	121.600000
335.981872	122.100000
338.443804	124.900000
340.905079	135.200000
343.363620	135.100000
345.823583	117.900000
348.280813	128.900000
350.737389	115.700000
353.193311	114.600000
355.646503	136.300000
358.101118	118.900000
360.550931	118.300000
363.004240	124.100000
365.452751	117.600000
367.900610	116.700000
370.349892	127.800000
372.794380	118.100000
375.240290	122.000000
377.685550	113.900000
380.128092	101.800000
382.569986	105.700000
385.011233	128.700000
387.449764	127.300000
389.889717	133.300000
392.326956	105.800000
394.761483	131.000000
397.199498	120.200000
399.632736	122.400000
402.067395	116.500000
404.497282	104.000000
406.930654	128.300000
409.359256	114.000000
411.787216	118.600000
414.216598	151.500000
416.641214	130.800000
419.067252	121.300000
421.492649	132.400000
423.917406	121.900000
426.337405	132.500000
428.758825	127.300000
431.177548	143.900000
433.597692	137.500000
436.015141	126.900000
438.434010	129.600000
440.850186	125.100000
443.261614	131.400000
445.676520	130.100000
448.088735	123.300000
450.500316	130.900000
452.911263	132.000000
455.319524	111.100000
457.727152	133.200000
460.134148	124.300000
462.540513	130.900000
464.944195	96.600000
467.347247	115.800000
469.749669	110.400000
472.151461	111.900000
474.550576	117.100000
476.951110	121.300000
479.351015	136.400000
481.746197	123.700000
484.144846	108.400000
486.538775	114.800000
488.932078	131.800000
491.324755	111.700000
493.716807	122.200000
496.110277	114.900000
498.499035	119.500000
500.885127	101.200000
503.272639	106.300000
505.659528	100.500000
508.043753	95.800000
510.429396	75.700000
512.812378	77.700000
515.192699	73.600000
517.574439	87.000000
519.953520	76.100000
522.334020	85.700000
524.711862	82.300000
527.087049	89.300000
529.461618	90.500000
531.837605	85.300000
534.210940	90.000000
536.585692	82.300000
538.955759	83.000000
541.325210	80.100000
543.696079	92.700000
546.062268	83.200000
548.429875	86.100000
550.794836	103.600000
553.159184	73.400000
555.522919	79.200000
557.888072	93.000000
560.248553	87.600000
562.610452	85.800000
564.969710	68.800000
567.326331	67.600000
569.686396	86.100000
572.039770	77.600000
574.396589	87.500000
576.750773	70.300000
579.104349	66.200000
581.457316	62.400000
583.807651	74.400000
586.159404	75.700000
588.504480	54.400000
590.855020	87.900000
593.198886	74.700000
595.548214	92.200000
597.892893	80.600000
600.234948	77.600000
602.578420	81.500000
604.919269	71.000000
607.259516	74.100000
609.597142	73.200000
611.938203	62.400000
614.274626	84.200000
616.612466	78.800000
618.947689	65.800000
621.280296	79.900000
623.614319	68.400000
625.945728	54.900000
628.276539	83.400000
630.606753	78.200000
632.936368	83.700000
635.261360	80.300000
637.591794	62.900000
639.917607	73.600000
642.240812	74.500000
644.565434	47.400000
646.887450	60.000000
649.208872	81.100000
651.527692	88.300000
653.847927	60.900000
656.167569	54.200000
658.484610	62.700000
660.801059	54.300000
663.114910	85.000000
665.430177	55.900000
667.742847	58.400000
670.056932	62.800000
672.366417	62.900000
674.677318	75.600000
676.985626	62.900000
679.293346	70.900000
681.602480	63.600000
683.907022	81.200000
686.210978	79.700000
688.514348	74.700000
690.819132	65.100000
693.119330	64.600000
695.420942	71.500000
697.721970	58.200000
700.018415	69.200000
702.316276	62.700000
704.613553	91.300000
706.910247	71.700000
709.202365	63.600000
711.497894	72.600000
713.788849	74.800000
716.081219	52.200000
718.371014	53.300000
720.660228	89.400000
722.948863	65.400000
725.234925	58.400000
727.522402	50.900000
729.807307	70.400000
732.091635	81.800000
734.373394	62.100000
736.656567	59.000000
738.939163	64.900000
741.217203	58.500000
743.496658	53.900000
745.775536	65.000000
748.053840	65.500000
750.327594	62.200000
752.602761	73.800000
754.877355	74.500000
757.149390	45.300000
759.422838	78.300000
761.693728	66.900000
763.962062	60.900000
766.231809	64.600000
768.499002	78.700000
770.765624	67.800000
773.031676	67.600000
775.295177	61.100000
777.560091	79.300000
779.824435	90.600000
782.084250	62.600000
784.345477	61.600000
786.606137	69.000000
788.864251	73.300000
791.119820	68.000000
793.378780	71.700000
795.631241	71.100000
797.889068	65.800000
800.142377	64.100000
802.393146	68.400000
804.645327	78.000000
806.894969	75.300000
809.146024	46.700000
811.392567	64.600000
813.640522	72.400000
815.885943	64.900000
818.132775	61.600000
820.379046	63.700000
822.620812	63.200000
824.865962	74.200000
827.104639	72.700000
829.346698	63.600000
831.584259	64.500000
833.823232	47.100000
836.059678	64.800000
838.297535	67.100000
840.532867	72.400000
842.765676	54.900000
844.999896	55.200000
847.231593	77.000000
849.462736	59.800000
851.693324	46.700000
853.923358	74.400000
856.152838	62.400000
858.377836	81.500000
860.606209	61.200000
862.830102	66.100000
865.055407	72.800000
867.276236	87.200000
869.500437	49.100000
871.720165	74.500000
873.941303	72.200000
876.161891	73.800000
878.379970	59.000000
880.599458	72.700000
882.814480	59.400000
885.028955	80.200000
887.242881	56.200000
889.456261	72.500000
891.669093	69.300000
893.881379	61.100000
896.091162	65.400000
898.300400	77.500000
900.509093	56.500000
902.715287	70.400000
904.922890	54.400000
907.127995	59.000000
909.332557	63.000000
911.534624	80.300000
913.738100	66.300000
915.939082	63.800000
918.139522	69.800000
920.341371	63.300000
922.536829	71.400000
924.735646	78.700000
926.930024	56.100000
929.127760	60.700000
931.321060	59.400000
933.515769	57.800000
935.707992	72.100000
937.899676	75.900000
940.090823	39.900000
942.279487	86.500000
944.467615	86.300000
946.653262	80.600000
948.842261	82.200000
951.026837	70.200000
953.210878	77.300000
955.398269	84.700000
957.577356	73.200000
959.759794	83.500000
961.941698	73.900000
964.121127	70.200000
966.298084	60.700000
968.476449	86.800000
970.656221	53.600000
972.829644	72.100000
975.006413	72.600000
977.178775	74.500000
979.352545	68.100000
981.521911	59.300000
983.694621	75.400000
985.864866	67.900000
988.034582	73.700000
990.203769	77.000000
992.368559	80.000000
994.536690	75.300000
996.700427	84.300000
998.865570	90.700000
1001.028254	89.300000
1003.190413	77.500000
1005.350115	91.000000
1007.509292	98.400000
1009.669876	77.200000
1011.828006	88.000000
1013.985611	80.400000
1016.142693	82.900000
1018.299251	63.000000
1020.451430	96.200000
1022.605016	83.000000
1024.758080	94.900000
1026.908695	82.800000
1029.060717	92.100000
1031.208365	86.900000
1033.359345	90.400000
1035.505954	80.000000
1037.652044	87.600000
1039.797616	91.100000
1041.944593	104.000000
1044.085281	92.100000
1046.229299	87.700000
1048.370876	96.000000
1050.511937	91.000000
1052.654402	90.100000
1054.790588	100.100000
1056.930099	94.700000
1059.065256	102.400000
1061.203737	91.400000
1063.337864	96.700000
1065.471478	99.600000
1067.606497	99.200000
1069.737166	95.900000
1071.869240	94.900000
1073.998885	103.800000
1076.128018	84.900000
1078.256639	97.000000
1080.384749	83.600000
1082.510433	73.500000
1084.635607	92.900000
1086.762185	95.100000
1088.884425	92.000000
1091.008070	92.900000
1093.127380	85.400000
1095.251920	88.400000
1097.370214	85.700000
1099.489913	78.400000
1101.607193	81.300000
1103.723967	82.500000
1105.840234	106.300000
1107.954085	79.500000
1110.069341	94.600000
1112.180273	77.200000
1114.294518	94.000000
1116.404442	91.800000
1118.515770	84.300000
1120.626593	84.200000
1122.733100	85.000000
1124.842917	80.700000
1126.948419	71.200000
1129.055324	92.600000
1131.156014	89.100000
1133.261916	82.900000
1135.363509	76.500000
1137.466505	97.000000
1139.569000	95.300000
1141.665288	80.600000
1143.766784	92.200000
1145.863976	84.600000
1147.960671	92.700000
1150.056867	88.000000
1152.152566	93.900000
1154.247766	95.800000
1156.340570	91.900000
1158.434777	77.500000
1160.522792	85.100000
1162.616005	99.200000
1164.703030	87.700000
1166.793354	89.000000
1168.879391	96.400000
1170.968725	71.000000
1173.051878	66.000000
1175.136433	77.600000
1177.222390	74.000000
1179.304065	73.900000
1181.387142	75.900000
1183.467833	86.100000
1185.548032	85.400000
1187.627740	78.700000
1189.706957	88.400000
1191.783792	69.700000
1193.858246	79.700000
1195.935991	97.000000
1198.009467	68.900000
1200.084343	77.700000
1202.154952	68.500000
1204.226962	72.200000
1206.296597	85.900000
1208.367632	99.500000
1210.438179	84.400000
1212.504465	72.500000
1214.572152	107.000000
1216.637467	85.300000
1218.704182	94.800000
1220.766641	79.400000
1222.832385	93.200000
1224.893875	80.100000
1226.956766	89.100000
1229.017289	90.100000
1231.077328	79.900000
1233.136885	79.200000
1235.194076	91.300000
1237.250786	95.300000
1239.305132	94.800000
1241.362760	72.200000
1243.418025	81.800000
1245.469049	95.000000
1247.521473	113.100000
1249.573417	71.100000
1251.623003	80.400000
1253.672110	93.000000
1255.720739	76.600000
1257.768889	88.600000
1259.816560	92.100000
1261.860001	87.500000
1263.906718	96.100000
1265.951081	96.800000
1267.994968	77.100000
1270.036503	87.100000
1272.075689	84.900000
1274.118148	68.700000
1276.156384	107.600000
1278.196019	107.700000
1280.235179	99.000000
1282.270120	81.800000
1284.306460	115.200000
1286.340456	88.300000
1288.375849	89.100000
1290.407030	92.000000
1292.439608	84.300000
1294.471715	105.700000
1296.501481	107.400000
1298.532645	108.100000
1300.559601	105.300000
1302.587955	97.200000
1304.612104	103.300000
1306.639519	97.300000
1308.662731	111.300000
1310.687341	101.300000
1312.709617	109.000000
1314.733290	105.000000
1316.754630	125.900000
1318.775502	117.800000
1320.795907	125.500000
1322.812119	103.800000
1324.829728	135.500000
1326.845009	111.000000
1328.863549	119.700000
1330.877900	139.700000
1332.889925	149.100000
1334.905207	157.200000
1336.916304	148.600000
1338.928798	132.800000
1340.937109	151.400000
1342.948675	135.800000
1344.954203	140.600000
1346.962986	142.200000
1348.967591	129.800000
1350.975450	125.400000
1352.982847	138.700000
1354.984213	139.000000
1356.986975	126.100000
1358.989278	127.100000
1360.991121	113.600000
1362.992504	99.800000
1364.991574	127.900000
1366.990185	105.100000
1368.988338	104.100000
1370.986032	109.100000
1372.979564	126.500000
1374.974491	85.400000
1376.968962	107.500000
1378.962976	95.500000
1380.954683	97.500000
1382.945935	113.700000
1384.934881	86.400000
1386.925222	102.400000
1388.915108	88.200000
1390.902690	94.800000
1392.889819	121.400000
1394.874646	90.800000
1396.860868	85.300000
1398.844790	73.800000
1400.828259	89.300000
1402.811275	113.000000
1404.791994	108.800000
1406.774107	89.900000
1408.753924	111.200000
1410.733289	97.300000
1412.708516	84.500000
1414.686981	91.600000
1416.663153	95.200000
1418.638876	90.500000
1420.614149	90.200000
1422.587131	91.000000
1424.559665	94.900000
1426.531751	81.200000
1428.503390	98.500000
1430.470900	82.300000
1432.443484	89.100000
1434.408262	102.800000
1436.378113	77.800000
1438.343840	74.800000
1440.310959	86.900000
1442.275795	97.000000
1444.236511	106.300000
1446.202295	85.700000
1448.162124	103.400000
1450.123347	86.400000
1452.085962	84.200000
1454.044462	87.100000
1456.002519	93.200000
1457.960135	84.600000
1459.917308	92.300000
1461.872206	96.800000
1463.828497	76.800000
1465.782513	84.400000
1467.736088	103.200000
1469.687391	85.600000
1471.640087	94.500000
1473.590510	93.200000
1475.540495	77.500000
1477.490041	107.500000
1479.437318	110.100000
1481.382327	74.900000
1483.328729	90.900000
1485.274693	82.200000
1487.220220	97.900000
1489.163481	98.800000
1491.106307	93.800000
1493.046869	106.100000
1494.988822	111.900000
1496.928513	102.100000
1498.867770	106.800000
1500.806591	103.400000
1502.743153	92.400000
1504.681106	114.400000
1506.616800	111.400000
1508.552061	90.900000
1510.485066	106.800000
1512.417638	105.400000
1514.349778	107.900000
1516.281486	111.000000
1518.210940	118.500000
1520.141785	120.200000
1522.072198	111.300000
1523.998539	117.600000
1525.926271	141.600000
1527.851752	112.500000
1529.776804	146.800000
1531.701427	123.500000
1533.625621	142.400000
1535.547567	135.600000
1537.470904	143.700000
1539.391994	164.700000
1541.310840	181.900000
1543.231076	175.500000
1545.149069	204.500000
1547.066635	229.800000
1548.981959	234.400000
1550.898673	281.500000
1552.811332	317.200000
1554.727195	333.800000
1556.640818	384.000000
1558.552203	425.600000
1560.464978	419.100000
1562.373703	442.300000
1564.283817	432.700000
1566.193508	425.900000
1568.102776	451.800000
1570.009810	439.600000
1571.914611	477.800000
1573.820801	469.500000
1575.724759	437.100000
1577.628296	414.000000
1579.531413	374.200000
1581.432300	351.900000
1583.334576	288.900000
1585.234624	279.000000
1587.136059	247.600000
1589.033461	208.900000
1590.930444	200.100000
1592.827009	166.800000
1594.724962	175.000000
1596.617080	165.000000
1598.512391	156.500000
1600.407285	137.200000
1602.299957	150.700000
1604.192212	137.100000
1606.082248	136.100000
1607.971868	120.400000
1609.861073	142.300000
1611.749863	132.100000
1613.636435	118.700000
1615.524395	146.700000
1617.408338	120.100000
1619.293668	132.800000
1621.178585	128.100000
1623.061288	107.200000
1624.945378	118.500000
1626.825456	111.600000
1628.706922	80.300000
1630.586177	133.200000
1632.466818	101.300000
1634.341655	87.200000
1636.221473	109.700000
1638.097287	76.500000
1639.972690	93.100000
1641.849479	95.000000
1643.720472	103.100000
1645.594646	93.600000
1647.464821	97.700000
1649.338178	95.700000
1651.209331	100.800000
1653.078282	73.000000
1654.948618	88.500000
1656.814962	97.000000
1658.682691	99.200000
1660.548221	91.700000
1662.415137	65.800000
1664.278064	76.500000
1666.142376	89.900000
1668.004492	78.900000
1669.866203	79.300000
1671.729300	79.900000
1673.590201	89.500000
1675.448910	75.900000
1677.307215	82.900000
1679.166905	72.800000
1681.020827	110.900000
1682.877923	74.500000
1684.734616	70.800000
1686.587332	98.100000
1688.443220	102.900000
1690.295134	85.200000
1692.146647	85.200000
1693.997759	79.300000
1695.848471	61.400000
1697.698782	77.400000
1699.546908	82.600000
1701.396419	90.200000
1703.240181	84.400000
1705.088892	76.300000
1706.931857	91.000000
1708.777989	90.300000
1710.620158	77.200000
1712.465493	82.800000
1714.305087	74.000000
1716.146065	80.800000
1717.988426	78.600000
1719.826831	63.300000
1721.666619	74.400000
1723.504232	88.400000
1725.341449	79.000000
1727.176493	90.600000
1729.012920	82.800000
1730.847175	73.600000
1732.681035	81.900000
1734.514501	70.800000
1736.344022	85.200000
1738.176701	86.800000
1740.005436	91.700000
1741.837328	63.000000
1743.665278	77.800000
1745.492837	67.300000
1747.320003	67.400000
1749.146778	78.500000
1750.973161	82.100000
1752.795608	106.800000
1754.621210	82.900000
1756.442877	65.600000
1758.265926	95.800000
1760.086813	94.300000
1761.907312	76.600000
1763.729191	83.600000
1765.545372	76.900000
1767.364704	72.200000
1769.180109	83.200000
1770.998664	81.000000
1772.813294	82.300000
1774.627537	68.200000
1776.441394	70.200000
1778.254864	79.100000
1780.066181	70.700000
1781.878878	92.000000
1783.691190	86.400000
1785.499584	59.400000
1787.309358	69.400000
1789.115218	83.900000
1790.924223	60.600000
1792.729315	69.200000
1794.535788	77.600000
1796.341877	80.100000
1798.144055	78.800000
1799.949378	60.600000
1801.750792	77.800000
1803.553586	77.000000
1805.352474	78.400000
1807.152743	62.400000
1808.952630	77.400000
1810.750375	73.100000
1812.547740	73.900000
1814.344725	77.000000
1816.141329	70.200000
1817.935794	80.600000
1819.731638	92.900000
1821.521827	82.400000
1823.316913	79.500000
1825.106347	61.300000
1826.898917	85.000000
1828.689352	89.300000
1830.477653	80.400000
1832.269089	69.200000
1834.054879	69.700000
1835.842049	81.700000
1837.627087	83.600000
1839.415259	78.400000
1841.199545	82.300000
1842.981701	63.400000
1844.765237	72.600000
1846.546644	82.800000
1848.329430	85.200000
1850.108335	73.700000
1851.888620	89.500000
1853.666778	89.200000
1855.446315	85.500000
1857.223727	91.100000
1858.999015	84.500000
1860.775681	71.200000
1862.550225	107.900000
1864.326147	97.800000
1866.096448	81.400000
1867.869877	70.400000
1869.641186	73.500000
1871.412124	67.200000
1873.184440	80.600000
1874.951142	90.700000
1876.720970	104.000000
1878.486934	86.700000
1880.256021	82.200000
1882.021247	65.000000
1883.786105	79.000000
1885.552340	86.100000
1887.314716	85.600000
1889.076725	95.300000
1890.838366	90.100000
1892.599641	66.000000
1894.360548	68.600000
1896.121089	73.400000
1897.879520	85.100000
1899.637585	85.700000
1901.393543	96.600000
1903.150877	79.300000
1904.907846	88.000000
1906.662708	79.500000
1908.415466	80.900000
1910.167859	95.600000
1911.921629	88.200000
1913.673295	81.000000
1915.422859	88.600000
1917.173798	67.500000
1918.924375	74.900000
1920.671112	80.400000
1922.419226	95.700000
1924.165240	86.100000
1925.912629	99.400000
1927.657921	75.700000
1929.401115	86.200000
1931.145684	76.000000
1932.888158	83.100000
1934.630271	77.700000
1936.372024	87.900000
1938.113417	80.500000
1939.852717	75.400000
1941.591658	85.600000
1943.330240	64.900000
1945.066731	87.100000
1946.802864	83.450000
1948.540371	79.800000
1950.274056	72.900000
1952.009116	81.700000
1953.742087	79.200000
1955.474702	67.700000
1957.206961	84.900000
1958.938863	90.200000
1960.668679	76.200000
1962.396410	87.600000
1964.125516	79.800000
1965.854267	78.800000
1967.580934	69.500000
1969.307247	80.200000
1971.034933	76.000000
1972.757083	78.700000
1974.482334	103.100000
1976.203778	71.800000
1977.928323	62.900000
1979.650787	80.700000
1981.369449	92.000000
1983.091209	78.700000
1984.809167	84.000000
1986.528498	95.100000
1988.244030	84.400000
1989.964382	62.700000
1991.680936	84.400000
1993.393693	78.800000
1995.109546	76.200000
1996.823327	77.000000
1998.536758	90.300000
2000.248118	85.500000
2001.960850	72.200000
2003.669792	73.800000
2005.381826	82.500000
2007.088352	102.400000
2008.797969	83.000000
2010.505520	97.000000
2012.212722	71.700000
2013.917859	80.800000
2015.622650	71.800000
2017.328812	80.200000
2019.031192	100.000000
2020.734943	88.200000
2022.436632	76.700000
2024.137976	88.500000
2025.838974	94.100000
2027.537911	82.100000
2029.238220	85.300000
2030.934754	69.000000
2032.632659	106.100000
2034.328505	83.200000
2036.027437	85.900000
2037.720883	79.100000
2039.415700	80.800000
2041.110175	70.300000
2042.800881	94.800000
2044.494671	90.200000
2046.184694	95.800000
2047.876088	82.100000
2049.565429	81.300000
2051.256140	92.400000
2052.943088	87.000000
2054.629697	76.500000
2056.317675	83.400000
2058.001894	85.600000
2059.687484	73.100000
2061.372734	62.900000
2063.055935	71.100000
2064.740507	81.400000
2066.419616	77.400000
2068.103510	97.500000
2069.781943	75.600000
2071.463454	76.100000
2073.141213	86.700000
2074.818636	90.200000
2076.497428	90.000000
2078.174178	71.000000
2079.848886	89.100000
2081.524963	88.400000
2083.199000	88.700000
2084.872701	73.700000
2086.546067	75.700000
2088.217394	62.200000
2089.888387	101.900000
2091.559046	92.000000
2093.229371	88.800000
2094.899362	77.000000
2096.567317	94.200000
2098.234939	87.100000
2099.900526	88.500000
2101.567482	83.100000
2103.232405	97.500000
2104.896996	85.400000
2106.559555	90.600000
2108.223482	69.300000
2109.885378	78.400000
2111.546944	93.800000
2113.208178	68.300000
2114.867384	94.100000
2116.526259	81.100000
2118.184805	77.800000
2119.843020	72.100000
2121.497513	75.200000
2123.155070	76.300000
2124.812298	72.100000
2126.465804	95.200000
2128.120678	84.300000
2129.771833	79.000000
2131.426051	84.900000
2133.076552	83.800000
2134.728419	79.700000
2136.374878	77.500000
2138.026092	68.700000
2139.673592	72.800000
2141.322459	81.100000
2142.969307	88.700000
2144.615830	74.400000
2146.262027	89.200000
2147.904516	80.600000
2149.550063	100.400000
2151.191903	97.500000
2152.836800	80.700000
2154.477991	82.900000
2156.118860	81.400000
2157.759404	86.700000
2159.397936	89.300000
2161.037834	85.000000
2162.674032	77.000000
2164.311596	88.000000
2165.948838	78.900000
2167.584070	88.700000
2169.218981	81.900000
2170.853569	81.500000
2172.487837	95.400000
2174.118411	78.900000
2175.752037	71.700000
2177.381971	92.800000
2179.013270	98.000000
2180.642564	80.800000
2182.271539	96.900000
2183.900194	86.700000
2185.528530	93.200000
2187.154864	90.100000
2188.780879	94.100000
2190.404892	66.300000
2192.030271	91.500000
2193.653649	72.400000
2195.278392	87.600000
2196.899454	86.400000
2198.520199	105.900000
2200.142309	82.900000
2201.762421	70.500000
2203.380536	88.900000
2204.998336	92.100000
2206.615821	88.800000
2208.232990	103.900000
2209.849844	75.600000
2211.466382	86.600000
2213.080928	96.200000
2214.693481	112.900000
2216.307398	72.900000
2217.919324	95.100000
2219.532613	76.100000
2221.143912	80.200000
2222.753221	85.600000
2224.363894	88.800000
2225.972578	92.300000
2227.580949	96.000000
2229.187334	82.900000
2230.795082	84.300000
2232.400843	73.700000
2234.006293	97.100000
2235.609758	91.900000
2237.214586	92.700000
2238.817430	76.200000
2240.418291	86.400000
2242.020515	78.300000
2243.620757	93.400000
2245.222361	104.100000
2246.820312	93.800000
2248.419626	91.300000
2250.016960	96.100000
2251.613986	75.300000
2253.212374	91.100000
2254.807113	85.400000
2256.399875	102.500000
2257.994000	92.900000
2259.589486	98.700000
2261.181327	72.300000
2262.772862	87.600000
2264.365759	85.700000
2265.953346	95.800000
2267.545629	94.700000
2269.132606	96.800000
2270.722610	84.000000
2272.307310	99.800000
2273.896704	92.900000
2275.480796	96.900000
2277.066248	90.600000
2278.649732	99.200000
2280.236241	89.700000
2281.819117	89.100000
2283.401690	77.700000
2284.983959	101.800000
2286.562598	80.500000
2288.144262	90.400000
2289.722297	81.300000
2291.303355	102.800000
2292.880786	93.150000
2294.456254	83.500000
2296.034744	84.400000
2297.609610	84.900000
2299.184175	89.800000
2300.758440	97.100000
2302.332404	83.300000
2303.906067	97.700000
2305.479431	92.200000
2307.049176	93.700000
2308.618622	86.500000
2310.191086	94.500000
2311.758276	80.000000
2313.328484	74.300000
2314.895077	82.000000
2316.463030	96.100000
2318.029027	92.300000
2319.594727	111.900000
2321.160129	89.600000
2322.723578	95.100000
2324.288386	89.500000
2325.849586	83.300000
2327.413800	101.200000
2328.972752	102.800000
2330.534719	88.000000
2332.094734	90.700000
2333.654455	94.500000
2335.212226	99.700000
2336.769702	88.600000
2338.326884	83.300000
2339.882118	95.900000
2341.437059	102.200000
2342.991705	74.600000
2344.546058	104.100000
2346.100118	96.300000
2347.653883	96.600000
2349.205704	93.900000
2350.755583	92.500000
2352.308469	83.800000
2353.856112	82.700000
2355.406764	92.700000
2356.953824	107.600000
2358.502242	91.000000
2360.050369	78.100000
2361.594907	81.100000
2363.140803	84.300000
2364.684761	92.900000
2366.230076	98.900000
2367.771806	81.300000
2369.314893	98.300000
2370.856044	85.700000
2372.396906	118.000000
2373.937479	78.400000
2375.477763	94.800000
2377.017758	93.900000
2378.554175	95.600000
2380.093593	80.500000
2381.629433	95.000000
2383.166631	82.800000
2384.700253	100.000000
2386.236875	80.400000
2387.771567	94.800000
2389.304329	84.000000
2390.836804	105.200000
2392.367351	109.300000
2393.900896	104.000000
2395.429230	89.300000
2396.958921	98.100000
2398.488325	97.200000
2400.017445	104.800000
2401.546280	109.600000
2403.069909	80.600000
2404.598174	120.400000
2406.121237	94.700000
2407.648933	101.900000
2409.169790	113.500000
2410.695280	121.500000
2412.217209	105.000000
2413.740494	101.900000
2415.261857	103.100000
2416.781301	93.200000
2418.302100	102.900000
2419.820981	105.800000
2421.339579	112.400000
2422.856260	100.000000
2424.374295	100.600000
2425.892049	106.700000
2427.406252	93.800000
2428.920174	102.900000
2430.433816	111.200000
2431.948813	117.400000
2433.460261	103.900000
2434.973064	95.700000
2436.483953	111.400000
2437.994564	113.800000
2439.503263	108.700000
2441.014948	103.100000
2442.523090	107.500000
2444.030954	92.400000
2445.538540	116.100000
2447.042585	99.600000
2448.549615	115.200000
2450.054737	106.200000
2451.559582	101.200000
2453.062520	105.500000
2454.565182	106.600000
2456.067567	90.300000
2457.568047	88.400000
2459.069880	86.100000
2460.569808	99.600000
2462.069461	91.500000
2463.568839	96.500000
2465.066314	92.200000
2466.561887	108.200000
2468.060440	102.900000
2469.555465	112.800000
2471.051842	85.900000
2472.544693	108.800000
2474.038897	107.700000
2475.532827	97.100000
2477.023233	88.900000
2478.516617	89.800000
2480.008103	110.100000
2481.497692	107.800000
2482.987009	104.100000
2484.474430	108.000000
2485.964827	108.300000
2487.451706	119.200000
2488.939936	100.500000
2490.424649	87.100000
2491.909093	85.100000
2493.394887	113.900000
2494.878790	118.500000
2496.364043	97.200000
2497.844163	100.400000
2499.327256	104.700000
2500.808458	93.800000
2502.289391	76.200000
2503.768435	89.700000
2505.247210	84.300000
2506.725717	107.500000
2508.203956	92.800000
2509.681926	103.900000
2511.156391	106.100000
2512.633826	105.000000
2514.107757	88.900000
2515.583038	99.500000
2517.058052	103.300000
2518.529565	81.900000
2520.002429	95.500000
2521.473410	105.700000
2522.945741	122.000000
2524.412958	123.500000
2525.883142	100.600000
2527.351445	111.000000
2528.819483	103.900000
2530.287256	105.500000
2531.754764	104.800000
2533.222007	101.400000
2534.685758	100.800000
2536.150859	105.800000
2537.614083	105.500000
2539.078656	125.900000
2540.539741	105.300000
2542.002175	110.000000
2543.464346	116.600000
2544.923031	98.400000
2546.386287	109.000000
2547.844448	94.400000
2549.303957	98.500000
2550.758372	107.400000
2552.217358	115.200000
2553.674472	93.600000
2555.129715	113.700000
2556.584696	89.400000
2558.037809	81.500000
2559.492270	91.200000
2560.944861	95.400000
2562.397193	98.700000
2563.847658	91.600000
2565.301078	117.900000
2566.749416	93.100000
2568.200709	122.800000
2569.650137	113.900000
2571.096092	85.500000
2572.545002	108.900000
2573.990442	102.900000
2575.437229	113.900000
2576.882154	119.700000
2578.326820	113.800000
2579.772834	114.200000
2581.215382	96.100000
2582.659277	117.400000
2584.099707	111.400000
2585.541484	123.700000
2586.981402	115.500000
2588.422667	105.400000
2589.860470	130.300000
2591.301223	122.900000
2592.736914	100.600000
2594.175554	123.200000
2595.612336	112.200000
2597.047263	105.300000
2598.485137	126.600000
2599.917954	111.800000
2601.352118	121.000000
2602.784428	126.600000
2604.218084	127.100000
2605.649887	137.000000
2607.081436	121.400000
2608.512733	122.800000
2609.942177	134.900000
2611.371369	121.100000
2612.798711	130.200000
2614.227398	123.200000
2615.655834	149.400000
2617.080822	149.800000
2618.507157	147.300000
2619.931643	128.400000
2621.357475	154.600000
2622.779863	139.200000
2624.203597	147.200000
2625.625484	123.900000
2627.047122	157.700000
2628.466914	149.300000
2629.888052	149.800000
2631.308940	170.600000
2632.726390	138.700000
2634.146779	153.000000
2635.563731	174.300000
2636.980434	145.800000
2638.396889	149.400000
2639.813096	162.500000
2641.229055	155.700000
2642.643173	179.300000
2644.057043	157.200000
2645.469075	149.900000
2646.882450	164.100000
2648.292396	168.400000
2649.705278	177.300000
2651.114731	197.000000
2652.523938	171.200000
2653.931309	176.300000
2655.341614	184.200000
2656.750084	174.700000
2658.156718	199.500000
2659.563107	183.900000
2660.967662	216.100000
2662.373561	192.500000
2663.777627	196.200000
2665.181448	189.400000
2666.585025	199.500000
2667.986771	202.300000
2669.389860	210.800000
2670.789531	214.000000
2672.190546	222.100000
2673.588145	230.500000
2674.988674	242.500000
2676.385787	220.200000
2677.784244	222.200000
2679.180874	212.800000
2680.577261	230.000000
2681.973406	229.700000
2683.367725	215.600000
2684.763387	201.200000
2686.155640	225.600000
2687.549235	223.100000
2688.941006	213.400000
2690.334120	225.900000
2691.725410	234.400000
2693.114877	210.200000
2694.504104	218.100000
2695.893092	238.300000
2697.283421	208.400000
2698.668767	224.100000
2700.057036	227.200000
2701.443485	213.900000
2702.829695	214.400000
2704.215666	191.900000
2705.598239	220.700000
2706.982154	197.300000
2708.365831	215.300000
2709.749269	221.500000
2711.129313	204.600000
2712.510697	176.100000
2713.890267	200.400000
2715.271177	166.400000
2716.650273	204.500000
2718.027555	168.300000
2719.406178	184.200000
2720.782988	170.500000
2722.159561	192.300000
2723.535899	156.600000
2724.910426	175.400000
2726.286293	157.900000
2727.658773	161.000000
2729.034169	154.600000
2730.404605	144.300000
2731.776382	146.500000
2733.147924	152.100000
2734.517658	134.900000
2735.888733	143.600000
2737.257999	137.100000
2738.627032	153.000000
2739.994259	122.800000
2741.361252	137.900000
2742.728013	130.200000
2744.094542	120.100000
2745.459265	137.600000
2746.823756	118.800000
2748.188016	128.300000
2749.552043	128.400000
2750.915839	123.200000
2752.276261	138.000000
2753.639593	124.200000
2754.997983	121.700000
2756.359283	118.800000
2757.717213	119.600000
2759.078051	106.800000
2760.437090	96.400000
2761.792760	115.100000
2763.151338	104.500000
2764.506549	124.400000
2765.861531	117.100000
2767.214717	119.600000
2768.570809	113.100000
2769.923536	104.800000
2771.276036	111.200000
2772.628307	117.200000
2773.981916	119.700000
2775.332165	107.700000
2776.680619	97.800000
2778.031979	106.000000
2779.379979	138.000000
2780.729317	118.600000
2782.076863	120.900000
2783.424183	113.800000
2784.771276	105.900000
2786.116578	99.400000
2787.461653	111.200000
2788.806503	114.300000
2790.151127	111.200000
2791.492399	108.900000
2792.835009	100.100000
2794.177393	99.600000
2795.519552	111.000000
2796.858362	114.500000
2798.200072	105.100000
2799.538434	121.100000
2800.878132	114.600000
2802.216046	126.700000
2803.552175	115.100000
2804.888080	107.700000
2806.225323	106.600000
2807.560782	108.300000
2808.896018	108.700000
2810.229471	91.600000
2811.564261	124.700000
2812.895711	98.200000
2814.230056	117.100000
2815.559503	110.300000
2816.890287	117.600000
2818.220849	97.000000
2819.549632	104.800000
2820.879751	104.500000
2822.208092	96.800000
2823.536212	130.400000
2824.862554	104.100000
2826.190233	113.400000
2827.514578	99.300000
2828.840260	88.300000
2830.164166	119.100000
2831.487853	94.200000
2832.812875	105.000000
2834.134567	119.300000
2835.456041	96.900000
2836.777296	127.200000
2838.098332	104.400000
2839.417595	105.800000
2840.738194	110.000000
2842.057022	99.100000
2843.375631	100.300000
2844.692469	109.200000
2846.009090	118.200000
2847.325494	98.300000
2848.640128	109.900000
2849.956098	102.300000
2851.268747	115.400000
2852.582731	112.600000
2853.896499	99.800000
2855.210050	122.400000
2856.521835	119.700000
2857.831853	123.000000
2859.143206	96.100000
2860.451244	113.900000
2861.760616	102.700000
2863.069774	105.200000
2864.378716	96.300000
2865.685894	127.400000
2866.991310	112.900000
2868.298060	110.300000
2869.603047	122.400000
2870.907821	112.700000
2872.210833	100.700000
2873.516726	112.400000
2874.817765	103.100000
2876.120138	91.200000
2877.420751	117.100000
2878.722698	93.700000
2880.024431	120.500000
2881.322861	101.300000
2882.622624	129.300000
2883.920630	121.000000
2885.218424	127.700000
2886.514462	96.200000
2887.811833	118.300000
2889.107448	115.400000
2890.402852	110.900000
2891.698045	116.900000
2892.989941	104.200000
2894.284713	112.900000
2895.576188	108.100000
2896.868996	102.400000
2898.161594	129.800000
2899.450898	115.200000
2900.741534	104.400000
2902.030419	126.000000
2903.320636	111.400000
2904.607562	107.100000
2905.895820	120.700000
2907.182329	121.200000
2908.468629	105.300000
2909.754722	100.800000
2911.039066	114.800000
2912.326281	98.700000
2913.608670	131.200000
2914.892391	108.100000
2916.174366	100.300000
2917.456133	122.100000
2918.736156	113.100000
2920.019048	126.400000
2921.300195	120.200000
2922.578060	108.200000
2923.858794	114.800000
2925.136247	111.800000
2926.413494	107.700000
2927.688999	109.900000
2928.967372	111.400000
2930.240931	117.600000
2931.517357	102.400000
2932.792042	106.500000
2934.064986	106.700000
2935.339262	92.000000
2936.611798	110.600000
2937.884129	107.100000
2939.153188	122.200000
2940.425112	123.000000
2941.695298	93.800000
2942.965280	109.900000
2944.235059	96.400000
2945.503102	96.700000
2946.769408	111.800000
2948.035513	113.300000
2949.302947	104.500000
2950.568647	117.700000
2951.834144	116.400000
2953.099439	104.200000
2954.361469	129.300000
2955.624829	103.700000
2956.887988	94.800000
2958.149415	112.500000
2959.412171	99.100000
2960.673195	88.500000
2961.932489	95.900000
2963.191583	104.000000
2964.450476	95.300000
2965.709169	101.400000
2966.967662	92.600000
2968.224426	85.200000
2969.480990	99.300000
2970.735827	99.900000
2971.991992	91.400000
2973.244903	130.100000
2974.499143	101.700000
2975.753184	115.300000
2977.005499	101.400000
2978.257615	83.100000
2979.508007	112.500000
2980.761254	94.500000
2982.009724	111.000000
2983.261049	121.100000
2984.509124	91.000000
2985.757003	107.200000
2987.004684	113.400000
2988.252168	106.100000
2989.497931	114.200000
2990.743498	119.700000
2991.990392	98.600000
2993.234042	88.900000
2994.479020	87.200000
2995.720754	95.900000
2996.965340	102.300000
2998.208207	98.100000
2999.447833	113.200000
3000.690309	105.800000
3001.929545	96.000000
3003.170109	89.100000
3004.408957	95.900000
3005.647609	107.200000
3006.884546	112.400000
3008.122811	95.900000
3009.359360	111.500000
3010.595716	95.000000
3011.831878	101.500000
3013.066326	104.800000
3014.300582	86.700000
3015.534644	110.300000
3016.766994	115.400000
3017.997632	87.700000
3019.231116	91.700000
3020.462888	134.100000
3021.692950	101.100000
3022.922819	102.900000
3024.150980	105.400000
3025.380466	109.300000
3026.608243	114.100000
3027.835829	110.300000
3029.064742	116.300000
3030.288912	89.300000
3031.515925	122.100000
3032.739714	99.200000
3033.964830	103.900000
3035.188239	124.400000
3036.411458	89.300000
3037.632972	86.400000
3038.857327	110.000000
3040.076947	102.700000
3041.297893	97.900000
3042.518650	104.800000
3043.737703	118.000000
3044.958081	108.000000
3046.175243	99.000000
3047.393731	118.900000
3048.610516	117.600000
3049.827114	98.800000
3051.043523	94.300000
3052.256720	95.400000
3053.472754	83.600000
3054.685576	99.300000
3055.901235	101.400000
3057.112171	87.400000
3058.324432	103.200000
3059.536507	117.900000
3060.748394	104.400000
3061.958585	114.500000
3063.168589	111.700000
3064.378407	81.900000
3065.586529	98.600000
3066.794466	91.800000
3068.000707	116.500000
3069.208273	109.400000
3070.414144	99.450000
3071.619831	89.500000
3072.825332	99.800000
3074.029140	93.100000
3075.234272	102.200000
3076.437711	100.000000
3077.639459	107.200000
3078.841022	108.000000
3080.042402	90.200000
3081.243598	106.400000
3082.443104	100.200000
3083.642427	119.200000
3084.843073	120.500000
3086.042029	100.900000
3087.237791	104.200000
3088.436382	105.300000
3089.631779	101.000000
3090.828499	101.500000
3092.022027	100.700000
3093.218383	110.500000
3094.413053	100.200000
3095.604532	113.800000
3096.800342	102.700000
3097.991458	93.400000
3099.183898	107.800000
3100.373150	112.200000
3101.565227	104.100000
3102.755621	107.000000
3103.942829	117.700000
3105.131360	118.000000
3106.321212	111.800000
3107.507881	113.000000
3108.694369	111.800000
3109.880679	108.200000
3111.068310	107.700000
3112.252759	91.700000
3113.435529	92.000000
3114.621121	106.000000
3115.805034	117.300000
3116.987268	105.900000
3118.169323	110.000000
3119.351200	99.100000
3120.532899	104.900000
3121.712921	92.100000
3122.891266	89.200000
3124.072431	131.600000
3125.250421	107.800000
3126.428235	104.500000
3127.605871	86.500000
3128.781832	94.400000
3129.957616	113.900000
3131.134722	92.300000
3132.310153	110.400000
3133.483911	94.700000
3134.655996	98.800000
3135.829403	106.200000
3137.002633	102.300000
3138.174192	88.100000
3139.347071	96.600000
3140.516783	104.700000
3141.687816	109.200000
3142.857179	119.700000
3144.024871	89.000000
3145.195379	115.600000
3146.361229	95.400000
3147.531387	98.700000
3148.696889	112.900000
3149.862216	116.300000
3151.027370	97.700000
3152.192351	96.100000
3153.358651	110.100000
3154.520299	107.600000
3155.683266	103.600000
3156.846061	92.000000
3158.008683	114.200000
3159.169640	105.600000
3160.330424	106.100000
3161.491036	102.800000
3162.649984	99.000000
3163.808761	97.900000
3164.967366	116.200000
3166.125798	112.200000
3167.284060	99.500000
3168.440659	97.900000
3169.595597	114.700000
3170.751854	98.000000
3171.906450	91.100000
3173.060876	103.700000
3174.213642	93.900000
3175.366237	110.700000
3176.518663	98.000000
3177.670919	105.200000
3178.823004	109.400000
3179.971944	99.100000
3181.123690	102.100000
3182.273778	105.100000
3183.422210	110.800000
3184.570472	116.400000
3185.718566	115.300000
3186.866491	119.600000
3188.012760	96.000000
3189.158861	103.800000
3190.303308	106.800000
3191.447587	98.000000
3192.591698	124.600000
3193.737126	108.700000
3194.879416	99.700000
3196.021539	103.700000
3197.163494	105.000000
3198.305282	92.600000
3199.446903	131.500000
3200.585389	113.800000
3201.725192	99.700000
3202.866313	108.700000
3204.004299	105.300000
3205.140636	103.500000
3206.276807	112.700000
3207.414295	106.500000
3208.550135	109.700000
3209.687292	98.700000
3210.819836	105.600000
3211.956662	114.000000
3213.088876	113.800000
3214.222407	85.100000
3215.355774	104.400000
3216.486013	109.000000
3217.619050	102.800000
3218.748961	114.900000
3219.880188	117.100000
3221.008291	95.300000
3222.139190	104.100000
3223.268445	101.700000
3224.396057	107.000000
3225.520546	107.000000
3226.649311	88.100000
3227.774954	109.800000
3228.900435	95.900000
3230.024274	111.200000
3231.150907	107.000000
3232.272943	92.600000
3233.396295	108.600000
3234.519485	101.800000
3235.642512	93.100000
3236.763901	118.500000
3237.885127	106.300000
3239.004716	91.300000
3240.124143	95.800000
3241.241932	96.600000
3242.362513	93.300000
3243.479981	89.500000
3244.597288	101.700000
3245.714435	111.300000
3246.829946	109.200000
3247.946771	107.200000
3249.060487	96.500000
3250.176992	106.700000
3251.291863	110.000000
3252.403625	116.400000
3253.515227	106.700000
3254.628145	99.300000
3255.740903	82.800000
3256.850555	100.300000
3257.961522	97.400000
3259.072330	90.600000
3260.181506	101.300000
3261.289052	95.500000
3262.397911	94.500000
3263.506613	102.600000
3264.612212	93.300000
3265.719125	101.900000
3266.824409	109.800000
3267.931007	91.900000
3269.034505	85.100000
3270.139318	98.400000
3271.243973	95.100000
3272.345529	96.300000
3273.446929	123.800000
3274.549643	114.100000
3275.652201	94.600000
3276.751662	79.700000
3277.853907	99.600000
3278.953056	91.900000
3280.050581	96.200000
3281.147950	124.400000
3282.248101	109.500000
3283.345160	106.600000
3284.442063	95.800000
3285.538811	107.900000
3286.631001	92.500000
3287.727439	100.900000
3288.822255	94.400000
3289.916917	93.200000
3291.009957	118.400000
3292.102842	102.000000
3293.194108	98.600000
3294.286685	99.800000
3295.377643	108.000000
3296.466981	98.800000
3297.556166	106.000000
3298.646664	86.200000
3299.734077	105.900000
3300.821337	97.500000
3301.909910	89.100000
3302.998331	103.700000
3304.082204	102.700000
3305.170319	89.000000
3306.255352	79.600000
3307.338770	113.200000
3308.423500	97.000000
3309.506614	97.600000
3310.591041	104.100000
3311.672389	122.700000
3312.755049	95.300000
3313.836095	93.500000
3314.916990	102.300000
3315.996271	96.600000
3317.075402	113.200000
3318.155845	86.200000
3319.233213	111.600000
3320.311893	111.200000
3321.388961	106.600000
3322.465880	95.600000
3323.541187	89.500000
3324.616345	104.100000
3325.692814	94.900000
3326.766213	90.400000
3327.839463	90.200000
3328.914023	100.500000
3329.986975	102.700000
3331.058318	84.300000
3332.130972	98.600000
3333.200560	94.800000
3334.271458	103.500000
3335.340749	92.300000
3336.411351	98.100000
3337.480346	91.400000
3338.547735	89.400000
3339.613519	99.900000
3340.683529	98.700000
3341.750476	84.100000
3342.814361	89.200000
3343.881014	91.800000
3344.946062	96.800000
3346.009507	93.200000
3347.072806	101.500000
3348.135958	96.900000
3349.198964	95.700000
3350.261824	101.100000
3351.323082	95.900000
3352.381283	91.000000
3353.443704	105.300000
3354.503070	66.500000
3355.562290	109.500000
3356.622820	99.700000
3357.678840	104.400000
3358.737624	104.700000
3359.791901	92.700000
3360.848942	94.900000
3361.904384	98.300000
3362.961136	101.400000
3364.016289	107.700000
3365.069845	88.100000
3366.121805	96.100000
3367.176526	88.100000
3368.228198	113.900000
3369.279727	95.200000
3370.332564	98.100000
3371.382354	89.300000
3372.433453	90.100000
3373.481506	83.800000
3374.532318	114.400000
3375.580086	98.900000
3376.627711	94.000000
3377.675193	112.200000
3378.721083	112.100000
3379.768281	98.800000
3380.812437	98.300000
3381.859351	88.400000
3382.904673	96.200000
3383.946954	84.900000
3384.989095	94.400000
3386.032543	116.500000
3387.075850	104.000000
3388.117568	103.200000
3389.159144	97.100000
3390.200579	90.000000
3391.240426	106.000000
3392.278684	85.700000
3393.318250	102.800000
3394.357676	108.400000
3395.395514	112.500000
3396.431765	99.100000
3397.467877	95.900000
3398.505296	108.400000
3399.539682	109.000000
3400.575375	101.800000
3401.610929	95.400000
3402.643452	87.600000
3403.678728	107.300000
3404.710973	92.900000
3405.743080	104.800000
3406.773603	94.000000
3407.805433	80.400000
3408.837125	104.700000
3409.865789	97.500000
3410.894316	96.800000
3411.924149	105.200000
3412.953845	82.400000
3413.980515	108.200000
3415.008492	85.200000
3416.033444	91.000000
3417.061146	94.000000
3418.085825	102.600000
3419.111810	110.700000
3420.136215	78.900000
3421.160484	92.100000
3422.183174	82.500000
3423.205728	95.100000
3424.229588	101.600000
3425.250428	97.000000
3426.271132	88.900000
3427.293143	102.700000
3428.312135	92.400000
3429.330991	91.900000
3430.351154	105.900000
3431.368300	80.100000
