-118.389184	0.589011
-115.719584	1.569231
-113.052919	2.059540
-110.387006	2.135465
-107.724025	1.872527
-105.059615	1.346254
-102.398135	0.632168
-99.735225	-4.993007
-97.077423	-0.883916
-94.418190	-3.269930
-91.759706	2.337063
-89.104147	2.106294
-86.447159	2.432168
-83.795268	3.697902
-81.141948	2.187413
-78.491548	0.398601
-75.839718	-0.938462
-73.192979	1.632168
-70.544810	1.500699
-67.897385	4.230769
-65.252873	10.563636
-62.606933	10.503497
-59.966074	10.903497
-57.323786	11.706294
-54.684406	8.800000
-52.043598	9.286713
-49.403530	6.360839
-46.768534	4.328671
-44.132109	3.688112
-41.498588	3.337063
-38.863638	5.376224
-36.233753	8.250350
-33.600276	5.794406
-30.971861	3.170629
-28.344179	1.911888
-25.715070	2.813986
-23.091017	-5.703497
-20.463375	-21.363636
-17.840786	-56.588811
-15.218928	-48.699301
-12.597802	78.889510
-9.977405	273.956643
-7.359896	438.377622
-4.740959	547.373427
-2.124908	606.006993
0.490415	617.107692
3.105011	579.381818
5.716724	485.254545
8.329866	344.153846
10.937974	168.651748
13.549664	-1.794406
16.156323	-81.318881
18.764410	-48.966434
21.371773	-3.595804
23.974111	2.401399
26.580027	2.125874
29.180921	0.674126
31.783243	4.352448
34.380548	3.735664
36.981428	0.107692
39.577294	-0.281119
42.174587	0.490909
44.771161	1.646154
47.362726	6.376224
49.955719	5.952448
52.545851	3.693706
55.137411	1.672727
57.726111	1.953846
60.316238	2.304895
62.901367	2.899301
65.487922	-2.243357
68.073764	0.062937
70.656752	1.966434
73.241167	5.160839
75.818452	5.307692
78.399304	8.309091
80.977307	8.629371
83.554600	1.779021
86.133319	-0.546853
88.707057	2.718881
91.282221	0.093706
93.854542	0.987413
96.426155	-0.163636
98.994928	0.963636
101.565128	2.153846
104.132490	4.594406
106.701277	6.804196
109.267228	7.067133
111.830344	8.283916
114.397016	1.818182
116.954467	3.011189
119.517603	5.328671
122.075780	4.552448
124.637510	10.503497
127.194285	13.483916
129.752485	17.425175
132.305733	23.644755
134.858282	35.006993
137.414382	44.825175
139.965535	52.153846
142.515989	61.213986
145.065747	70.490909
147.612685	77.472727
150.158927	81.194406
152.706595	87.134266
155.253568	90.997203
157.795604	93.862937
160.336947	93.053147
162.877597	89.342657
165.419673	90.276923
167.958938	90.934266
170.495393	89.227972
173.031158	89.043357
175.568348	92.587413
178.104846	89.061538
180.638539	88.447552
183.169429	90.776224
185.699630	88.331469
188.231256	86.251748
190.760081	86.089510
193.286107	85.855944
195.811448	86.952448
198.338213	91.376224
200.862181	87.110490
203.385465	87.984615
205.908064	90.107692
208.427870	87.499301
210.946993	87.959441
213.465433	90.058741
215.985297	88.283916
218.498160	88.773427
221.014554	93.162238
223.530266	93.755245
226.041089	95.626573
228.553336	98.338462
231.062800	94.476923
233.571586	93.142657
236.079694	94.163636
238.589225	92.622378
241.093877	93.886713
243.597852	95.546853
246.103251	95.068531
248.603775	96.752448
251.107822	95.890909
253.604899	98.579021
256.105498	98.710490
258.603326	99.504895
261.100481	98.321678
263.596963	97.186014
266.088582	102.359441
268.583721	105.002797
271.076094	108.030769
273.567796	108.061538
276.056735	110.486713
278.547097	111.793007
281.034698	109.632168
283.519539	111.061538
286.007894	106.432168
288.489310	105.345455
290.974240	100.427972
293.454325	99.297902
295.937922	100.538462
298.416676	100.650350
300.896854	103.102098
303.374279	101.243357
305.851041	106.211189
308.327140	108.486713
310.800490	115.416783
313.273178	121.409790
315.745205	121.816783
318.216571	121.770629
320.685193	124.022378
323.153155	122.488112
325.622540	119.274126
328.087102	112.348252
330.555167	107.885315
333.018413	100.696503
335.481002	102.542657
337.942933	100.253147
340.404208	101.205594
342.862749	97.218182
345.322712	96.383217
347.779942	98.952448
350.236518	100.128671
352.692440	97.802797
355.145633	97.005594
357.600247	91.944056
360.050060	93.201399
362.503370	96.450350
364.951880	99.853147
367.399740	101.279720
369.849021	101.219580
372.293509	100.681119
374.739419	107.338462
377.184680	109.513287
379.627222	110.584615
382.069116	109.665734
384.510362	106.945455
386.948893	104.124476
389.388846	102.786014
391.826085	103.271329
394.260612	103.783217
396.698627	105.422378
399.131865	104.813986
401.566525	105.201399
403.996411	107.183217
406.429783	105.850350
408.858385	103.125874
411.286346	100.685315
413.715727	99.310490
416.140343	97.075524
418.566381	96.587413
420.991778	99.639161
423.416535	104.023776
425.836534	106.181818
428.257954	110.132867
430.676677	111.745455
433.096821	113.574825
435.514270	114.201399
437.933139	114.812587
440.349315	117.945455
442.760744	116.993007
445.175649	115.593007
447.587864	114.594406
449.999445	111.780420
452.410392	112.039161
454.818653	109.300699
457.226281	108.671329
459.633278	107.539860
462.039642	108.412587
464.443324	107.325874
466.846376	106.144056
469.248798	104.206993
471.650591	100.600000
474.049705	97.212587
476.450239	91.981818
478.850144	90.690909
481.245326	90.332867
483.643975	89.193007
486.037904	96.054545
488.431207	99.565035
490.823884	103.485315
493.215936	101.523077
495.609407	101.531469
497.998165	96.220979
500.384257	93.998601
502.771769	88.057343
505.158657	80.618182
507.542882	75.682517
509.928526	72.562238
512.311507	73.833566
514.691828	77.172028
517.073568	76.858741
519.452649	76.432168
521.833149	75.517483
524.210991	75.415385
526.586178	73.974825
528.960747	73.144056
531.336735	70.034965
533.710069	66.545455
536.084821	66.755245
538.454888	67.829371
540.824339	65.836364
543.195208	63.440559
545.561397	63.871329
547.929004	61.282517
550.293965	63.043357
552.658313	64.303497
555.022049	65.006993
557.387202	68.177622
559.747682	71.451748
562.109581	73.040559
564.468840	72.664336
566.825460	70.981818
569.185525	68.179021
571.538900	67.316084
573.895719	65.769231
576.249902	63.523077
578.603478	63.290909
580.956445	64.086713
583.306781	62.885315
585.658533	62.465734
588.003609	58.889510
590.354149	59.681119
592.698016	53.682517
595.047343	52.868531
597.392023	55.714685
599.734077	59.489510
602.077549	57.876923
604.418398	61.745455
606.758645	63.444755
609.096271	62.895105
611.437332	63.716084
613.773756	62.130070
616.111596	60.134266
618.446818	61.363636
620.779425	55.706294
623.113448	54.476923
625.444858	53.632168
627.775669	55.076923
630.105882	51.096503
632.435497	54.945455
634.760490	57.972028
637.090924	60.988811
639.416736	65.935664
641.739942	68.316084
644.064563	68.928671
646.386580	66.374825
648.708002	62.783217
651.026821	59.542657
653.347056	54.476923
655.666698	54.605594
657.983739	54.044755
660.300188	54.826573
662.614040	58.082517
664.929306	58.563636
667.241976	58.293706
669.556061	59.732867
671.865546	62.152448
674.176447	60.995804
676.484755	58.990210
678.792475	57.170629
681.101610	54.132867
683.406152	54.618182
685.710107	53.146853
688.013477	51.132867
690.318261	53.426573
692.618459	54.765035
694.920071	52.113287
697.221099	53.598601
699.517544	54.386014
701.815405	53.046154
704.112682	53.123077
706.409376	52.341259
708.701494	48.062937
710.997023	49.313287
713.287979	46.847552
715.580349	49.253147
717.870143	50.843357
720.159358	54.871329
722.447992	50.313287
724.734055	53.159441
727.021531	53.083916
729.306437	58.583217
731.590764	56.955245
733.872523	52.116084
736.155696	51.248951
738.438292	51.311888
740.716333	48.517483
742.995787	49.311888
745.274666	47.825175
747.552969	49.499301
749.826723	50.426573
752.101891	51.983217
754.376485	51.703497
756.648520	55.067133
758.921967	52.496503
761.192857	54.306294
763.461191	55.793007
765.730938	57.281119
767.998131	59.309091
770.264753	61.493706
772.530806	58.047552
774.794306	60.527273
777.059220	62.579021
779.323564	56.959441
781.583379	58.019580
783.844607	57.372028
786.105267	58.478322
788.363380	54.111888
790.618949	53.864336
792.877909	54.730070
795.130370	56.096503
797.388198	54.655944
799.641506	56.476923
801.892275	59.944056
804.144456	60.542657
806.394099	60.759441
808.645153	63.948252
810.891696	61.681119
813.139651	59.072727
815.385072	58.718881
817.631904	61.156643
819.878175	63.005594
822.119942	61.054545
824.365091	58.696503
826.603768	60.732867
828.845828	59.551049
831.083389	59.559441
833.322361	62.193007
835.558807	62.841958
837.796664	62.851748
840.031997	60.542657
842.264805	63.290909
844.499025	61.372028
846.730723	62.552448
848.961866	57.145455
851.192454	56.646154
853.422488	53.914685
855.651967	52.306294
857.876965	47.847552
860.105338	47.973427
862.329232	48.735664
864.554536	49.530070
866.775365	49.710490
868.999566	48.938462
871.219294	48.528671
873.440433	52.145455
875.661021	48.916084
877.879099	53.180420
880.098588	52.152448
882.313610	51.058741
884.528084	49.120280
886.742011	50.997203
888.955390	54.016783
891.168222	53.015385
893.380508	59.600000
895.590291	59.837762
897.799529	61.586014
900.008222	64.441958
902.214416	59.683916
904.422019	62.890909
906.627125	57.551049
908.831687	55.229371
911.033753	54.507692
913.237229	51.337063
915.438211	46.892308
917.638652	43.714685
919.840501	49.600000
922.035958	44.984615
924.234775	45.560839
926.429153	47.679720
928.626889	46.381818
930.820189	49.886713
933.014898	50.818182
935.207121	54.988811
937.398806	58.823776
939.589953	57.572028
941.778617	57.517483
943.966744	60.026573
946.152391	62.565035
948.341390	61.436364
950.525966	63.337063
952.710007	64.668531
954.897398	64.032168
957.076485	68.067133
959.258923	66.400000
961.440827	66.461538
963.620257	64.432168
965.797214	59.779021
967.975578	56.193007
970.155350	57.179021
972.328773	56.335664
974.505542	58.218182
976.677905	58.018182
978.851674	62.455944
981.021040	64.998601
983.193751	69.083916
985.363995	69.479720
987.533711	72.984615
989.702898	72.925874
991.867688	72.381818
994.035819	69.566434
996.199556	71.861538
998.364699	70.608392
1000.527384	72.795804
1002.689542	72.464336
1004.849244	75.237762
1007.008422	69.837762
1009.169006	70.346853
1011.327135	72.065734
1013.484740	72.966434
1015.641822	75.037762
1017.798381	73.601399
1019.950560	71.490909
1022.104145	74.423776
1024.257209	74.005594
1026.407825	72.082517
1028.559846	72.167832
1030.707494	68.907692
1032.858474	70.100699
1035.005083	74.314685
1037.151174	77.212587
1039.296745	81.015385
1041.443722	84.772028
1043.584411	83.051748
1045.728428	83.412587
1047.870005	84.951049
1050.011066	80.110490
1052.153531	77.047552
1054.289717	74.071329
1056.429229	69.606993
1058.564385	73.709091
1060.702866	74.044755
1062.836993	77.986014
1064.970607	81.030769
1067.105626	84.986014
1069.236295	85.832168
1071.368369	87.439161
1073.498014	87.890909
1075.627147	82.725874
1077.755768	80.965035
1079.883878	75.713287
1082.009562	75.065734
1084.134736	75.359441
1086.261314	76.121678
1088.383555	74.353846
1090.507199	75.261538
1092.626510	76.257343
1094.751049	75.772028
1096.869343	75.011189
1098.989042	74.556643
1101.106322	69.025175
1103.223096	69.640559
1105.339363	69.411189
1107.453215	70.383217
1109.568470	69.380420
1111.679403	70.551049
1113.793647	69.545455
1115.903571	72.051748
1118.014899	69.544056
1120.125722	70.268531
1122.232230	73.682517
1124.342046	72.875524
1126.447548	70.046154
1128.554453	70.083916
1130.655143	69.689510
1132.761045	72.991608
1134.862638	74.871329
1136.965634	73.509091
1139.068129	73.525874
1141.164417	71.226573
1143.265913	67.839161
1145.363106	67.366434
1147.459800	73.051748
1149.555996	70.155245
1151.651695	70.639161
1153.746896	67.250350
1155.839700	66.181818
1157.933906	68.590210
1160.021921	65.251748
1162.115134	64.804196
1164.202159	62.486713
1166.292483	60.965035
1168.378520	59.737063
1170.467854	59.523077
1172.551007	62.955245
1174.635563	61.832168
1176.721519	62.942657
1178.803194	61.441958
1180.886271	60.127273
1182.966962	64.959441
1185.047161	67.085315
1187.126869	70.916084
1189.206086	68.987413
1191.282921	71.965035
1193.357375	71.774825
1195.435121	72.538462
1197.508596	74.458741
1199.583472	74.823776
1201.654081	76.460140
1203.726092	77.627972
1205.795726	78.851748
1207.866761	77.602797
1209.937308	71.913287
1212.003594	67.776224
1214.071281	63.990210
1216.136596	63.367832
1218.203311	60.728671
1220.265770	58.586014
1222.331514	56.762238
1224.393005	57.173427
1226.455895	61.707692
1228.516418	64.865734
1230.576457	67.321678
1232.636014	64.191608
1234.693205	61.524476
1236.749915	61.748252
1238.804262	60.847552
1240.861889	61.289510
1242.917154	58.213986
1244.968178	58.247552
1247.020602	58.620979
1249.072546	59.254545
1251.122132	64.033566
1253.171239	67.927273
1255.219868	72.562238
1257.268018	75.258741
1259.315690	77.335664
1261.359131	81.137063
1263.405847	79.254545
1265.450210	78.255944
1267.494097	77.137063
1269.535633	79.078322
1271.574819	75.393007
1273.617277	71.134266
1275.655513	73.720280
1277.695148	74.840559
1279.734308	76.790210
1281.769249	77.667133
1283.805590	79.620979
1285.839585	82.683916
1287.874979	81.008392
1289.906159	78.427972
1291.938738	79.488112
1293.970844	83.179021
1296.000610	79.372028
1298.031774	78.706294
1300.058730	77.847552
1302.087084	79.495105
1304.111234	79.467133
1306.138648	81.345455
1308.161860	82.096503
1310.186470	82.790210
1312.208746	82.665734
1314.232419	80.675524
1316.253759	86.474126
1318.274631	91.092308
1320.295037	92.068531
1322.311248	96.976224
1324.328858	101.281119
1326.344139	108.862937
1328.362678	111.278322
1330.377029	116.387413
1332.389054	117.240559
1334.404336	119.227972
1336.415433	119.162238
1338.427927	115.492308
1340.436238	114.765035
1342.447805	112.758042
1344.453332	110.111888
1346.462115	108.790210
1348.466720	107.032168
1350.474579	103.669930
1352.481976	100.483916
1354.483342	103.629371
1356.486105	101.983217
1358.488407	103.458741
1360.490250	100.956643
1362.491633	94.923077
1364.490703	88.419580
1366.489314	85.930070
1368.487467	84.040559
1370.485162	79.897902
1372.478693	75.141259
1374.473621	71.647552
1376.468092	72.467133
1378.462106	74.597203
1380.453813	71.183217
1382.445064	73.802797
1384.434010	71.478322
1386.424351	66.965035
1388.414237	61.360839
1390.401820	62.362238
1392.388948	61.104895
1394.373776	55.447552
1396.359997	55.134266
1398.343919	55.834965
1400.327388	56.206993
1402.310405	57.127273
1404.291123	59.693706
1406.273237	61.190210
1408.253053	59.965035
1410.232419	57.718881
1412.207645	55.696503
1414.186111	57.605594
1416.162282	59.079720
1418.138005	56.626573
1420.113278	54.365035
1422.086260	55.379021
1424.058794	58.455944
1426.030881	61.227972
1428.002519	62.481119
1429.970029	61.067133
1431.942614	61.558042
1433.907392	61.081119
1435.877243	64.025175
1437.842969	68.586014
1439.810088	66.939860
1441.774924	65.262937
1443.735641	68.023776
1445.701425	71.216783
1447.661254	70.658741
1449.622476	70.103497
1451.585091	66.146853
1453.543591	64.857343
1455.501649	64.215385
1457.459264	59.476923
1459.416438	60.300699
1461.371336	64.581818
1463.327626	64.110490
1465.281642	69.229371
1467.235218	74.268531
1469.186521	72.151049
1471.139216	71.174825
1473.089640	73.493706
1475.039625	71.006993
1476.989170	68.783217
1478.936447	66.320280
1480.881457	67.040559
1482.827858	73.553846
1484.773823	73.518881
1486.719349	72.055944
1488.662611	72.759441
1490.605436	72.433566
1492.545998	72.987413
1494.487951	74.432168
1496.427643	76.420979
1498.366899	76.246154
1500.305720	72.727273
1502.242282	73.793007
1504.180235	77.881119
1506.115930	77.758042
1508.051191	74.138462
1509.984195	75.267133
1511.916767	77.865734
1513.848907	80.619580
1515.780615	85.388811
1517.710069	86.721678
1519.640914	92.655944
1521.571328	92.018182
1523.497668	91.030769
1525.425400	91.204196
1527.350881	93.739860
1529.275933	93.191608
1531.200556	95.234965
1533.124750	101.916084
1535.046697	109.595804
1536.970033	116.139860
1538.891124	124.167832
1540.809970	129.420979
1542.730206	145.843357
1544.648198	156.138462
1546.565764	170.567832
1548.481088	189.288112
1550.397802	215.130070
1552.310461	243.416783
1554.226324	283.362238
1556.139947	325.916084
1558.051333	364.780420
1559.964107	401.393007
1561.872832	434.180420
1563.782947	453.362238
1565.692638	464.713287
1567.601905	454.025175
1569.508939	429.625175
1571.413740	397.293706
1573.319930	357.097902
1575.223888	315.476923
1577.127426	278.746853
1579.030542	241.839161
1580.931430	211.772028
1582.833705	189.179021
1584.733753	170.946853
1586.635188	155.486713
1588.532590	147.237762
1590.429573	137.380420
1592.326138	127.804196
1594.224091	119.800000
1596.116209	112.883916
1598.011520	110.341259
1599.906414	107.854545
1601.799086	107.267133
1603.691342	108.363636
1605.581377	107.535664
1607.470998	104.356643
1609.360202	104.471329
1611.248992	104.152448
1613.135565	99.123077
1615.023524	92.657343
1616.907467	89.225175
1618.792798	83.991608
1620.677714	78.900699
1622.560417	75.309091
1624.444507	73.179021
1626.324586	74.412587
1628.206051	74.956643
1630.085306	73.299301
1631.965947	73.541259
1633.840784	70.316084
1635.720603	71.004196
1637.596416	70.917483
1639.471819	68.453147
1641.348609	64.103497
1643.219601	64.260140
1645.093775	66.163636
1646.963951	67.496503
1648.837307	70.676923
1650.708460	71.889510
1652.577411	72.819580
1654.447748	73.264336
1656.314091	74.581818
1658.181820	79.299301
1660.047351	79.560839
1661.914266	71.941259
1663.777193	68.714685
1665.641505	66.462937
1667.503621	61.902098
1669.365333	60.243357
1671.228429	54.572028
1673.089331	52.474126
1674.948039	50.902098
1676.806344	51.500699
1678.666034	57.800000
1680.519957	59.292308
1682.377052	61.469930
1684.233745	58.316084
1686.086462	60.215385
1687.942349	57.619580
1689.794263	56.026573
1691.645776	55.177622
1693.496888	51.355245
1695.347600	51.071329
1697.197911	50.008392
1699.046038	53.260140
1700.895548	56.370629
1702.739310	56.117483
1704.588021	61.511888
1706.430987	61.724476
1708.277118	63.011189
1710.119288	62.572028
1711.964622	62.577622
1713.804216	65.629371
1715.645194	63.395804
1717.487555	62.800000
1719.325960	63.696503
1721.165748	63.727273
1723.003361	64.068531
1724.840578	63.095105
1726.675622	60.630769
1728.512049	56.829371
1730.346304	53.627972
1732.180164	53.191608
1734.013631	50.601399
1735.843151	55.044755
1737.675830	55.693706
1739.504565	58.083916
1741.336458	59.090909
1743.164408	58.939860
1744.991966	60.029371
1746.819132	58.937063
1748.645907	58.215385
1750.472291	55.664336
1752.294738	55.425175
1754.120339	55.208392
1755.942006	53.759441
1757.765055	54.194406
1759.585943	54.127273
1761.406441	53.338462
1763.228321	54.067133
1765.044501	53.678322
1766.863833	56.429371
1768.679238	56.223776
1770.497793	54.131469
1772.312423	51.346853
1774.126667	49.935664
1775.940523	48.443357
1777.753993	49.208392
1779.565310	48.962238
1781.378008	52.232168
1783.190319	54.482517
1784.998713	56.335664
1786.808488	56.131469
1788.614347	62.311888
1790.423352	63.400000
1792.228444	65.569231
1794.034917	62.928671
1795.841006	58.446154
1797.643185	60.075524
1799.448507	63.958042
1801.249921	61.984615
1803.052715	58.895105
1804.851603	54.297902
1806.651872	52.784615
1808.451759	50.095105
1810.249505	51.783217
1812.046869	55.247552
1813.843854	56.751049
1815.640458	55.556643
1817.434923	55.667133
1819.230767	62.671329
1821.020957	70.970629
1822.816043	65.537063
1824.605476	63.970629
1826.398046	62.198601
1828.188481	60.023776
1829.976782	59.232168
1831.768218	56.118881
1833.554008	59.363636
1835.341178	59.640559
1837.126216	59.102098
1838.914388	59.016783
1840.698674	63.457343
1842.480831	66.949650
1844.264366	61.483916
1846.045773	60.840559
1847.828559	60.131469
1849.607465	60.563636
1851.387749	62.739860
1853.165907	60.069930
1854.945444	59.448951
1856.722856	57.447552
1858.498144	53.766434
1860.274811	51.907692
1862.049354	49.746853
1863.825276	48.036364
1865.595578	44.307692
1867.369006	45.573427
1869.140315	48.240559
1870.911254	50.573427
1872.683569	51.471329
1874.450272	52.071329
1876.220099	53.187413
1877.986063	53.648951
1879.755151	54.633566
1881.520377	57.110490
1883.285234	57.963636
1885.051469	55.611189
1886.813845	49.332867
1888.575854	50.988811
1890.337495	55.613986
1892.098770	53.064336
1893.859677	54.717483
1895.620218	54.622378
1897.378649	57.595804
1899.136715	57.089510
1900.892672	59.580420
1902.650007	60.520280
1904.406975	58.948252
1906.161838	54.552448
1907.914595	46.883916
1909.666989	47.265734
1911.420758	47.198601
1913.172424	46.665734
1914.921988	50.239161
1916.672928	51.093706
1918.423504	55.832168
1920.170241	57.429371
1921.918355	58.661538
1923.664369	61.099301
1925.411759	59.400000
1927.157050	60.730070
1928.900244	57.949650
1930.644814	56.155245
1932.387287	50.372028
1934.129400	54.763636
1935.871153	52.153846
1937.612547	49.229371
1939.351847	49.304895
1941.090787	47.076923
1942.829370	44.253147
1944.565860	44.923077
1946.301993	42.699301
1948.039500	46.523077
1949.773185	49.037762
1951.508245	51.467133
1953.241217	49.857343
1954.973832	58.620979
1956.706090	59.093706
1958.437992	59.820979
1960.167808	60.163636
1961.895540	60.476923
1963.624645	55.839161
1965.353396	52.069930
1967.080063	49.197203
1968.806376	46.490909
1970.534062	43.890909
1972.256212	42.440559
1973.981463	39.478322
1975.702908	41.790210
1977.427452	40.281119
1979.149917	41.620979
1980.868578	44.218182
1982.590338	48.366434
1984.308296	47.737063
1986.027627	47.521678
1987.743159	48.959441
1989.463512	51.225175
1991.180065	51.309091
1992.892823	49.433566
1994.608676	46.476923
1996.322456	45.995804
1998.035887	46.269930
1999.747247	46.939860
2001.459980	46.812587
2003.168921	46.993007
2004.880956	47.539860
2006.587481	49.243357
2008.297099	51.960839
2010.004649	53.460140
2011.711852	50.707692
2013.416989	45.925874
2015.121779	47.216783
2016.827941	48.524476
2018.530321	47.434965
2020.234073	43.600000
2021.935761	45.570629
2023.637105	48.289510
2025.338103	50.030769
2027.037041	51.268531
2028.737349	54.685315
2030.433883	56.951049
2032.131788	57.095105
2033.827634	60.069930
2035.526566	61.177622
2037.220012	56.534266
2038.914830	54.005594
2040.609304	53.068531
2042.300010	54.667133
2043.993800	53.123077
2045.683823	51.158042
2047.375217	49.026573
2049.064558	50.820979
2050.755269	50.993007
2052.442218	51.890909
2054.128826	51.650350
2055.816805	47.883916
2057.501024	46.420979
2059.186613	47.622378
2060.871863	47.132867
2062.555065	47.216783
2064.239636	46.205594
2065.918745	47.539860
2067.602639	47.867133
2069.281073	50.013986
2070.962583	51.262937
2072.640343	55.149650
2074.317765	52.755245
2075.996558	56.310490
2077.673307	58.770629
2079.348015	57.990210
2081.024092	56.534266
2082.698129	52.800000
2084.371830	50.081119
2086.045196	51.820979
2087.716524	51.517483
2089.387517	52.939860
2091.058176	50.939860
2092.728500	53.117483
2094.398491	51.409790
2096.066446	52.914685
2097.734068	54.128671
2099.399655	51.699301
2101.066612	48.109091
2102.731534	44.689510
2104.396125	47.488112
2106.058684	48.258741
2107.722611	47.746853
2109.384508	47.092308
2111.046073	47.878322
2112.707307	52.068531
2114.366513	50.271329
2116.025388	49.559441
2117.683934	50.865734
2119.342150	49.212587
2120.996642	47.748252
2122.654199	48.268531
2124.311427	49.535664
2125.964933	46.925874
2127.619807	45.184615
2129.270963	44.332867
2130.925180	45.145455
2132.575681	45.054545
2134.227548	43.935664
2135.874007	43.881119
2137.525221	43.827972
2139.172721	47.254545
2140.821588	50.864336
2142.468437	54.191608
2144.114959	56.988811
2145.761156	59.469930
2147.403645	59.450350
2149.049192	56.447552
2150.691032	52.965035
2152.335929	50.209790
2153.977121	50.188811
2155.617989	45.016783
2157.258533	47.462937
2158.897065	49.562238
2160.536964	52.920280
2162.173162	54.511888
2163.810726	56.497902
2165.447967	55.795804
2167.083199	52.495105
2168.718110	50.398601
2170.352699	51.011189
2171.986966	50.162238
2173.617541	51.804196
2175.251166	49.883916
2176.881100	50.036364
2178.512399	49.110490
2180.141694	51.190210
2181.770668	52.748252
2183.399324	55.833566
2185.027660	56.306294
2186.653993	56.204196
2188.280008	58.932867
2189.904022	62.019580
2191.529400	59.615385
2193.152779	58.118881
2194.777521	54.248951
2196.398583	50.086713
2198.019328	50.455944
2199.641438	49.935664
2201.261550	47.353846
2202.879665	49.316084
2204.497465	47.629371
2206.114950	47.448951
2207.732119	50.897902
2209.348973	51.983217
2210.965512	49.868531
2212.580057	50.860140
2214.192610	54.069930
2215.806527	56.457343
2217.418453	60.311888
2219.031742	61.334266
2220.643041	60.083916
2222.252350	63.566434
2223.863023	63.535664
2225.471707	61.625175
2227.080079	58.211189
2228.686463	56.146853
2230.294211	50.559441
2231.899972	47.745455
2233.505422	47.327273
2235.108887	43.802797
2236.713716	44.570629
2238.316560	44.495105
2239.917421	44.088112
2241.519645	47.209790
2243.119886	47.422378
2244.721490	46.072727
2246.319442	44.380420
2247.918756	45.163636
2249.516090	46.587413
2251.113115	51.846154
2252.711503	52.864336
2254.306242	52.295105
2255.899004	53.892308
2257.493129	55.001399
2259.088615	53.625175
2260.680457	52.502098
2262.271992	52.141259
2263.864888	55.222378
2265.452475	53.051748
2267.044759	55.871329
2268.631735	57.837762
2270.221740	62.187413
2271.806440	59.574825
2273.395834	60.702098
2274.979925	61.009790
2276.565378	60.282517
2278.148861	57.251748
2279.735371	55.988811
2281.318247	58.275524
2282.900819	59.032168
2284.483088	55.370629
2286.061728	53.318881
2287.643391	49.784615
2289.221426	50.990210
2290.802484	48.751049
2292.379916	50.801399
2293.955383	49.528671
2295.533873	51.483916
2297.108739	52.868531
2298.683304	55.492308
2300.257569	55.993007
2301.831533	55.353846
2303.405197	55.040559
2304.978560	53.869930
2306.548305	52.204196
2308.117751	52.160839
2309.690216	50.830769
2311.257405	47.198601
2312.827613	44.927273
2314.394206	46.776224
2315.962159	47.346853
2317.528156	48.016783
2319.093856	48.453147
2320.659259	51.660140
2322.222707	54.900699
2323.787515	56.689510
2325.348715	55.552448
2326.912929	54.791608
2328.471882	52.588811
2330.033848	47.923077
2331.593864	47.823776
2333.153584	45.769231
2334.711355	44.346853
2336.268831	42.542657
2337.826013	41.760839
2339.381248	47.567832
2340.936188	49.216783
2342.490835	49.471329
2344.045188	48.963636
2345.599247	54.481119
2347.153012	55.639161
2348.704834	54.755245
2350.254712	57.675524
2351.807598	56.802797
2353.355242	55.304895
2354.905893	55.036364
2356.452954	52.251748
2358.001372	55.197203
2359.549498	52.462937
2361.094036	50.510490
2362.639933	48.657343
2364.183890	50.640559
2365.729205	48.844755
2367.270935	49.467133
2368.814022	50.460140
2370.355174	50.216783
2371.896036	50.606993
2373.436609	52.744056
2374.976893	51.297902
2376.516887	53.888112
2378.053304	56.953846
2379.592722	57.123077
2381.128563	55.804196
2382.665760	58.134266
2384.199382	59.510490
2385.736005	57.246154
2387.270696	54.935664
2388.803458	56.016783
2390.335933	52.363636
2391.866481	48.509091
2393.400026	46.486713
2394.928360	46.433566
2396.458050	49.563636
2397.987455	49.149650
2399.516574	50.669930
2401.045409	53.099301
2402.569038	54.325874
2404.097304	56.850350
2405.620366	57.892308
2407.148062	60.685315
2408.668919	59.780420
2410.194409	60.566434
2411.716338	62.671329
2413.239623	65.107692
2414.760987	62.212587
2416.280431	63.002797
2417.801230	63.218182
2419.320110	63.479720
2420.838708	60.146853
2422.355389	61.120280
2423.873424	58.384615
2425.391178	54.254545
2426.905381	54.229371
2428.419303	55.895105
2429.932945	55.658741
2431.447942	56.158042
2432.959390	51.511888
2434.472193	56.555245
2435.983083	55.718881
2437.493693	55.818182
2439.002392	54.647552
2440.514078	58.788811
2442.022219	55.229371
2443.530083	51.601399
2445.037669	55.549650
2446.541714	56.176224
2448.048745	56.127273
2449.553867	55.765035
2451.058712	53.067133
2452.561650	55.069930
2454.064311	51.972028
2455.566696	53.822378
2457.067176	55.097902
2458.569009	57.787413
2460.068938	55.892308
2461.568591	59.383217
2463.067968	62.981818
2464.565443	62.640559
2466.061017	64.352448
2467.559570	61.583217
2469.054594	61.468531
2470.550972	58.288112
2472.043823	57.784615
2473.538026	53.476923
2475.031956	50.560839
2476.522363	50.488112
2478.015746	50.016783
2479.507232	51.633566
2480.996821	51.972028
2482.486138	53.372028
2483.973560	54.244755
2485.463957	51.204196
2486.950835	52.019580
2488.439065	50.345455
2489.923779	49.253147
2491.408222	42.899301
2492.894017	45.300699
2494.377919	50.160839
2495.863173	50.906294
2497.343293	53.471329
2498.826385	52.871329
2500.307587	53.156643
2501.788520	50.967832
2503.267564	49.914685
2504.746339	49.060140
2506.224846	48.406993
2507.703085	47.039161
2509.181055	47.423776
2510.655521	51.709091
2512.132955	50.338462
2513.606886	49.279720
2515.082168	52.349650
2516.557182	52.518881
2518.028695	52.313287
2519.501558	52.275524
2520.972539	52.420979
2522.444870	45.579021
2523.912088	45.496503
2525.382271	47.892308
2526.850574	47.124476
2528.318612	46.395804
2529.786385	42.325874
2531.253893	46.797203
2532.721136	51.127273
2534.184887	56.559441
2535.649988	54.323077
2537.113212	57.274126
2538.577786	55.924476
2540.038870	55.986014
2541.501304	57.595804
2542.963475	55.251748
2544.422160	54.246154
2545.885417	51.629371
2547.343577	50.851748
2548.803086	50.527273
2550.257502	48.875524
2551.716487	46.675524
2553.173601	42.745455
2554.628844	45.548252
2556.083826	46.002797
2557.536938	50.716084
2558.991399	51.230769
2560.443991	53.819580
2561.896323	57.690909
2563.346787	56.634965
2564.800207	57.462937
2566.248545	57.774825
2567.699839	54.058741
2569.149266	50.339860
2570.595221	47.864336
2572.044132	47.665734
2573.489571	49.165035
2574.936359	51.123077
2576.381283	54.233566
2577.825950	54.643357
2579.271964	53.467133
2580.714511	53.173427
2582.158406	53.641958
2583.598836	60.358042
2585.040613	56.751049
2586.480531	58.781818
2587.921796	57.549650
2589.359600	60.661538
2590.800353	61.611189
2592.236043	58.513287
2593.674683	57.608392
2595.111466	52.830769
2596.546392	53.532867
2597.984267	54.419580
2599.417083	58.096503
2600.851247	60.695105
2602.283557	57.682517
2603.717213	60.756643
2605.149016	62.130070
2606.580566	67.751049
2608.011862	69.861538
2609.441306	70.896503
2610.870499	72.020979
2612.297840	71.580420
2613.726528	70.521678
2615.154963	68.633566
2616.579951	65.981818
2618.006286	61.103497
2619.430772	64.379021
2620.856604	63.820979
2622.278992	65.946853
2623.702726	67.011189
2625.124613	73.751049
2626.546251	76.648951
2627.966043	78.648951
2629.387181	80.293706
2630.808069	81.314685
2632.225519	83.665734
2633.645908	88.565035
2635.062860	94.685315
2636.479564	100.809790
2637.896019	101.335664
2639.312226	101.699301
2640.728184	99.474126
2642.142302	105.566434
2643.556173	104.006993
2644.968204	105.514685
2646.381580	107.725874
2647.791526	109.899301
2649.204407	111.051748
2650.613861	117.430769
2652.023068	118.669930
2653.430439	123.787413
2654.840744	127.566434
2656.249213	129.833566
2657.655847	129.239161
2659.062236	131.043357
2660.466791	132.937063
2661.872690	132.334266
2663.276756	134.781818
2664.680578	134.006993
2666.084155	133.630769
2667.485900	134.339860
2668.888989	134.773427
2670.288661	140.774825
2671.689675	139.847552
2673.087274	140.383217
2674.487803	138.699301
2675.884917	140.097902
2677.283374	143.611189
2678.680003	142.875524
2680.076390	145.623776
2681.472536	146.363636
2682.866855	144.409790
2684.262517	143.109091
2685.654769	144.485315
2687.048365	144.955245
2688.440136	142.363636
2689.833249	140.283916
2691.224539	139.562238
2692.614006	139.434965
2694.003233	134.770629
2695.392221	133.155245
2696.782551	129.469930
2698.167896	126.946853
2699.556165	122.220979
2700.942614	119.215385
2702.328824	118.668531
2703.714796	116.646154
2705.097368	115.731469
2706.481283	114.539860
2707.864960	116.411189
2709.248399	118.015385
2710.628442	113.254545
2712.009827	112.194406
2713.389396	107.534266
2714.770307	103.721678
2716.149403	99.251748
2717.526684	94.960839
2718.905307	93.800000
2720.282117	91.651748
2721.658691	89.191608
2723.035029	88.703497
2724.409555	90.206993
2725.785422	88.125874
2727.157902	84.876923
2728.533298	83.151049
2729.903734	77.879720
2731.275511	70.664336
2732.647053	66.969231
2734.016787	66.625175
2735.387862	65.441958
2736.757129	63.864336
2738.126162	63.043357
2739.493388	61.200000
2740.860382	64.622378
2742.227143	65.202797
2743.593671	68.212587
2744.958394	70.840559
2746.322886	68.632168
2747.687145	63.752448
2749.051172	63.516084
2750.414968	63.089510
2751.775390	57.830769
2753.138723	57.732867
2754.497113	55.486713
2755.858413	53.027972
2757.216342	52.265734
2758.577181	51.636364
2759.936219	51.163636
2761.291889	55.137063
2762.650467	52.078322
2764.005679	49.440559
2765.360661	49.398601
2766.713846	48.689510
2768.069938	46.709091
2769.422666	51.558042
2770.775165	52.288112
2772.127436	52.672727
2773.481046	49.258741
2774.831294	50.172028
2776.179749	50.097902
2777.531108	52.900699
2778.879108	51.805594
2780.228447	49.054545
2781.575993	50.402797
2782.923312	49.739860
2784.270405	47.974825
2785.615707	51.548252
2786.960783	49.833566
2788.305633	48.662937
2789.650256	46.227972
2790.991528	46.190210
2792.334138	45.132867
2793.676522	49.223776
2795.018682	50.102098
2796.357492	49.320280
2797.699201	50.348252
2799.037563	50.018182
2800.377262	45.979021
2801.715175	47.220979
2803.051304	45.854545
2804.387209	48.539860
2805.724452	48.121678
2807.059911	49.313287
2808.395147	49.267133
2809.728600	50.102098
2811.063391	48.075524
2812.394840	48.788811
2813.729185	47.862937
2815.058632	50.483916
2816.389416	49.464336
2817.719978	48.972028
2819.048761	48.246154
2820.378880	49.172028
2821.707221	49.443357
2823.035341	50.225175
2824.361684	50.734266
2825.689362	50.946853
2827.013708	53.020979
2828.339389	53.970629
2829.663295	53.276923
2830.986982	56.311888
2832.312004	54.709091
2833.633696	50.872727
2834.955170	46.920280
2836.276425	45.991608
2837.597461	43.359441
2838.916725	42.927273
2840.237324	40.862937
2841.556151	41.716084
2842.874760	42.085315
2844.191598	39.744056
2845.508220	41.109091
2846.824623	41.868531
2848.139258	43.236364
2849.455227	45.700699
2850.767876	47.475524
2852.081861	48.920280
2853.395628	46.871329
2854.709180	47.639161
2856.020964	43.411189
2857.330982	44.440559
2858.642335	42.727273
2859.950373	41.496503
2861.259746	40.179021
2862.568903	36.813986
2863.877845	36.146853
2865.185024	37.804196
2866.490439	39.152448
2867.797189	40.612587
2869.102176	42.222378
2870.406950	42.763636
2871.709962	43.890909
2873.015856	46.076923
2874.316894	43.737063
2875.619267	45.261538
2876.919880	42.913287
2878.221827	40.483916
2879.523561	39.609790
2880.821990	40.437762
2882.121754	41.668531
2883.419759	42.271329
2884.717553	40.709091
2886.013591	41.013986
2887.310962	45.325874
2888.606577	46.813986
2889.901981	48.927273
2891.197175	54.460140
2892.489070	56.485315
2893.783842	57.942657
2895.075317	59.359441
2896.368125	56.786014
2897.660723	54.434965
2898.950027	48.197203
2900.240663	44.167832
2901.529548	39.766434
2902.819766	35.720280
2904.106692	31.304895
2905.394950	29.546853
2906.681458	27.769231
2907.967759	28.012587
2909.253851	30.653147
2910.538195	34.085315
2911.825411	38.338462
2913.107799	44.218182
2914.391520	47.248951
2915.673495	49.225175
2916.955263	50.881119
2918.235285	49.054545
2919.518177	43.373427
2920.799324	37.713287
2922.077189	36.074126
2923.357923	34.767832
2924.635376	37.314685
2925.912623	38.346853
2927.188129	41.524476
2928.466502	46.187413
2929.740060	47.674126
2931.016486	50.334266
2932.291171	53.474126
2933.564116	48.706294
2934.838391	43.851748
2936.110927	42.030769
2937.383259	44.788811
2938.652317	43.264336
2939.924241	46.125874
2941.194427	46.015385
2942.464410	48.174825
2943.734189	50.937063
2945.002231	53.450350
2946.268538	53.629371
2947.534642	53.310490
2948.802076	47.055944
2950.067776	42.377622
2951.333273	40.737063
2952.598568	38.450350
2953.860598	34.146853
2955.123959	33.012587
2956.387117	33.163636
2957.648544	36.413986
2958.911300	38.907692
2960.172325	43.593007
2961.431618	39.420979
2962.690712	42.358042
2963.949605	41.104895
2965.208298	40.634965
2966.466791	40.103497
2967.723555	40.104895
2968.980119	34.574825
2970.234956	33.812587
2971.491122	37.854545
2972.744032	38.532867
2973.998272	39.006993
2975.252313	39.423776
2976.504628	35.286713
2977.756745	36.892308
2979.007137	36.772028
2980.260384	35.577622
2981.508854	33.962238
2982.760178	35.793007
2984.008254	33.328671
2985.256132	39.267133
2986.503813	41.209790
2987.751298	43.034965
2988.997061	45.709091
2990.242627	44.195804
2991.489521	43.741259
2992.733171	40.418182
2993.978149	38.976224
2995.219884	36.766434
2996.464470	34.200000
2997.707336	33.772028
2998.946962	32.935664
3000.189438	35.931469
3001.428675	32.117483
3002.669239	35.567832
3003.908086	34.239161
3005.146739	30.451748
3006.383676	31.457343
3007.621940	30.868531
3008.858490	30.776224
3010.094845	31.780420
3011.331007	31.096503
3012.565456	33.306294
3013.799711	31.758042
3015.033773	34.949650
3016.266123	35.258741
3017.496761	40.153846
3018.730245	40.188811
3019.962017	37.837762
3021.192079	37.152448
3022.421949	37.686713
3023.650109	37.605594
3024.879595	41.202797
3026.107373	44.348252
3027.334959	51.069930
3028.563871	46.650350
3029.788041	45.346853
3031.015054	43.325874
3032.238843	43.812587
3033.463959	39.290909
3034.687368	33.833566
3035.910588	30.386014
3037.132102	29.865734
3038.356457	28.927273
3039.576077	30.939860
3040.797022	32.973427
3042.017779	37.012587
3043.236832	32.945455
3044.457211	33.320280
3045.674373	33.169231
3046.892860	35.500699
3048.109646	34.892308
3049.326243	37.507692
3050.542652	35.006993
3051.755849	35.083916
3052.971883	34.230769
3054.184705	35.806993
3055.400364	40.225175
3056.611300	46.174825
3057.823561	49.142657
3059.035636	50.120280
3060.247524	46.615385
3061.457714	48.346853
3062.667718	45.365035
3063.877537	41.451748
3065.085659	34.864336
3066.293595	34.843357
3067.499837	30.190210
3068.707402	30.657343
3069.913274	33.969231
3071.118960	37.220979
3072.324461	36.377622
3073.528269	38.019580
3074.733401	37.253147
3075.936841	41.956643
3077.138588	40.393007
3078.340152	40.313287
3079.541532	41.025175
3080.742728	42.535664
3081.942234	39.563636
3083.141556	42.809790
3084.342202	42.219580
3085.541158	36.050350
3086.736920	32.927273
3087.935511	32.447552
3089.130908	30.349650
3090.327628	29.777622
3091.521156	27.034965
3092.717513	28.598601
3093.912182	30.511888
3095.103661	33.109091
3096.299471	36.510490
3097.490588	40.872727
3098.683027	38.276923
3099.872279	33.967832
3101.064357	34.904895
3102.254750	31.432168
3103.441958	32.846154
3104.630489	31.461538
3105.820342	31.032168
3107.007010	33.111888
3108.193499	33.485315
3109.379808	33.836364
3110.567439	36.886713
3111.751889	36.826573
3112.934658	36.567832
3114.120251	35.048951
3115.304163	32.083916
3116.486397	33.290909
3117.668452	34.506294
3118.850330	34.720280
3120.032029	31.674126
3121.212050	32.993007
3122.390395	33.360839
3123.571561	34.462937
3124.749551	34.513287
3125.927364	36.591608
3127.105000	34.977622
3128.280961	31.559441
3129.456745	30.282517
3130.633851	29.841958
3131.809282	28.548252
3132.983040	27.579021
3134.155126	22.893706
3135.328532	24.506294
3136.501763	26.040559
3137.673321	25.815385
3138.846201	27.072727
3140.015913	30.762238
3141.186946	26.834965
3142.356308	27.200000
3143.524001	26.707692
3144.694509	27.065734
3145.860358	29.046154
3147.030517	29.483916
3148.196018	28.153846
3149.361346	30.583217
3150.526500	32.759441
3151.691480	32.088112
3152.857781	31.390210
3154.019428	31.612587
3155.182396	28.088112
3156.345190	26.647552
3157.507812	28.597203
3158.668769	31.406993
3159.829553	28.693706
3160.990165	29.609790
3162.149114	29.902098
3163.307890	32.304895
3164.466495	33.184615
3165.624928	33.732867
3166.783189	34.068531
3167.939788	35.351049
3169.094726	35.788811
3170.250983	35.594406
3171.405580	40.453147
3172.560005	39.843357
3173.712771	39.376224
3174.865367	36.567832
3176.017792	37.004196
3177.170048	36.251748
3178.322134	34.930070
3179.471073	35.965035
3180.622819	36.302098
3181.772907	33.563636
3182.921339	32.386014
3184.069602	28.970629
3185.217695	29.797203
3186.365620	31.746853
3187.511890	35.258741
3188.657991	32.980420
3189.802437	33.977622
3190.946716	35.188811
3192.090827	32.560839
3193.236256	37.076923
3194.378545	35.686713
3195.520668	31.320280
3196.662623	32.215385
3197.804412	33.820979
3198.946033	38.909091
3200.084518	39.400000
3201.224321	40.187413
3202.365442	40.516084
3203.503428	35.772028
3204.639765	34.962238
3205.775936	31.370629
3206.913425	31.521678
3208.049264	26.197203
3209.186421	27.911888
3210.318965	32.977622
3211.455791	37.602797
3212.588005	41.227972
3213.721537	40.602797
3214.854903	42.127273
3215.985142	43.520280
3217.118179	39.286713
3218.248090	40.113287
3219.379318	40.013986
3220.507420	38.660140
3221.638319	36.609790
3222.767575	37.372028
3223.895186	34.458741
3225.019676	35.904895
3226.148441	38.173427
3227.274084	37.683916
3228.399564	36.321678
3229.523403	36.001399
3230.650036	33.111888
3231.772072	32.813986
3232.895424	33.416783
3234.018614	33.289510
3235.141642	30.048951
3236.263030	27.862937
3237.384257	29.313287
3238.503845	34.116084
3239.623272	35.058741
3240.741061	34.372028
3241.861643	31.475524
3242.979110	30.756643
3244.096418	29.397203
3245.213564	27.584615
3246.329075	28.323077
3247.445901	27.057343
3248.559616	24.738462
3249.676122	24.781818
3250.790992	27.411189
3251.902754	28.513287
3253.014357	29.132867
3254.127274	30.251748
3255.240033	28.102098
3256.349685	29.553846
3257.460652	32.716084
3258.571459	33.941259
3259.680636	38.415385
3260.788181	35.874126
3261.897041	36.994406
3263.005742	36.230769
3264.111341	37.458741
3265.218254	31.717483
3266.323539	30.581818
3267.430137	29.039161
3268.533635	22.661538
3269.638447	19.025175
3270.743102	20.551049
3271.844658	21.737063
3272.946059	22.997203
3274.048773	19.606993
3275.151330	22.426573
3276.250792	22.772028
3277.353036	25.044755
3278.452185	25.697902
3279.549710	30.243357
3280.647079	32.718881
3281.747231	28.509091
3282.844289	28.981818
3283.941192	30.083916
3285.037941	30.848951
3286.130130	24.286713
3287.226568	18.158042
3288.321385	14.504895
3289.416046	13.770629
3290.509086	17.304895
3291.601972	20.222378
3292.693237	24.029371
3293.785815	28.260140
3294.876772	28.600000
3295.966110	31.773427
3297.055295	33.997203
3298.145793	37.681119
3299.233206	34.636364
3300.320467	35.613986
3301.409040	33.429371
3302.497460	31.759441
3303.581333	30.089510
3304.669448	26.892308
3305.754482	26.640559
3306.837899	27.430769
3307.922629	22.841958
3309.005744	23.429371
3310.090170	21.990210
3311.171518	22.173427
3312.254178	20.897902
3313.335224	22.257343
3314.416119	21.896503
3315.495401	23.223776
3316.574532	26.893706
3317.654974	29.342657
3318.732343	31.927273
3319.811022	32.822378
3320.888091	32.939860
3321.965009	33.434965
3323.040316	30.034965
3324.115474	24.924476
3325.191943	22.995804
3326.265342	21.560839
3327.338592	23.874126
3328.413153	28.216783
3329.486104	34.520280
3330.557448	38.962238
3331.630102	39.197203
3332.699689	38.661538
3333.770587	40.103497
3334.839878	36.516084
3335.910480	35.555245
3336.979475	31.384615
3338.046864	31.141259
3339.112648	31.630769
3340.182658	32.504895
3341.249605	33.657343
3342.313490	36.376224
3343.380143	37.924476
3344.445191	33.625175
3345.508636	31.766434
3346.571935	29.075524
3347.635088	26.995804
3348.698094	26.598601
3349.760953	27.597203
3350.822211	31.539860
3351.880412	32.151049
3352.942834	32.455944
3354.002199	36.076923
3355.061419	35.134266
3356.121949	34.565035
3357.177969	32.408392
3358.236754	27.149650
3359.291031	23.674126
3360.348071	22.303497
3361.403514	21.570629
3362.460265	22.572028
3363.515419	22.172028
3364.568975	24.579021
3365.620934	29.125874
3366.675655	27.851748
3367.727327	24.723077
3368.778856	24.331469
3369.831694	25.612587
3370.881484	21.148252
3371.932582	20.233566
3372.980635	18.316084
3374.031448	15.246154
3375.079215	13.400000
3376.126840	15.507692
3377.174322	21.352448
3378.220212	23.316084
3379.267410	22.639161
3380.311566	28.082517
3381.358480	35.054545
3382.403802	38.734266
3383.446084	39.306294
3384.488224	36.295105
3385.531672	32.062937
3386.574980	29.454545
3387.616697	27.815385
3388.658273	25.851748
3389.699709	26.973427
3390.739555	27.693706
3391.777814	23.892308
3392.817380	27.036364
3393.856805	31.349650
3394.894643	30.416783
3395.930895	32.190210
3396.967006	30.651748
3398.004425	33.363636
3399.038811	34.436364
3400.074504	36.714685
3401.110058	35.384615
3402.142581	38.162238
3403.177857	32.151049
3404.210102	24.500699
3405.242209	24.005594
3406.272732	23.468531
3407.304563	24.325874
3408.336254	25.321678
3409.364919	26.019580
3410.393445	28.444755
3411.423279	29.777622
3412.452974	29.565035
3413.479644	29.338462
3414.507621	30.637762
3415.532573	26.717483
3416.560275	27.506294
3417.584954	26.331469
3418.610939	25.636364
3419.635344	28.882517
3420.659613	27.135664
3421.682303	25.446154
3422.704857	24.724476
3423.728717	27.321678
3424.749557	25.562238
3425.770262	28.547652
3426.792272	30.498002
3427.811264	30.324476
3428.830121	26.938262
3429.850283	19.250549
3430.867429	6.172527
