-117.841134	1.880000
-115.171534	2.130000
-112.504869	2.810000
-109.838956	3.120000
-107.175976	7.090000
-104.511565	6.020000
-101.850085	-0.070000
-99.187176	4.460000
-96.529373	5.430000
-93.870141	0.790000
-91.211657	6.270000
-88.556098	1.450000
-85.899109	4.560000
-83.247219	2.390000
-80.593899	-0.060000
-77.943498	-0.040000
-75.291669	-0.970000
-72.644930	-5.410000
-69.996761	2.910000
-67.349335	-1.480000
-64.704824	0.730000
-62.058883	0.930000
-59.418024	4.390000
-56.775736	-0.310000
-54.136357	1.220000
-51.495548	1.070000
-48.855480	2.730000
-46.220485	0.240000
-43.584060	1.600000
-40.950538	5.360000
-38.315588	1.060000
-35.685703	4.710000
-33.052226	0.840000
-30.423811	9.350000
-27.796130	-0.720000
-25.167020	6.390000
-22.542967	2.140000
-19.915325	8.610000
-17.292737	11.410000
-14.670879	10.580000
-12.049752	25.140000
-9.429356	55.180000
-6.811847	183.930000
-4.192910	585.130000
-1.576858	1422.960000
1.038465	1720.730000
3.653060	923.680000
6.264774	119.110000
8.877916	19.350000
11.486024	9.310000
14.097713	5.900000
16.704373	10.080000
19.312460	10.430000
21.919823	0.640000
24.522161	3.190000
27.128077	7.780000
29.728971	1.600000
32.331293	-1.520000
34.928597	-1.620000
37.529478	3.140000
40.125343	2.970000
42.722637	4.870000
45.319211	2.060000
47.910776	2.700000
50.503769	0.280000
53.093901	-0.200000
55.685460	2.590000
58.274161	1.410000
60.864288	-1.320000
63.449416	7.260000
66.035972	2.430000
68.621814	0.780000
71.204802	3.860000
73.789216	4.400000
76.366502	1.990000
78.947354	3.250000
81.525357	-1.400000
84.102650	6.320000
86.681369	2.210000
89.255106	-0.800000
91.830271	2.170000
94.402592	9.190000
96.974205	-0.820000
99.542978	2.940000
102.113178	-0.410000
104.680539	-0.580000
107.249327	3.700000
109.815278	0.230000
112.378394	0.780000
114.945066	5.780000
117.502516	1.130000
120.065653	2.680000
122.623829	5.810000
125.185560	13.310000
127.742334	14.630000
130.300534	21.100000
132.853782	34.200000
135.406332	38.260000
137.962432	47.290000
140.513584	69.480000
143.064039	78.130000
145.613796	83.150000
148.160734	90.640000
150.706977	97.970000
153.254645	102.050000
155.801617	101.380000
158.343654	100.750000
160.884997	92.290000
163.425647	104.630000
165.967723	97.830000
168.506987	96.870000
171.043442	95.450000
173.579207	100.090000
176.116397	94.070000
178.652896	93.860000
181.186589	93.490000
183.717478	92.380000
186.247679	94.580000
188.779306	92.220000
191.308131	94.020000
193.834157	82.560000
196.359497	95.730000
198.886262	92.480000
201.410231	91.370000
203.933515	89.010000
206.456113	93.570000
208.975919	92.630000
211.495042	96.770000
214.013483	92.230000
216.533347	94.450000
219.046210	87.360000
221.562604	97.750000
224.078316	96.830000
226.589138	95.690000
229.101385	95.910000
231.610849	89.110000
234.119635	93.120000
236.627743	93.450000
239.137275	97.660000
241.641926	93.250000
244.145901	101.240000
246.651300	95.890000
249.151824	96.470000
251.655871	102.740000
254.152948	100.970000
256.653548	94.300000
259.151376	101.950000
261.648531	103.220000
264.145013	102.650000
266.636632	100.650000
269.131771	105.550000
271.624143	105.670000
274.115845	99.480000
276.604784	102.910000
279.095146	104.230000
281.582747	104.260000
284.067588	107.650000
286.555944	106.670000
289.037360	109.820000
291.522290	109.750000
294.002375	105.080000
296.485972	104.680000
298.964726	113.680000
301.444903	114.560000
303.922329	107.510000
306.399091	110.350000
308.875189	111.410000
311.348540	116.300000
313.821228	115.360000
316.293255	125.640000
318.764621	130.600000
321.233242	152.570000
323.701204	142.600000
326.170589	132.550000
328.635151	130.200000
331.103217	121.090000
333.566463	111.590000
336.029051	111.830000
338.490983	109.590000
340.952258	114.270000
343.410798	114.430000
345.870762	111.810000
348.327992	113.140000
350.784568	114.670000
353.240490	108.640000
355.693682	107.730000
358.148297	116.500000
360.598110	110.520000
363.051419	110.560000
365.499929	109.780000
367.947789	112.480000
370.397071	110.880000
372.841559	113.810000
375.287469	109.560000
377.732729	106.590000
380.175271	105.260000
382.617165	105.480000
385.058412	113.800000
387.496943	111.790000
389.936895	104.260000
392.374134	107.050000
394.808662	109.690000
397.246677	110.590000
399.679915	108.050000
402.114574	111.860000
404.544461	104.670000
406.977833	110.060000
409.406435	111.640000
411.834395	106.860000
414.263777	110.010000
416.688393	107.220000
419.114431	104.970000
421.539828	112.910000
423.964585	114.350000
426.384584	107.580000
428.806003	110.110000
431.224727	108.880000
433.644871	114.760000
436.062320	105.990000
438.481189	108.120000
440.897365	105.940000
443.308793	104.570000
445.723698	109.660000
448.135914	106.610000
450.547495	107.600000
452.958442	105.050000
455.366703	105.720000
457.774331	103.010000
460.181327	102.160000
462.587692	97.390000
464.991374	103.340000
467.394426	100.980000
469.796848	101.030000
472.198640	99.800000
474.597754	98.230000
476.998288	94.880000
479.398193	95.980000
481.793376	97.830000
484.192025	99.400000
486.585953	92.990000
488.979256	108.430000
491.371934	99.990000
493.763986	98.970000
496.157456	93.710000
498.546214	94.650000
500.932306	93.860000
503.319818	90.980000
505.706707	97.920000
508.090932	111.320000
510.476575	126.320000
512.859557	150.540000
515.239878	186.320000
517.621618	223.400000
520.000699	225.270000
522.381198	205.650000
524.759041	181.290000
527.134227	158.500000
529.508797	138.420000
531.884784	128.930000
534.258119	112.170000
536.632871	106.250000
539.002937	102.720000
541.372389	94.790000
543.743258	90.600000
546.109446	87.950000
548.477053	81.610000
550.842015	77.530000
553.206363	82.060000
555.570098	80.620000
557.935251	75.820000
560.295732	74.470000
562.657631	73.590000
565.016889	71.490000
567.373509	74.750000
569.733575	69.750000
572.086949	62.980000
574.443768	68.200000
576.797952	63.920000
579.151527	64.600000
581.504495	64.980000
583.854830	67.770000
586.206583	64.940000
588.551659	62.680000
590.902198	62.040000
593.246065	62.270000
595.595393	63.120000
597.940072	61.920000
600.282127	63.670000
602.625599	58.340000
604.966448	65.720000
607.306694	59.080000
609.644320	57.380000
611.985381	67.880000
614.321805	64.300000
616.659645	59.840000
618.994868	59.030000
621.327475	61.730000
623.661498	58.060000
625.992907	54.660000
628.323718	55.960000
630.653931	53.270000
632.983547	56.090000
635.308539	54.540000
637.638973	57.990000
639.964786	52.890000
642.287991	54.100000
644.612613	56.720000
646.934629	58.370000
649.256051	53.730000
651.574870	52.590000
653.895106	51.490000
656.214748	54.830000
658.531789	50.700000
660.848238	43.810000
663.162089	51.190000
665.477356	47.350000
667.790026	51.630000
670.104111	50.360000
672.413596	53.220000
674.724497	49.310000
677.032805	46.780000
679.340525	50.540000
681.649659	51.680000
683.954201	46.140000
686.258157	48.970000
688.561527	51.430000
690.866311	45.050000
693.166508	49.170000
695.468121	50.060000
697.769148	45.510000
700.065594	40.600000
702.363455	41.480000
704.660732	48.370000
706.957426	43.190000
709.249544	41.520000
711.545073	43.330000
713.836028	42.390000
716.128398	45.260000
718.418193	45.470000
720.707407	46.240000
722.996042	44.280000
725.282104	41.010000
727.569581	39.490000
729.854486	40.210000
732.138814	47.080000
734.420573	41.990000
736.703746	45.860000
738.986342	43.020000
741.264382	46.120000
743.543837	44.630000
745.822715	38.540000
748.101019	44.930000
750.374773	46.820000
752.649940	42.450000
754.924534	46.930000
757.196569	48.700000
759.470017	45.130000
761.740907	46.130000
764.009241	47.150000
766.278988	46.690000
768.546180	39.290000
770.812803	46.840000
773.078855	48.410000
775.342356	47.190000
777.607270	49.460000
779.871614	46.240000
782.131429	45.240000
784.392656	51.390000
786.653316	53.140000
788.911430	48.130000
791.166999	52.000000
793.425959	46.860000
795.678419	43.410000
797.936247	49.560000
800.189556	50.140000
802.440325	48.440000
804.692506	43.270000
806.942148	48.510000
809.193202	45.010000
811.439746	44.970000
813.687701	47.300000
815.933122	50.270000
818.179954	45.230000
820.426225	47.200000
822.667991	45.570000
824.913141	47.510000
827.151818	39.690000
829.393877	45.400000
831.631438	40.920000
833.870411	45.180000
836.106857	42.990000
838.344714	36.660000
840.580046	40.340000
842.812855	40.930000
845.047074	44.050000
847.278772	36.830000
849.509915	39.510000
851.740503	35.740000
853.970537	38.800000
856.200017	42.220000
858.425015	36.520000
860.653388	38.530000
862.877281	40.560000
865.102586	40.510000
867.323415	39.570000
869.547616	41.710000
871.767344	42.310000
873.988482	41.850000
876.209070	43.280000
878.427149	40.280000
880.646637	43.380000
882.861659	39.480000
885.076133	48.220000
887.290060	36.730000
889.503440	39.530000
891.716272	43.150000
893.928558	37.380000
896.138341	43.480000
898.347579	38.590000
900.556272	41.020000
902.762465	38.800000
904.970069	43.680000
907.175174	44.190000
909.379736	44.060000
911.581803	36.550000
913.785279	43.800000
915.986261	41.610000
918.186701	42.220000
920.388550	38.810000
922.584008	37.350000
924.782825	36.040000
926.977203	41.760000
929.174939	44.900000
931.368239	48.090000
933.562948	48.050000
935.755171	49.340000
937.946855	48.000000
940.138002	55.980000
942.326666	52.220000
944.514794	50.280000
946.700441	58.470000
948.889440	52.370000
951.074016	52.910000
953.258057	57.640000
955.445448	52.440000
957.624535	60.050000
959.806973	58.700000
961.988877	58.020000
964.168306	60.020000
966.345263	62.540000
968.523628	54.920000
970.703400	59.990000
972.876823	54.730000
975.053592	58.500000
977.225954	61.860000
979.399724	65.380000
981.569090	60.900000
983.741800	64.750000
985.912045	66.040000
988.081760	59.440000
990.250948	60.730000
992.415738	61.830000
994.583869	58.540000
996.747605	58.940000
998.912749	58.740000
1001.075433	53.580000
1003.237592	61.980000
1005.397294	58.750000
1007.556471	56.210000
1009.717055	58.890000
1011.875184	61.860000
1014.032790	57.110000
1016.189872	56.290000
1018.346430	58.900000
1020.498609	60.300000
1022.652195	61.550000
1024.805259	57.520000
1026.955874	64.700000
1029.107896	59.570000
1031.255544	60.560000
1033.406524	60.610000
1035.553133	61.990000
1037.699223	59.050000
1039.844795	67.420000
1041.991772	64.710000
1044.132460	65.240000
1046.276478	62.000000
1048.418055	63.870000
1050.559115	64.510000
1052.701581	64.060000
1054.837766	60.220000
1056.977278	68.720000
1059.112435	62.560000
1061.250916	63.990000
1063.385043	65.670000
1065.518657	66.630000
1067.653675	66.620000
1069.784345	64.490000
1071.916419	65.430000
1074.046064	59.350000
1076.175197	63.970000
1078.303818	61.570000
1080.431928	59.340000
1082.557612	59.050000
1084.682786	57.580000
1086.809364	57.980000
1088.931604	54.810000
1091.055249	54.860000
1093.174559	48.590000
1095.299098	50.750000
1097.417393	51.000000
1099.537092	50.050000
1101.654372	53.100000
1103.771145	47.860000
1105.887413	49.670000
1108.001264	54.760000
1110.116520	48.080000
1112.227452	51.520000
1114.341697	49.200000
1116.451621	48.010000
1118.562949	45.550000
1120.673772	51.980000
1122.780279	52.550000
1124.890095	44.810000
1126.995598	45.840000
1129.102503	45.670000
1131.203193	48.260000
1133.309095	45.890000
1135.410688	48.110000
1137.513684	46.950000
1139.616179	40.120000
1141.712467	50.970000
1143.813962	46.610000
1145.911155	45.110000
1148.007850	46.900000
1150.104046	41.910000
1152.199744	44.290000
1154.294945	45.210000
1156.387749	39.530000
1158.481955	39.520000
1160.569970	48.530000
1162.663184	41.580000
1164.750209	44.100000
1166.840533	43.530000
1168.926569	46.570000
1171.015904	43.050000
1173.099057	41.430000
1175.183612	42.470000
1177.269569	43.120000
1179.351244	42.220000
1181.434320	40.730000
1183.515011	40.540000
1185.595211	42.920000
1187.674919	42.750000
1189.754136	41.010000
1191.830971	36.940000
1193.905424	38.400000
1195.983170	46.410000
1198.056646	41.870000
1200.131522	40.160000
1202.202131	41.650000
1204.274141	43.840000
1206.343775	40.370000
1208.414810	42.000000
1210.485358	40.130000
1212.551644	35.070000
1214.619331	38.660000
1216.684646	36.700000
1218.751361	37.670000
1220.813820	41.530000
1222.879564	40.980000
1224.941054	40.080000
1227.003945	37.450000
1229.064468	40.150000
1231.124507	36.970000
1233.184063	36.950000
1235.241255	36.340000
1237.297965	41.150000
1239.352311	40.160000
1241.409939	35.630000
1243.465203	32.940000
1245.516228	30.610000
1247.568652	31.870000
1249.620596	35.720000
1251.670182	36.500000
1253.719289	36.440000
1255.767917	38.560000
1257.816067	32.350000
1259.863739	34.290000
1261.907180	36.680000
1263.953897	37.090000
1265.998260	32.940000
1268.042147	37.250000
1270.083682	33.500000
1272.122868	33.550000
1274.165327	37.780000
1276.203563	38.980000
1278.243198	33.470000
1280.282358	30.640000
1282.317299	35.550000
1284.353639	34.060000
1286.387635	37.260000
1288.423028	32.540000
1290.454209	32.820000
1292.486787	35.090000
1294.518894	36.390000
1296.548660	28.220000
1298.579823	30.160000
1300.606780	31.510000
1302.635134	34.060000
1304.659283	39.840000
1306.686698	31.630000
1308.709910	36.150000
1310.734520	35.740000
1312.756796	41.660000
1314.780468	34.180000
1316.801808	29.380000
1318.822681	28.900000
1320.843086	30.470000
1322.859298	34.350000
1324.876907	35.450000
1326.892188	34.540000
1328.910728	33.220000
1330.925079	30.570000
1332.937103	34.020000
1334.952386	36.570000
1336.963483	35.900000
1338.975977	39.460000
1340.984288	36.230000
1342.995854	35.840000
1345.001382	35.330000
1347.010165	34.470000
1349.014770	33.710000
1351.022629	32.070000
1353.030026	34.720000
1355.031392	35.370000
1357.034154	33.000000
1359.036457	36.740000
1361.038300	30.570000
1363.039683	39.590000
1365.038753	35.640000
1367.037364	32.820000
1369.035516	30.340000
1371.033211	33.360000
1373.026743	34.960000
1375.021670	31.410000
1377.016141	32.770000
1379.010155	31.400000
1381.001862	39.620000
1382.993113	26.230000
1384.982059	34.970000
1386.972401	34.390000
1388.962287	36.220000
1390.949869	32.290000
1392.936998	35.380000
1394.921825	33.490000
1396.908047	34.180000
1398.891968	33.670000
1400.875437	33.360000
1402.858454	30.550000
1404.839173	36.210000
1406.821286	31.640000
1408.801103	35.450000
1410.780468	33.020000
1412.755695	33.400000
1414.734160	36.370000
1416.710332	34.790000
1418.686054	33.000000
1420.661328	35.760000
1422.634310	34.010000
1424.606844	35.960000
1426.578930	35.710000
1428.550569	34.540000
1430.518079	31.760000
1432.490663	30.760000
1434.455441	39.150000
1436.425292	29.280000
1438.391019	29.420000
1440.358138	32.160000
1442.322974	31.420000
1444.283690	31.540000
1446.249474	36.100000
1448.209303	28.850000
1450.170526	33.410000
1452.133140	25.010000
1454.091640	32.380000
1456.049698	31.650000
1458.007314	30.690000
1459.964487	30.200000
1461.919385	31.870000
1463.875676	32.680000
1465.829692	38.330000
1467.783267	33.990000
1469.734570	31.000000
1471.687265	36.340000
1473.637689	36.730000
1475.587674	28.480000
1477.537220	34.800000
1479.484497	32.450000
1481.429506	33.670000
1483.375908	32.560000
1485.321872	33.150000
1487.267399	28.010000
1489.210660	37.650000
1491.153486	30.260000
1493.094047	32.320000
1495.036001	32.520000
1496.975692	37.520000
1498.914948	31.790000
1500.853770	36.350000
1502.790332	27.070000
1504.728285	30.070000
1506.663979	37.080000
1508.599240	33.200000
1510.532244	30.850000
1512.464817	35.870000
1514.396956	31.180000
1516.328664	39.370000
1518.258119	35.510000
1520.188964	37.290000
1522.119377	33.030000
1524.045718	35.060000
1525.973449	34.670000
1527.898931	33.190000
1529.823983	37.390000
1531.748606	29.380000
1533.672799	34.380000
1535.594746	31.800000
1537.518083	35.660000
1539.439173	31.510000
1541.358019	31.460000
1543.278255	36.640000
1545.196248	30.940000
1547.113813	31.730000
1549.029138	34.660000
1550.945852	36.100000
1552.858511	40.270000
1554.774373	39.000000
1556.687997	37.350000
1558.599382	37.170000
1560.512157	34.990000
1562.420882	29.980000
1564.330996	34.230000
1566.240687	40.060000
1568.149955	41.090000
1570.056989	37.970000
1571.961790	35.580000
1573.867979	40.340000
1575.771938	34.140000
1577.675475	39.200000
1579.578592	42.430000
1581.479479	39.160000
1583.381755	39.710000
1585.281803	45.830000
1587.183238	44.620000
1589.080640	41.940000
1590.977623	51.890000
1592.874188	48.950000
1594.772140	53.630000
1596.664258	43.430000
1598.559570	36.500000
1600.454464	38.830000
1602.347136	34.180000
1604.239391	35.360000
1606.129427	36.430000
1608.019047	37.300000
1609.908252	32.520000
1611.797041	34.370000
1613.683614	35.350000
1615.571574	37.080000
1617.455517	35.080000
1619.340847	33.190000
1621.225764	34.660000
1623.108467	33.990000
1624.992557	32.880000
1626.872635	34.530000
1628.754101	34.410000
1630.633356	33.200000
1632.513997	35.930000
1634.388834	32.140000
1636.268652	35.360000
1638.144466	36.070000
1640.019869	27.980000
1641.896658	37.330000
1643.767651	27.720000
1645.641825	32.850000
1647.512000	35.630000
1649.385356	34.890000
1651.256509	34.470000
1653.125461	31.730000
1654.995797	35.700000
1656.862141	30.970000
1658.729870	30.500000
1660.595400	35.950000
1662.462316	33.210000
1664.325242	31.060000
1666.189555	31.180000
1668.051671	34.140000
1669.913382	35.710000
1671.776479	28.570000
1673.637380	31.030000
1675.496089	33.200000
1677.354394	30.850000
1679.214083	35.190000
1681.068006	35.350000
1682.925102	33.760000
1684.781794	28.920000
1686.634511	33.000000
1688.490399	33.190000
1690.342313	34.120000
1692.193826	30.670000
1694.044938	35.450000
1695.895649	30.320000
1697.745960	32.210000
1699.594087	32.100000
1701.443598	37.680000
1703.287359	30.970000
1705.136071	28.010000
1706.979036	35.620000
1708.825168	33.240000
1710.667337	31.000000
1712.512672	32.940000
1714.352266	38.960000
1716.193244	27.900000
1718.035605	35.710000
1719.874010	39.630000
1721.713798	32.460000
1723.551410	32.700000
1725.388628	32.140000
1727.223672	28.800000
1729.060099	33.400000
1730.894353	29.910000
1732.728214	33.440000
1734.561680	31.870000
1736.391200	31.470000
1738.223880	27.750000
1740.052615	32.480000
1741.884507	31.490000
1743.712457	32.690000
1745.540015	32.380000
1747.367182	39.330000
1749.193957	33.900000
1751.020340	34.200000
1752.842787	34.470000
1754.668389	31.010000
1756.490056	29.950000
1758.313104	29.420000
1760.133992	29.840000
1761.954491	31.950000
1763.776370	36.000000
1765.592550	28.360000
1767.411883	33.470000
1769.227287	29.910000
1771.045843	35.460000
1772.860473	30.270000
1774.674716	30.520000
1776.488573	36.290000
1778.302043	27.960000
1780.113360	29.340000
1781.926057	35.710000
1783.738369	28.590000
1785.546762	34.050000
1787.356537	30.950000
1789.162397	33.320000
1790.971402	28.590000
1792.776494	23.910000
1794.582967	32.060000
1796.389056	37.860000
1798.191234	31.580000
1799.996557	32.260000
1801.797971	29.270000
1803.600765	28.530000
1805.399653	33.250000
1807.199922	33.670000
1808.999809	35.340000
1810.797554	30.490000
1812.594919	31.550000
1814.391903	31.800000
1816.188508	38.340000
1817.982973	36.100000
1819.778817	33.670000
1821.569006	35.730000
1823.364092	35.080000
1825.153525	29.360000
1826.946096	33.730000
1828.736531	29.900000
1830.524832	32.190000
1832.316267	33.910000
1834.102058	34.570000
1835.889228	34.980000
1837.674266	31.120000
1839.462438	32.370000
1841.246724	32.080000
1843.028880	31.340000
1844.812416	28.700000
1846.593823	33.370000
1848.376609	34.220000
1850.155514	34.150000
1851.935798	33.190000
1853.713957	34.050000
1855.493494	32.300000
1857.270905	30.100000
1859.046194	29.680000
1860.822860	33.040000
1862.597404	32.570000
1864.373325	31.660000
1866.143627	26.990000
1867.917056	32.450000
1869.688365	37.180000
1871.459303	37.150000
1873.231619	34.560000
1874.998321	37.020000
1876.768148	32.920000
1878.534112	36.950000
1880.303200	31.050000
1882.068426	34.250000
1883.833284	35.240000
1885.599519	29.020000
1887.361895	32.690000
1889.123903	38.560000
1890.885545	28.370000
1892.646819	27.440000
1894.407727	31.740000
1896.168268	35.280000
1897.926699	34.820000
1899.684764	28.630000
1901.440722	34.560000
1903.198056	25.530000
1904.955025	30.320000
1906.709887	28.290000
1908.462645	33.710000
1910.215038	35.730000
1911.968808	28.580000
1913.720474	31.790000
1915.470038	36.540000
1917.220977	32.040000
1918.971553	37.140000
1920.718291	34.560000
1922.466404	35.400000
1924.212419	29.600000
1925.959808	28.530000
1927.705100	31.790000
1929.448294	27.580000
1931.192863	33.440000
1932.935336	35.950000
1934.677450	29.200000
1936.419203	33.490000
1938.160596	33.680000
1939.899896	34.530000
1941.638837	32.460000
1943.377419	32.140000
1945.113910	33.360000
1946.850043	32.050000
1948.587550	30.740000
1950.321235	32.500000
1952.056295	34.050000
1953.789266	30.220000
1955.521881	35.070000
1957.254140	33.120000
1958.986042	31.390000
1960.715858	28.810000
1962.443589	32.290000
1964.172695	30.880000
1965.901445	31.980000
1967.628113	34.390000
1969.354426	32.460000
1971.082112	30.430000
1972.804262	41.030000
1974.529513	32.140000
1976.250957	33.400000
1977.975501	29.640000
1979.697966	33.820000
1981.416628	32.110000
1983.138388	33.500000
1984.856346	37.180000
1986.575677	38.210000
1988.291209	30.770000
1990.011561	33.050000
1991.728115	34.490000
1993.440872	33.020000
1995.156725	34.740000
1996.870506	35.160000
1998.583937	33.290000
2000.295297	33.480000
2002.008029	33.440000
2003.716971	35.240000
2005.429005	34.010000
2007.135530	35.330000
2008.845148	35.720000
2010.552698	29.290000
2012.259901	31.330000
2013.965038	32.340000
2015.669829	35.720000
2017.375991	34.350000
2019.078371	34.060000
2020.782122	34.930000
2022.483811	29.550000
2024.185154	33.230000
2025.886153	34.680000
2027.585090	32.520000
2029.285399	30.150000
2030.981932	34.180000
2032.679837	33.480000
2034.375684	32.900000
2036.074616	30.580000
2037.768062	27.430000
2039.462879	33.470000
2041.157354	35.020000
2042.848060	33.420000
2044.541850	32.140000
2046.231873	36.270000
2047.923267	28.970000
2049.612608	37.290000
2051.303319	34.550000
2052.990267	34.100000
2054.676876	35.270000
2056.364854	30.650000
2058.049073	33.080000
2059.734663	28.370000
2061.419912	31.740000
2063.103114	34.100000
2064.787686	36.280000
2066.466794	35.110000
2068.150689	34.270000
2069.829122	33.970000
2071.510633	31.880000
2073.188392	28.810000
2074.865815	33.000000
2076.544607	32.380000
2078.221357	31.950000
2079.896064	37.620000
2081.572142	33.640000
2083.246178	29.460000
2084.919880	30.680000
2086.593246	35.080000
2088.264573	31.970000
2089.935566	29.160000
2091.606225	29.710000
2093.276550	34.810000
2094.946541	33.890000
2096.614496	33.070000
2098.282117	32.840000
2099.947705	32.670000
2101.614661	33.440000
2103.279584	35.380000
2104.944175	32.500000
2106.606734	28.520000
2108.270661	34.060000
2109.932557	31.750000
2111.594123	35.300000
2113.255357	31.810000
2114.914563	35.110000
2116.573438	33.730000
2118.231984	33.070000
2119.890199	33.820000
2121.544692	35.490000
2123.202249	28.850000
2124.859476	36.500000
2126.512983	33.810000
2128.167857	30.660000
2129.819012	33.550000
2131.473230	31.440000
2133.123730	33.450000
2134.775598	36.080000
2136.422057	35.210000
2138.073271	35.120000
2139.720771	30.890000
2141.369638	33.220000
2143.016486	36.610000
2144.663009	33.150000
2146.309206	31.220000
2147.951695	32.510000
2149.597241	34.280000
2151.239082	32.270000
2152.883979	29.560000
2154.525170	27.870000
2156.166038	34.760000
2157.806583	33.130000
2159.445115	36.130000
2161.085013	37.370000
2162.721211	36.250000
2164.358775	35.900000
2165.996017	31.420000
2167.631249	33.440000
2169.266159	29.280000
2170.900748	28.960000
2172.535016	30.140000
2174.165590	29.040000
2175.799216	31.300000
2177.429150	35.520000
2179.060449	37.740000
2180.689743	33.410000
2182.318718	31.810000
2183.947373	36.770000
2185.575709	31.940000
2187.202043	30.300000
2188.828057	28.680000
2190.452071	31.440000
2192.077450	25.240000
2193.700828	31.180000
2195.325571	34.610000
2196.946633	34.380000
2198.567378	29.790000
2200.189487	37.240000
2201.809599	34.700000
2203.427715	32.280000
2205.045515	34.950000
2206.663000	33.050000
2208.280169	34.590000
2209.897023	28.550000
2211.513561	32.250000
2213.128107	27.050000
2214.740660	29.890000
2216.354577	32.480000
2217.966503	34.260000
2219.579792	30.640000
2221.191091	32.540000
2222.800400	30.060000
2224.411073	28.860000
2226.019757	29.330000
2227.628128	30.890000
2229.234513	28.690000
2230.842260	33.540000
2232.448022	32.070000
2234.053472	27.680000
2235.656937	29.920000
2237.261765	33.610000
2238.864609	31.700000
2240.465470	35.500000
2242.067694	30.580000
2243.667936	33.640000
2245.269540	33.190000
2246.867491	31.730000
2248.466805	30.730000
2250.064139	34.490000
2251.661165	30.660000
2253.259553	31.300000
2254.854292	34.380000
2256.447054	33.030000
2258.041179	30.330000
2259.636665	39.350000
2261.228506	36.340000
2262.820041	34.120000
2264.412938	29.820000
2266.000525	39.220000
2267.592808	33.370000
2269.179785	38.740000
2270.769789	30.250000
2272.354489	34.430000
2273.943883	39.110000
2275.527974	32.910000
2277.113427	33.080000
2278.696911	33.830000
2280.283420	34.940000
2281.866296	32.040000
2283.448869	28.240000
2285.031138	33.010000
2286.609777	33.240000
2288.191441	33.140000
2289.769476	29.980000
2291.350534	29.100000
2292.927965	32.230000
2294.503433	35.360000
2296.081923	33.920000
2297.656789	31.920000
2299.231354	27.700000
2300.805618	30.030000
2302.379583	26.580000
2303.953246	36.170000
2305.526610	32.580000
2307.096355	25.030000
2308.665801	32.700000
2310.238265	32.970000
2311.805455	30.480000
2313.375663	31.470000
2314.942256	30.440000
2316.510209	30.470000
2318.076206	34.680000
2319.641906	32.520000
2321.207308	35.210000
2322.770757	33.930000
2324.335565	37.760000
2325.896765	49.990000
2327.460979	49.030000
2329.019931	52.730000
2330.581897	45.210000
2332.141913	43.170000
2333.701633	31.570000
2335.259405	31.120000
2336.816881	30.770000
2338.374063	28.880000
2339.929297	35.320000
2341.484238	31.820000
2343.038884	29.120000
2344.593237	36.040000
2346.147296	32.920000
2347.701062	32.840000
2349.252883	30.960000
2350.802762	32.360000
2352.355648	29.440000
2353.903291	32.870000
2355.453943	33.110000
2357.001003	34.500000
2358.549421	27.330000
2360.097548	34.210000
2361.642086	29.230000
2363.187982	28.140000
2364.731940	29.830000
2366.277254	29.650000
2367.818985	31.310000
2369.362072	30.820000
2370.903223	32.350000
2372.444085	36.820000
2373.984658	28.230000
2375.524942	33.840000
2377.064937	33.710000
2378.601354	35.550000
2380.140772	29.990000
2381.676612	33.210000
2383.213810	32.310000
2384.747432	40.070000
2386.284054	30.590000
2387.818746	33.300000
2389.351508	33.400000
2390.883983	32.210000
2392.414530	28.130000
2393.948075	32.190000
2395.476409	35.280000
2397.006099	33.780000
2398.535504	32.050000
2400.064624	38.610000
2401.593458	32.060000
2403.117088	33.740000
2404.645353	34.530000
2406.168416	37.040000
2407.696112	32.640000
2409.216969	30.920000
2410.742458	32.740000
2412.264388	29.630000
2413.787672	36.680000
2415.309036	37.270000
2416.828480	36.650000
2418.349279	29.150000
2419.868159	26.530000
2421.386758	32.560000
2422.903439	39.340000
2424.421474	32.770000
2425.939228	34.000000
2427.453430	34.920000
2428.967353	23.380000
2430.480995	36.120000
2431.995992	31.710000
2433.507440	35.280000
2435.020242	30.810000
2436.531132	30.480000
2438.041743	36.510000
2439.550442	38.690000
2441.062127	28.890000
2442.570269	33.760000
2444.078133	30.050000
2445.585718	31.900000
2447.089764	37.810000
2448.596794	32.740000
2450.101916	32.130000
2451.606761	36.680000
2453.109699	35.810000
2454.612361	29.080000
2456.114746	36.940000
2457.615226	26.330000
2459.117059	31.450000
2460.616987	36.590000
2462.116640	26.480000
2463.616018	32.490000
2465.113493	34.760000
2466.609066	28.910000
2468.107619	36.660000
2469.602644	33.780000
2471.099021	33.440000
2472.591872	29.610000
2474.086076	34.840000
2475.580006	30.260000
2477.070412	37.650000
2478.563796	32.540000
2480.055282	29.620000
2481.544871	32.280000
2483.034188	31.040000
2484.521609	34.460000
2486.012006	32.860000
2487.498885	37.100000
2488.987115	31.250000
2490.471828	34.790000
2491.956272	32.360000
2493.442066	28.200000
2494.925969	29.360000
2496.411222	29.870000
2497.891342	33.380000
2499.374435	31.420000
2500.855637	34.380000
2502.336570	35.090000
2503.815614	32.440000
2505.294389	28.640000
2506.772896	35.270000
2508.251135	35.450000
2509.729105	33.050000
2511.203570	35.050000
2512.681005	30.370000
2514.154936	26.600000
2515.630217	26.770000
2517.105231	35.670000
2518.576744	35.030000
2520.049608	36.890000
2521.520589	28.500000
2522.992920	35.180000
2524.460137	32.350000
2525.930321	31.060000
2527.398624	31.800000
2528.866662	28.580000
2530.334435	32.390000
2531.801943	28.050000
2533.269186	24.820000
2534.732937	31.580000
2536.198038	32.990000
2537.661262	26.310000
2539.125835	32.310000
2540.586920	31.700000
2542.049354	31.880000
2543.511525	31.130000
2544.970210	28.110000
2546.433466	31.960000
2547.891626	29.390000
2549.351136	27.070000
2550.805551	26.240000
2552.264537	24.890000
2553.721651	33.460000
2555.176893	31.880000
2556.631875	30.950000
2558.084988	28.930000
2559.539448	27.950000
2560.992040	34.560000
2562.444372	31.160000
2563.894837	36.020000
2565.348257	29.230000
2566.796595	32.660000
2568.247888	33.290000
2569.697316	34.560000
2571.143271	32.200000
2572.592181	31.100000
2574.037621	37.620000
2575.484408	33.570000
2576.929332	34.360000
2578.373999	31.530000
2579.820013	31.610000
2581.262561	35.470000
2582.706456	31.930000
2584.146885	29.250000
2585.588663	27.460000
2587.028581	27.170000
2588.469846	31.550000
2589.907649	30.300000
2591.348402	36.140000
2592.784093	28.300000
2594.222732	30.320000
2595.659515	27.860000
2597.094442	25.660000
2598.532316	32.850000
2599.965133	32.320000
2601.399297	29.180000
2602.831607	29.430000
2604.265263	28.060000
2605.697066	25.830000
2607.128615	34.060000
2608.559912	33.830000
2609.989356	32.360000
2611.418548	31.890000
2612.845890	29.740000
2614.274577	28.550000
2615.703013	27.390000
2617.128001	27.280000
2618.554336	33.830000
2619.978822	32.010000
2621.404654	34.270000
2622.827042	27.900000
2624.250776	31.480000
2625.672663	28.550000
2627.094300	30.430000
2628.514093	32.910000
2629.935231	27.740000
2631.356119	32.430000
2632.773568	27.630000
2634.193958	30.910000
2635.610910	35.570000
2637.027613	30.020000
2638.444068	30.700000
2639.860275	31.520000
2641.276234	35.140000
2642.690352	31.340000
2644.104222	33.300000
2645.516253	35.740000
2646.929629	31.790000
2648.339575	30.330000
2649.752457	35.930000
2651.161910	34.050000
2652.571117	33.660000
2653.978488	39.580000
2655.388793	28.140000
2656.797263	33.790000
2658.203897	36.400000
2659.610286	37.340000
2661.014841	35.140000
2662.420740	38.910000
2663.824806	37.930000
2665.228627	37.160000
2666.632204	40.150000
2668.033950	40.880000
2669.437039	41.660000
2670.836710	40.820000
2672.237725	43.830000
2673.635324	45.270000
2675.035852	40.730000
2676.432966	46.870000
2677.831423	44.740000
2679.228053	47.980000
2680.624440	42.240000
2682.020585	47.770000
2683.414904	48.640000
2684.810566	43.820000
2686.202819	49.400000
2687.596414	42.820000
2688.988185	48.490000
2690.381299	42.470000
2691.772589	50.680000
2693.162056	42.440000
2694.551283	44.320000
2695.940271	45.930000
2697.330600	42.970000
2698.715946	45.340000
2700.104215	39.670000
2701.490664	43.500000
2702.876874	36.640000
2704.262845	39.220000
2705.645418	37.460000
2707.029333	35.190000
2708.413010	37.440000
2709.796448	31.620000
2711.176491	31.180000
2712.557876	34.420000
2713.937446	32.990000
2715.318356	35.310000
2716.697452	33.020000
2718.074734	35.630000
2719.453357	32.720000
2720.830166	37.580000
2722.206740	29.930000
2723.583078	25.520000
2724.957604	33.200000
2726.333471	35.960000
2727.705952	31.260000
2729.081348	30.210000
2730.451784	29.150000
2731.823561	33.280000
2733.195103	31.930000
2734.564837	32.560000
2735.935911	32.250000
2737.305178	31.020000
2738.674211	31.350000
2740.041438	32.890000
2741.408431	28.280000
2742.775192	27.650000
2744.141720	29.280000
2745.506444	34.600000
2746.870935	32.470000
2748.235195	31.690000
2749.599222	31.460000
2750.963018	29.190000
2752.323440	26.830000
2753.686772	30.470000
2755.045162	28.630000
2756.406462	23.600000
2757.764392	27.830000
2759.125230	30.940000
2760.484268	27.940000
2761.839939	32.310000
2763.198517	29.430000
2764.553728	29.860000
2765.908710	34.860000
2767.261895	26.600000
2768.617987	29.920000
2769.970715	28.790000
2771.323215	30.910000
2772.675486	28.710000
2774.029095	30.800000
2775.379344	24.530000
2776.727798	28.850000
2778.079157	26.400000
2779.427158	28.470000
2780.776496	32.270000
2782.124042	27.270000
2783.471362	27.760000
2784.818455	26.410000
2786.163756	25.580000
2787.508832	29.130000
2788.853682	30.920000
2790.198306	30.950000
2791.539578	25.170000
2792.882187	28.260000
2794.224572	24.990000
2795.566731	35.640000
2796.905541	30.840000
2798.247251	29.230000
2799.585612	23.860000
2800.925311	27.860000
2802.263225	32.660000
2803.599353	27.100000
2804.935259	31.150000
2806.272502	27.390000
2807.607961	29.490000
2808.943197	31.650000
2810.276650	29.410000
2811.611440	26.340000
2812.942890	26.140000
2814.277235	28.890000
2815.606682	27.520000
2816.937465	29.820000
2818.268028	27.240000
2819.596811	31.400000
2820.926930	26.270000
2822.255271	29.350000
2823.583391	27.050000
2824.909733	27.220000
2826.237412	25.970000
2827.561757	31.790000
2828.887439	30.470000
2830.211345	23.270000
2831.535031	28.480000
2832.860053	28.010000
2834.181746	30.520000
2835.503220	23.600000
2836.824475	23.800000
2838.145511	27.610000
2839.464774	29.190000
2840.785373	31.260000
2842.104200	29.620000
2843.422810	26.530000
2844.739648	29.190000
2846.056269	23.430000
2847.372673	28.220000
2848.687307	29.870000
2850.003277	28.920000
2851.315926	26.120000
2852.629910	27.740000
2853.943678	26.120000
2855.257229	25.550000
2856.569014	27.430000
2857.879032	31.420000
2859.190385	25.590000
2860.498423	29.940000
2861.807795	30.830000
2863.116952	28.300000
2864.425895	27.490000
2865.733073	29.980000
2867.038489	29.240000
2868.345238	26.220000
2869.650226	27.530000
2870.954999	26.760000
2872.258012	23.770000
2873.563905	28.280000
2874.864944	30.220000
2876.167317	30.500000
2877.467930	28.910000
2878.769877	25.340000
2880.071610	26.910000
2881.370040	30.740000
2882.669803	26.410000
2883.967809	27.360000
2885.265603	29.700000
2886.561641	29.490000
2887.859012	30.510000
2889.154627	26.660000
2890.450031	25.660000
2891.745224	24.480000
2893.037120	24.340000
2894.331892	27.180000
2895.623367	24.550000
2896.916175	29.180000
2898.208773	24.660000
2899.498077	30.250000
2900.788713	27.180000
2902.077598	22.140000
2903.367815	27.930000
2904.654741	25.980000
2905.942999	27.520000
2907.229508	27.630000
2908.515808	28.220000
2909.801900	30.020000
2911.086245	23.900000
2912.373460	24.960000
2913.655849	24.050000
2914.939570	27.410000
2916.221545	28.960000
2917.503312	27.030000
2918.783334	24.620000
2920.066227	25.220000
2921.347374	30.470000
2922.625239	27.850000
2923.905973	29.980000
2925.183426	21.690000
2926.460673	28.010000
2927.736178	24.590000
2929.014551	27.750000
2930.288110	30.070000
2931.564536	24.330000
2932.839221	20.950000
2934.112165	24.510000
2935.386441	23.490000
2936.658977	25.670000
2937.931308	24.690000
2939.200367	30.240000
2940.472291	20.510000
2941.742477	28.920000
2943.012459	29.040000
2944.282238	21.830000
2945.550281	27.610000
2946.816587	29.160000
2948.082691	31.290000
2949.350126	23.430000
2950.615825	28.000000
2951.881323	25.470000
2953.146618	27.010000
2954.408648	25.750000
2955.672008	23.440000
2956.935167	24.430000
2958.196594	30.150000
2959.459350	25.530000
2960.720374	25.730000
2961.979668	29.450000
2963.238761	23.650000
2964.497655	23.750000
2965.756348	23.090000
2967.014841	27.000000
2968.271604	27.170000
2969.528169	25.640000
2970.783005	24.010000
2972.039171	29.090000
2973.292082	22.620000
2974.546321	32.430000
2975.800362	24.730000
2977.052677	26.830000
2978.304794	28.330000
2979.555186	24.010000
2980.808433	27.510000
2982.056903	25.080000
2983.308228	23.780000
2984.556303	25.690000
2985.804181	24.650000
2987.051863	23.780000
2988.299347	29.450000
2989.545110	29.210000
2990.790677	22.650000
2992.037571	24.490000
2993.281221	28.090000
2994.526199	29.860000
2995.767933	30.930000
2997.012519	28.180000
2998.255386	28.860000
2999.495012	20.110000
3000.737488	23.890000
3001.976724	26.490000
3003.217288	25.470000
3004.456135	26.340000
3005.694788	28.990000
3006.931725	19.630000
3008.169990	24.230000
3009.406539	21.340000
3010.642895	26.500000
3011.879057	24.930000
3013.113505	32.040000
3014.347760	30.310000
3015.581823	23.010000
3016.814172	31.050000
3018.044810	24.140000
3019.278294	27.010000
3020.510067	26.310000
3021.740129	27.700000
3022.969998	23.710000
3024.198158	23.860000
3025.427645	25.230000
3026.655422	29.110000
3027.883008	27.200000
3029.111920	23.020000
3030.336090	25.050000
3031.563104	27.160000
3032.786893	20.470000
3034.012009	23.670000
3035.235418	22.360000
3036.458637	23.700000
3037.680151	24.400000
3038.904506	27.910000
3040.124126	24.370000
3041.345072	25.420000
3042.565829	27.510000
3043.784882	25.480000
3045.005260	24.740000
3046.222422	24.510000
3047.440910	27.730000
3048.657695	24.490000
3049.874293	26.970000
3051.090702	30.660000
3052.303898	21.260000
3053.519933	29.030000
3054.732755	24.170000
3055.948413	24.240000
3057.159350	25.730000
3058.371611	23.850000
3059.583685	22.820000
3060.795573	33.750000
3062.005764	18.990000
3063.215768	22.660000
3064.425586	24.860000
3065.633708	25.740000
3066.841645	24.680000
3068.047886	25.150000
3069.255452	25.630000
3070.461323	26.740000
3071.667009	27.850000
3072.872511	24.550000
3074.076319	30.140000
3075.281451	27.440000
3076.484890	29.170000
3077.686638	21.840000
3078.888201	24.220000
3080.089581	19.610000
3081.290777	26.380000
3082.490283	27.910000
3083.689606	26.270000
3084.890252	23.530000
3086.089208	23.030000
3087.284970	24.230000
3088.483560	25.490000
3089.678958	28.390000
3090.875678	20.240000
3092.069206	25.120000
3093.265562	30.330000
3094.460231	21.440000
3095.651710	23.440000
3096.847521	21.110000
3098.038637	27.850000
3099.231077	30.270000
3100.420329	23.410000
3101.612406	20.580000
3102.802800	24.290000
3103.990008	18.610000
3105.178538	22.290000
3106.368391	25.970000
3107.555060	21.830000
3108.741548	21.860000
3109.927858	25.470000
3111.115489	23.480000
3112.299938	21.390000
3113.482708	20.430000
3114.668300	20.430000
3115.852213	21.570000
3117.034447	21.320000
3118.216502	20.720000
3119.398379	16.610000
3120.580078	26.090000
3121.760100	21.570000
3122.938445	19.290000
3124.119610	19.220000
3125.297600	25.020000
3126.475413	19.590000
3127.653049	22.460000
3128.829010	26.510000
3130.004795	24.770000
3131.181901	18.520000
3132.357332	13.490000
3133.531090	23.530000
3134.703175	16.520000
3135.876582	23.930000
3137.049812	26.360000
3138.221371	24.780000
3139.394250	22.910000
3140.563962	22.100000
3141.734995	31.310000
3142.904358	24.620000
3144.072050	23.560000
3145.242558	21.190000
3146.408408	22.340000
3147.578566	23.320000
3148.744068	24.850000
3149.909395	26.920000
3151.074549	27.160000
3152.239530	21.990000
3153.405830	30.690000
3154.567478	20.240000
3155.730445	27.230000
3156.893240	24.090000
3158.055862	17.250000
3159.216818	19.670000
3160.377603	19.230000
3161.538215	25.390000
3162.697163	21.980000
3163.855940	23.510000
3165.014544	23.670000
3166.172977	24.590000
3167.331239	23.400000
3168.487838	27.680000
3169.642776	21.870000
3170.799033	20.310000
3171.953629	20.050000
3173.108055	22.270000
3174.260821	20.070000
3175.413416	22.470000
3176.565842	19.410000
3177.718098	22.690000
3178.870183	23.920000
3180.019122	17.550000
3181.170869	22.490000
3182.320957	20.790000
3183.469389	26.120000
3184.617651	18.130000
3185.765745	18.430000
3186.913670	23.350000
3188.059939	23.680000
3189.206040	20.850000
3190.350487	25.470000
3191.494766	22.960000
3192.638877	24.660000
3193.784305	27.080000
3194.926595	20.150000
3196.068718	18.480000
3197.210673	28.060000
3198.352461	22.630000
3199.494082	19.410000
3200.632568	22.610000
3201.772371	16.190000
3202.913491	17.490000
3204.051478	24.860000
3205.187815	22.650000
3206.323986	20.150000
3207.461474	21.240000
3208.597314	22.320000
3209.734471	18.550000
3210.867015	26.950000
3212.003841	21.040000
3213.136055	28.340000
3214.269586	26.470000
3215.402953	17.430000
3216.533192	22.690000
3217.666229	25.760000
3218.796140	25.720000
3219.927367	26.860000
3221.055470	18.890000
3222.186369	24.890000
3223.315624	24.690000
3224.443236	22.360000
3225.567725	20.340000
3226.696490	21.210000
3227.822133	23.630000
3228.947613	23.800000
3230.071452	17.430000
3231.198086	23.390000
3232.320122	20.410000
3233.443474	25.140000
3234.566664	22.390000
3235.689691	21.340000
3236.811080	21.350000
3237.932306	28.940000
3239.051894	20.110000
3240.171321	17.700000
3241.289111	18.520000
3242.409692	22.680000
3243.527160	20.140000
3244.644467	23.240000
3245.761614	20.380000
3246.877124	19.300000
3247.993950	22.160000
3249.107666	25.320000
3250.224171	24.220000
3251.339042	18.590000
3252.450803	22.140000
3253.562406	28.230000
3254.675324	24.830000
3255.788082	24.030000
3256.897734	24.000000
3258.008701	23.080000
3259.119509	22.750000
3260.228685	26.000000
3261.336230	23.520000
3262.445090	25.880000
3263.553792	14.080000
3264.659391	24.900000
3265.766304	24.350000
3266.871588	21.460000
3267.978186	26.350000
3269.081684	23.770000
3270.186496	18.890000
3271.291151	19.750000
3272.392708	17.570000
3273.494108	20.110000
3274.596822	22.790000
3275.699380	22.220000
3276.798841	22.250000
3277.901086	22.840000
3279.000235	13.250000
3280.097760	21.600000
3281.195129	20.540000
3282.295280	18.640000
3283.392339	20.170000
3284.489242	19.590000
3285.585990	21.510000
3286.678179	20.940000
3287.774618	22.830000
3288.869434	22.170000
3289.964096	21.460000
3291.057136	26.670000
3292.150021	22.720000
3293.241286	27.210000
3294.333864	18.900000
3295.424822	20.190000
3296.514160	19.830000
3297.603345	19.750000
3298.693842	20.450000
3299.781256	24.040000
3300.868516	22.510000
3301.957089	21.880000
3303.045509	16.720000
3304.129383	24.160000
3305.217498	21.130000
3306.302531	21.920000
3307.385949	23.640000
3308.470679	19.640000
3309.553793	21.880000
3310.638220	18.920000
3311.719568	23.170000
3312.802228	25.610000
3313.883274	23.090000
3314.964168	23.150000
3316.043450	21.260000
3317.122581	21.940000
3318.203024	19.460000
3319.280392	22.100000
3320.359072	25.110000
3321.436140	16.840000
3322.513059	24.190000
3323.588366	21.660000
3324.663524	20.490000
3325.739993	21.660000
3326.813392	21.250000
3327.886641	23.160000
3328.961202	23.200000
3330.034154	23.230000
3331.105497	18.550000
3332.178151	20.860000
3333.247739	20.330000
3334.318637	20.810000
3335.387928	19.380000
3336.458529	22.440000
3337.527525	17.980000
3338.594914	22.350000
3339.660698	20.800000
3340.730708	23.120000
3341.797655	15.760000
3342.861540	20.190000
3343.928192	20.940000
3344.993241	20.070000
3346.056686	20.200000
3347.119985	13.220000
3348.183137	17.960000
3349.246143	22.480000
3350.309003	18.820000
3351.370261	24.380000
3352.428462	25.690000
3353.490883	17.270000
3354.550249	21.140000
3355.609469	17.850000
3356.669998	18.690000
3357.726019	13.330000
3358.784803	20.850000
3359.839080	19.040000
3360.896121	25.200000
3361.951563	21.320000
3363.008315	24.230000
3364.063468	25.250000
3365.117024	21.020000
3366.168984	17.280000
3367.223705	21.730000
3368.275377	23.740000
3369.326906	22.200000
3370.379743	22.390000
3371.429533	16.620000
3372.480632	17.210000
3373.528684	20.450000
3374.579497	15.750000
3375.627264	20.820000
3376.674889	19.980000
3377.722372	16.590000
3378.768262	16.170000
3379.815460	19.070000
3380.859616	21.140000
3381.906530	18.090000
3382.951852	22.760000
3383.994133	19.100000
3385.036273	18.800000
3386.079722	22.000000
3387.123029	18.000000
3388.164746	22.370000
3389.206323	23.900000
3390.247758	17.010000
3391.287605	26.270000
3392.325863	22.130000
3393.365429	20.610000
3394.404855	20.530000
3395.442693	24.440000
3396.478944	23.470000
3397.515056	18.160000
3398.552475	20.680000
3399.586861	18.400000
3400.622554	20.170000
3401.658108	14.900000
3402.690631	22.420000
3403.725906	19.560000
3404.758152	16.390000
3405.790259	26.820000
3406.820782	23.010000
3407.852612	21.940000
3408.884304	18.150000
3409.912968	18.110000
3410.941495	19.520000
3411.971328	19.430000
3413.001024	20.760000
3414.027694	18.670000
3415.055670	21.520000
3416.080623	20.650000
3417.108325	25.810000
3418.133003	20.680000
3419.158989	19.210000
3420.183394	18.120000
3421.207663	19.810000
3422.230353	18.800000
3423.252907	19.040000
3424.276767	20.990000
3425.297607	18.550000
3426.318311	14.660000
3427.340322	24.600000
3428.359314	17.970000
3429.378170	19.860000
3430.398333	14.280000
3431.415479	17.000000
