-117.841134	2.300000
-115.171534	0.280000
-112.504869	1.580000
-109.838956	9.670000
-107.175976	-0.550000
-104.511565	3.720000
-101.850085	-3.940000
-99.187176	1.230000
-96.529373	-1.150000
-93.870141	-1.280000
-91.211657	6.250000
-88.556098	0.350000
-85.899109	2.460000
-83.247219	3.410000
-80.593899	1.060000
-77.943498	0.040000
-75.291669	-1.770000
-72.644930	0.680000
-69.996761	2.210000
-67.349335	-0.100000
-64.704824	2.470000
-62.058883	0.000000
-59.418024	0.570000
-56.775736	1.940000
-54.136357	1.610000
-51.495548	3.980000
-48.855480	-2.350000
-46.220485	5.710000
-43.584060	0.850000
-40.950538	3.210000
-38.315588	3.350000
-35.685703	6.070000
-33.052226	-0.900000
-30.423811	8.770000
-27.796130	1.880000
-25.167020	3.770000
-22.542967	-0.210000
-19.915325	10.050000
-17.292737	7.500000
-14.670879	10.910000
-12.049752	22.970000
-9.429356	50.380000
-6.811847	160.490000
-4.192910	543.140000
-1.576858	1334.430000
1.038465	1963.280000
3.653060	986.650000
6.264774	113.500000
8.877916	17.670000
11.486024	8.670000
14.097713	0.670000
16.704373	10.450000
19.312460	6.100000
21.919823	4.050000
24.522161	0.350000
27.128077	4.930000
29.728971	1.050000
32.331293	3.560000
34.928597	1.740000
37.529478	5.860000
40.125343	3.110000
42.722637	3.910000
45.319211	2.980000
47.910776	2.470000
50.503769	1.560000
53.093901	-0.240000
55.685460	2.250000
58.274161	0.580000
60.864288	-0.330000
63.449416	-0.440000
66.035972	1.730000
68.621814	4.830000
71.204802	5.550000
73.789216	3.990000
76.366502	0.670000
78.947354	1.990000
81.525357	-1.580000
84.102650	3.020000
86.681369	3.200000
89.255106	0.660000
91.830271	5.550000
94.402592	4.160000
96.974205	-0.850000
99.542978	6.480000
102.113178	0.540000
104.680539	-0.730000
107.249327	-2.570000
109.815278	2.510000
112.378394	-0.060000
114.945066	5.790000
117.502516	1.550000
120.065653	4.900000
122.623829	1.170000
125.185560	10.790000
127.742334	14.090000
130.300534	22.070000
132.853782	29.740000
135.406332	31.210000
137.962432	49.050000
140.513584	69.220000
143.064039	75.230000
145.613796	84.210000
148.160734	87.930000
150.706977	97.510000
153.254645	100.970000
155.801617	99.280000
158.343654	100.400000
160.884997	96.450000
163.425647	100.490000
165.967723	98.940000
168.506987	93.050000
171.043442	98.390000
173.579207	95.460000
176.116397	93.350000
178.652896	90.940000
181.186589	90.590000
183.717478	86.470000
186.247679	92.910000
188.779306	88.790000
191.308131	96.750000
193.834157	87.940000
196.359497	90.930000
198.886262	90.940000
201.410231	87.990000
203.933515	88.510000
206.456113	86.310000
208.975919	89.840000
211.495042	93.880000
214.013483	87.750000
216.533347	87.810000
219.046210	91.770000
221.562604	94.850000
224.078316	89.720000
226.589138	88.830000
229.101385	94.160000
231.610849	92.930000
234.119635	88.450000
236.627743	94.820000
239.137275	92.960000
241.641926	95.740000
244.145901	94.820000
246.651300	96.670000
249.151824	97.330000
251.655871	99.630000
254.152948	101.550000
256.653548	97.560000
259.151376	97.640000
261.648531	100.060000
264.145013	98.510000
266.636632	94.700000
269.131771	102.380000
271.624143	99.720000
274.115845	102.090000
276.604784	103.550000
279.095146	100.030000
281.582747	102.210000
284.067588	103.950000
286.555944	99.020000
289.037360	102.480000
291.522290	105.830000
294.002375	99.130000
296.485972	104.940000
298.964726	110.340000
301.444903	109.280000
303.922329	107.850000
306.399091	116.240000
308.875189	111.520000
311.348540	111.460000
313.821228	109.270000
316.293255	125.720000
318.764621	125.330000
321.233242	147.850000
323.701204	138.240000
326.170589	133.520000
328.635151	118.270000
331.103217	119.040000
333.566463	111.590000
336.029051	111.330000
338.490983	109.040000
340.952258	111.840000
343.410798	109.010000
345.870762	110.390000
348.327992	104.490000
350.784568	107.770000
353.240490	106.670000
355.693682	103.160000
358.148297	111.230000
360.598110	110.190000
363.051419	109.300000
365.499929	102.300000
367.947789	110.170000
370.397071	106.750000
372.841559	107.090000
375.287469	102.310000
377.732729	105.580000
380.175271	102.200000
382.617165	104.700000
385.058412	112.410000
387.496943	109.870000
389.936895	102.610000
392.374134	111.920000
394.808662	104.760000
397.246677	105.400000
399.679915	104.600000
402.114574	104.090000
404.544461	104.310000
406.977833	103.180000
409.406435	105.440000
411.834395	107.300000
414.263777	106.630000
416.688393	107.140000
419.114431	103.380000
421.539828	107.820000
423.964585	108.740000
426.384584	102.890000
428.806003	107.950000
431.224727	108.170000
433.644871	110.800000
436.062320	100.330000
438.481189	103.420000
440.897365	103.790000
443.308793	103.700000
445.723698	107.190000
448.135914	104.060000
450.547495	100.970000
452.958442	104.030000
455.366703	104.830000
457.774331	99.540000
460.181327	97.320000
462.587692	100.760000
464.991374	95.930000
467.394426	99.580000
469.796848	96.920000
472.198640	101.470000
474.597754	99.570000
476.998288	91.850000
479.398193	94.430000
481.793376	98.440000
484.192025	93.570000
486.585953	95.460000
488.979256	99.620000
491.371934	98.920000
493.763986	97.290000
496.157456	91.740000
498.546214	92.090000
500.932306	93.220000
503.319818	87.290000
505.706707	97.070000
508.090932	101.770000
510.476575	124.740000
512.859557	148.130000
515.239878	183.740000
517.621618	221.370000
520.000699	226.290000
522.381198	207.300000
524.759041	178.770000
527.134227	158.330000
529.508797	141.300000
531.884784	118.360000
534.258119	109.200000
536.632871	104.180000
539.002937	97.260000
541.372389	90.460000
543.743258	88.520000
546.109446	84.830000
548.477053	84.570000
550.842015	80.370000
553.206363	75.040000
555.570098	71.490000
557.935251	74.330000
560.295732	71.850000
562.657631	71.220000
565.016889	63.400000
567.373509	67.680000
569.733575	62.550000
572.086949	60.010000
574.443768	66.060000
576.797952	56.890000
579.151527	61.540000
581.504495	63.590000
583.854830	62.130000
586.206583	58.060000
588.551659	57.200000
590.902198	59.650000
593.246065	55.760000
595.595393	57.390000
597.940072	59.790000
600.282127	59.660000
602.625599	55.390000
604.966448	60.920000
607.306694	52.200000
609.644320	58.410000
611.985381	58.630000
614.321805	64.380000
616.659645	56.630000
618.994868	58.640000
621.327475	52.850000
623.661498	57.100000
625.992907	50.640000
628.323718	55.790000
630.653931	53.490000
632.983547	53.560000
635.308539	49.460000
637.638973	52.730000
639.964786	50.250000
642.287991	52.910000
644.612613	50.940000
646.934629	56.140000
649.256051	50.260000
651.574870	49.770000
653.895106	43.160000
656.214748	49.400000
658.531789	49.280000
660.848238	42.830000
663.162089	44.710000
665.477356	49.630000
667.790026	49.480000
670.104111	51.960000
672.413596	49.850000
674.724497	46.160000
677.032805	41.280000
679.340525	45.470000
681.649659	48.550000
683.954201	39.850000
686.258157	43.530000
688.561527	45.830000
690.866311	40.170000
693.166508	45.400000
695.468121	46.590000
697.769148	41.040000
700.065594	41.710000
702.363455	41.100000
704.660732	37.480000
706.957426	43.710000
709.249544	42.490000
711.545073	44.400000
713.836028	37.970000
716.128398	38.600000
718.418193	39.030000
720.707407	39.300000
722.996042	39.480000
725.282104	43.050000
727.569581	39.800000
729.854486	39.590000
732.138814	41.810000
734.420573	42.500000
736.703746	44.920000
738.986342	40.270000
741.264382	42.580000
743.543837	39.560000
745.822715	38.420000
748.101019	40.080000
750.374773	43.330000
752.649940	39.600000
754.924534	41.760000
757.196569	40.950000
759.470017	47.550000
761.740907	46.750000
764.009241	43.100000
766.278988	44.780000
768.546180	42.410000
770.812803	45.980000
773.078855	43.680000
775.342356	46.150000
777.607270	42.640000
779.871614	45.240000
782.131429	43.380000
784.392656	46.870000
786.653316	49.290000
788.911430	46.970000
791.166999	43.280000
793.425959	45.610000
795.678419	38.170000
797.936247	49.470000
800.189556	43.530000
802.440325	45.030000
804.692506	42.140000
806.942148	49.870000
809.193202	40.110000
811.439746	41.760000
813.687701	44.530000
815.933122	49.420000
818.179954	40.220000
820.426225	39.490000
822.667991	39.980000
824.913141	47.690000
827.151818	40.700000
829.393877	42.630000
831.631438	40.770000
833.870411	42.640000
836.106857	41.970000
838.344714	43.800000
840.580046	37.110000
842.812855	39.010000
845.047074	35.600000
847.278772	37.500000
849.509915	43.480000
851.740503	37.870000
853.970537	36.530000
856.200017	36.290000
858.425015	36.080000
860.653388	33.750000
862.877281	34.320000
865.102586	41.300000
867.323415	35.500000
869.547616	36.550000
871.767344	40.220000
873.988482	35.960000
876.209070	37.710000
878.427149	37.240000
880.646637	41.440000
882.861659	38.790000
885.076133	44.460000
887.290060	37.540000
889.503440	33.850000
891.716272	39.810000
893.928558	34.800000
896.138341	39.340000
898.347579	33.970000
900.556272	36.060000
902.762465	35.710000
904.970069	39.460000
907.175174	40.030000
909.379736	40.710000
911.581803	35.590000
913.785279	41.510000
915.986261	35.990000
918.186701	42.200000
920.388550	33.300000
922.584008	42.390000
924.782825	34.520000
926.977203	42.910000
929.174939	39.260000
931.368239	44.190000
933.562948	40.640000
935.755171	46.210000
937.946855	43.300000
940.138002	50.160000
942.326666	45.800000
944.514794	48.920000
946.700441	55.380000
948.889440	47.390000
951.074016	51.070000
953.258057	55.940000
955.445448	53.430000
957.624535	57.290000
959.806973	55.510000
961.988877	52.690000
964.168306	57.520000
966.345263	55.980000
968.523628	52.530000
970.703400	56.410000
972.876823	56.280000
975.053592	58.240000
977.225954	56.150000
979.399724	59.300000
981.569090	59.110000
983.741800	67.020000
985.912045	60.990000
988.081760	57.030000
990.250948	58.830000
992.415738	58.090000
994.583869	57.680000
996.747605	57.220000
998.912749	54.790000
1001.075433	54.730000
1003.237592	59.680000
1005.397294	58.190000
1007.556471	55.590000
1009.717055	57.790000
1011.875184	59.370000
1014.032790	54.020000
1016.189872	52.240000
1018.346430	57.300000
1020.498609	59.800000
1022.652195	55.980000
1024.805259	55.360000
1026.955874	60.590000
1029.107896	53.270000
1031.255544	54.740000
1033.406524	59.310000
1035.553133	61.250000
1037.699223	56.370000
1039.844795	69.350000
1041.991772	60.710000
1044.132460	59.180000
1046.276478	54.520000
1048.418055	61.220000
1050.559115	63.180000
1052.701581	62.130000
1054.837766	58.300000
1056.977278	61.960000
1059.112435	63.380000
1061.250916	63.620000
1063.385043	62.490000
1065.518657	69.900000
1067.653675	61.760000
1069.784345	61.570000
1071.916419	61.000000
1074.046064	58.060000
1076.175197	58.950000
1078.303818	57.270000
1080.431928	56.580000
1082.557612	56.050000
1084.682786	51.090000
1086.809364	57.770000
1088.931604	50.440000
1091.055249	51.940000
1093.174559	47.690000
1095.299098	49.660000
1097.417393	47.420000
1099.537092	50.420000
1101.654372	51.860000
1103.771145	52.850000
1105.887413	47.010000
1108.001264	49.050000
1110.116520	45.390000
1112.227452	48.210000
1114.341697	43.740000
1116.451621	46.790000
1118.562949	43.460000
1120.673772	50.690000
1122.780279	49.960000
1124.890095	42.880000
1126.995598	41.980000
1129.102503	40.370000
1131.203193	41.980000
1133.309095	42.140000
1135.410688	37.870000
1137.513684	42.340000
1139.616179	38.700000
1141.712467	50.150000
1143.813962	38.160000
1145.911155	38.760000
1148.007850	45.300000
1150.104046	40.100000
1152.199744	39.030000
1154.294945	42.720000
1156.387749	29.460000
1158.481955	39.630000
1160.569970	45.610000
1162.663184	41.810000
1164.750209	41.850000
1166.840533	44.240000
1168.926569	40.690000
1171.015904	42.890000
1173.099057	40.550000
1175.183612	41.320000
1177.269569	40.900000
1179.351244	35.530000
1181.434320	36.840000
1183.515011	42.950000
1185.595211	39.960000
1187.674919	43.350000
1189.754136	39.400000
1191.830971	35.610000
1193.905424	32.530000
1195.983170	38.870000
1198.056646	36.250000
1200.131522	40.170000
1202.202131	38.260000
1204.274141	38.770000
1206.343775	37.090000
1208.414810	37.180000
1210.485358	39.860000
1212.551644	33.220000
1214.619331	34.840000
1216.684646	36.670000
1218.751361	34.810000
1220.813820	37.920000
1222.879564	32.850000
1224.941054	38.450000
1227.003945	35.380000
1229.064468	34.580000
1231.124507	34.970000
1233.184063	33.500000
1235.241255	36.410000
1237.297965	34.500000
1239.352311	35.360000
1241.409939	33.320000
1243.465203	29.560000
1245.516228	32.030000
1247.568652	25.890000
1249.620596	32.130000
1251.670182	34.040000
1253.719289	34.290000
1255.767917	28.290000
1257.816067	32.100000
1259.863739	30.060000
1261.907180	34.820000
1263.953897	33.750000
1265.998260	31.350000
1268.042147	27.640000
1270.083682	25.730000
1272.122868	28.520000
1274.165327	30.880000
1276.203563	32.240000
1278.243198	31.370000
1280.282358	23.230000
1282.317299	29.220000
1284.353639	31.940000
1286.387635	30.520000
1288.423028	29.280000
1290.454209	27.920000
1292.486787	28.770000
1294.518894	34.520000
1296.548660	28.310000
1298.579823	29.210000
1300.606780	25.860000
1302.635134	30.810000
1304.659283	32.210000
1306.686698	32.140000
1308.709910	32.870000
1310.734520	31.880000
1312.756796	33.700000
1314.780468	32.970000
1316.801808	27.990000
1318.822681	29.210000
1320.843086	28.070000
1322.859298	28.440000
1324.876907	34.390000
1326.892188	28.770000
1328.910728	27.310000
1330.925079	27.980000
1332.937103	29.500000
1334.952386	30.630000
1336.963483	32.730000
1338.975977	33.390000
1340.984288	26.950000
1342.995854	31.970000
1345.001382	31.940000
1347.010165	34.430000
1349.014770	27.960000
1351.022629	28.830000
1353.030026	28.260000
1355.031392	30.660000
1357.034154	27.160000
1359.036457	35.530000
1361.038300	27.130000
1363.039683	36.260000
1365.038753	31.020000
1367.037364	32.660000
1369.035516	26.780000
1371.033211	28.370000
1373.026743	32.890000
1375.021670	30.800000
1377.016141	28.370000
1379.010155	33.050000
1381.001862	29.370000
1382.993113	27.120000
1384.982059	28.500000
1386.972401	30.330000
1388.962287	31.070000
1390.949869	32.570000
1392.936998	26.650000
1394.921825	29.500000
1396.908047	29.070000
1398.891968	27.970000
1400.875437	28.630000
1402.858454	28.260000
1404.839173	29.570000
1406.821286	24.270000
1408.801103	28.670000
1410.780468	31.260000
1412.755695	30.000000
1414.734160	31.600000
1416.710332	28.390000
1418.686054	30.770000
1420.661328	33.080000
1422.634310	33.630000
1424.606844	28.270000
1426.578930	33.620000
1428.550569	32.050000
1430.518079	27.270000
1432.490663	24.850000
1434.455441	35.860000
1436.425292	27.980000
1438.391019	30.400000
1440.358138	25.380000
1442.322974	29.150000
1444.283690	32.550000
1446.249474	28.680000
1448.209303	27.700000
1450.170526	29.670000
1452.133140	26.970000
1454.091640	26.440000
1456.049698	30.750000
1458.007314	22.500000
1459.964487	27.270000
1461.919385	27.260000
1463.875676	30.960000
1465.829692	34.370000
1467.783267	29.060000
1469.734570	26.530000
1471.687265	30.160000
1473.637689	34.610000
1475.587674	26.290000
1477.537220	32.080000
1479.484497	29.630000
1481.429506	33.960000
1483.375908	29.580000
1485.321872	29.460000
1487.267399	27.530000
1489.210660	27.490000
1491.153486	28.570000
1493.094047	30.610000
1495.036001	32.350000
1496.975692	30.950000
1498.914948	27.360000
1500.853770	38.540000
1502.790332	30.790000
1504.728285	34.860000
1506.663979	29.800000
1508.599240	29.210000
1510.532244	22.340000
1512.464817	32.520000
1514.396956	27.410000
1516.328664	33.380000
1518.258119	29.820000
1520.188964	31.830000
1522.119377	29.640000
1524.045718	29.920000
1525.973449	28.660000
1527.898931	28.360000
1529.823983	28.090000
1531.748606	27.260000
1533.672799	31.830000
1535.594746	30.230000
1537.518083	26.640000
1539.439173	25.390000
1541.358019	28.070000
1543.278255	29.720000
1545.196248	24.800000
1547.113813	31.730000
1549.029138	33.280000
1550.945852	33.830000
1552.858511	36.000000
1554.774373	41.870000
1556.687997	37.400000
1558.599382	35.950000
1560.512157	31.900000
1562.420882	30.010000
1564.330996	34.460000
1566.240687	36.870000
1568.149955	32.230000
1570.056989	33.770000
1571.961790	35.410000
1573.867979	31.230000
1575.771938	28.070000
1577.675475	37.430000
1579.578592	35.180000
1581.479479	38.550000
1583.381755	34.480000
1585.281803	39.510000
1587.183238	44.430000
1589.080640	41.590000
1590.977623	49.020000
1592.874188	51.300000
1594.772140	44.410000
1596.664258	39.140000
1598.559570	37.410000
1600.454464	37.100000
1602.347136	30.270000
1604.239391	39.120000
1606.129427	34.310000
1608.019047	34.060000
1609.908252	29.120000
1611.797041	33.480000
1613.683614	35.140000
1615.571574	31.010000
1617.455517	28.920000
1619.340847	29.050000
1621.225764	32.810000
1623.108467	31.510000
1624.992557	30.830000
1626.872635	27.460000
1628.754101	31.080000
1630.633356	30.940000
1632.513997	30.970000
1634.388834	28.320000
1636.268652	25.720000
1638.144466	31.110000
1640.019869	28.810000
1641.896658	33.160000
1643.767651	24.650000
1645.641825	29.360000
1647.512000	28.510000
1649.385356	28.080000
1651.256509	32.740000
1653.125461	32.260000
1654.995797	28.180000
1656.862141	30.100000
1658.729870	29.020000
1660.595400	33.420000
1662.462316	27.500000
1664.325242	31.780000
1666.189555	26.400000
1668.051671	28.260000
1669.913382	30.910000
1671.776479	28.380000
1673.637380	28.870000
1675.496089	25.910000
1677.354394	30.520000
1679.214083	30.750000
1681.068006	25.370000
1682.925102	29.290000
1684.781794	29.800000
1686.634511	32.280000
1688.490399	27.450000
1690.342313	30.220000
1692.193826	26.760000
1694.044938	31.640000
1695.895649	27.560000
1697.745960	32.570000
1699.594087	31.200000
1701.443598	34.830000
1703.287359	25.100000
1705.136071	25.470000
1706.979036	32.420000
1708.825168	29.650000
1710.667337	29.830000
1712.512672	28.270000
1714.352266	30.290000
1716.193244	24.830000
1718.035605	29.460000
1719.874010	33.450000
1721.713798	30.440000
1723.551410	29.840000
1725.388628	26.110000
1727.223672	30.900000
1729.060099	26.800000
1730.894353	27.770000
1732.728214	29.880000
1734.561680	28.440000
1736.391200	23.780000
1738.223880	23.460000
1740.052615	28.920000
1741.884507	28.460000
1743.712457	26.710000
1745.540015	33.180000
1747.367182	29.810000
1749.193957	31.220000
1751.020340	32.400000
1752.842787	30.160000
1754.668389	26.200000
1756.490056	32.950000
1758.313104	26.850000
1760.133992	26.770000
1761.954491	30.570000
1763.776370	27.810000
1765.592550	32.660000
1767.411883	25.110000
1769.227287	28.140000
1771.045843	34.410000
1772.860473	27.780000
1774.674716	29.690000
1776.488573	29.470000
1778.302043	27.030000
1780.113360	25.360000
1781.926057	27.750000
1783.738369	26.490000
1785.546762	34.210000
1787.356537	24.570000
1789.162397	28.700000
1790.971402	26.760000
1792.776494	22.160000
1794.582967	26.660000
1796.389056	33.140000
1798.191234	24.550000
1799.996557	23.520000
1801.797971	29.940000
1803.600765	28.590000
1805.399653	27.170000
1807.199922	28.690000
1808.999809	25.890000
1810.797554	29.860000
1812.594919	29.090000
1814.391903	30.120000
1816.188508	34.240000
1817.982973	37.080000
1819.778817	25.910000
1821.569006	37.550000
1823.364092	30.640000
1825.153525	31.840000
1826.946096	32.460000
1828.736531	27.820000
1830.524832	32.550000
1832.316267	28.300000
1834.102058	27.560000
1835.889228	31.870000
1837.674266	23.890000
1839.462438	30.290000
1841.246724	27.820000
1843.028880	29.870000
1844.812416	29.890000
1846.593823	28.780000
1848.376609	31.520000
1850.155514	35.480000
1851.935798	30.880000
1853.713957	35.800000
1855.493494	23.960000
1857.270905	31.420000
1859.046194	29.790000
1860.822860	33.020000
1862.597404	32.080000
1864.373325	32.260000
1866.143627	27.370000
1867.917056	31.890000
1869.688365	32.490000
1871.459303	35.470000
1873.231619	31.240000
1874.998321	31.810000
1876.768148	28.290000
1878.534112	33.520000
1880.303200	26.950000
1882.068426	28.410000
1883.833284	32.920000
1885.599519	29.050000
1887.361895	30.210000
1889.123903	32.760000
1890.885545	25.480000
1892.646819	24.750000
1894.407727	26.680000
1896.168268	32.290000
1897.926699	29.730000
1899.684764	31.130000
1901.440722	33.700000
1903.198056	28.260000
1904.955025	29.150000
1906.709887	26.100000
1908.462645	31.770000
1910.215038	30.470000
1911.968808	27.430000
1913.720474	28.250000
1915.470038	27.020000
1917.220977	27.070000
1918.971553	32.560000
1920.718291	30.690000
1922.466404	30.120000
1924.212419	29.970000
1925.959808	30.200000
1927.705100	26.730000
1929.448294	25.350000
1931.192863	28.650000
1932.935336	28.380000
1934.677450	29.280000
1936.419203	27.500000
1938.160596	30.320000
1939.899896	28.170000
1941.638837	32.900000
1943.377419	28.520000
1945.113910	32.270000
1946.850043	32.750000
1948.587550	33.230000
1950.321235	25.830000
1952.056295	34.710000
1953.789266	30.270000
1955.521881	30.490000
1957.254140	28.830000
1958.986042	29.120000
1960.715858	26.910000
1962.443589	29.960000
1964.172695	32.570000
1965.901445	27.660000
1967.628113	30.820000
1969.354426	28.980000
1971.082112	30.430000
1972.804262	31.220000
1974.529513	30.590000
1976.250957	37.250000
1977.975501	20.290000
1979.697966	31.370000
1981.416628	30.420000
1983.138388	26.830000
1984.856346	30.430000
1986.575677	33.740000
1988.291209	27.680000
1990.011561	31.150000
1991.728115	31.620000
1993.440872	29.470000
1995.156725	28.000000
1996.870506	31.180000
1998.583937	29.060000
2000.295297	27.800000
2002.008029	26.910000
2003.716971	30.260000
2005.429005	30.720000
2007.135530	28.700000
2008.845148	30.910000
2010.552698	29.970000
2012.259901	26.410000
2013.965038	30.310000
2015.669829	33.430000
2017.375991	30.650000
2019.078371	30.710000
2020.782122	31.910000
2022.483811	23.720000
2024.185154	31.710000
2025.886153	30.550000
2027.585090	29.530000
2029.285399	28.080000
2030.981932	29.760000
2032.679837	28.390000
2034.375684	28.170000
2036.074616	25.170000
2037.768062	34.010000
2039.462879	25.090000
2041.157354	34.970000
2042.848060	30.900000
2044.541850	28.840000
2046.231873	34.090000
2047.923267	29.380000
2049.612608	27.810000
2051.303319	33.270000
2052.990267	28.920000
2054.676876	30.390000
2056.364854	27.800000
2058.049073	29.210000
2059.734663	31.610000
2061.419912	26.470000
2063.103114	28.760000
2064.787686	36.260000
2066.466794	33.030000
2068.150689	29.360000
2069.829122	30.480000
2071.510633	32.560000
2073.188392	25.990000
2074.865815	30.150000
2076.544607	26.080000
2078.221357	27.890000
2079.896064	30.450000
2081.572142	30.600000
2083.246178	25.980000
2084.919880	29.270000
2086.593246	26.290000
2088.264573	25.730000
2089.935566	25.680000
2091.606225	34.230000
2093.276550	23.570000
2094.946541	29.940000
2096.614496	29.680000
2098.282117	33.560000
2099.947705	28.270000
2101.614661	30.840000
2103.279584	26.900000
2104.944175	32.550000
2106.606734	23.480000
2108.270661	28.180000
2109.932557	26.690000
2111.594123	31.720000
2113.255357	26.760000
2114.914563	32.610000
2116.573438	27.960000
2118.231984	29.890000
2119.890199	26.250000
2121.544692	35.850000
2123.202249	27.770000
2124.859476	34.180000
2126.512983	27.910000
2128.167857	27.050000
2129.819012	29.800000
2131.473230	28.810000
2133.123730	28.030000
2134.775598	35.820000
2136.422057	30.510000
2138.073271	28.550000
2139.720771	29.160000
2141.369638	31.070000
2143.016486	30.500000
2144.663009	29.890000
2146.309206	27.320000
2147.951695	29.890000
2149.597241	32.040000
2151.239082	29.930000
2152.883979	31.320000
2154.525170	24.320000
2156.166038	33.060000
2157.806583	33.340000
2159.445115	33.360000
2161.085013	34.420000
2162.721211	28.720000
2164.358775	32.370000
2165.996017	24.000000
2167.631249	32.470000
2169.266159	30.340000
2170.900748	27.870000
2172.535016	26.360000
2174.165590	27.650000
2175.799216	27.940000
2177.429150	32.130000
2179.060449	29.390000
2180.689743	35.080000
2182.318718	29.370000
2183.947373	34.240000
2185.575709	26.210000
2187.202043	31.300000
2188.828057	25.370000
2190.452071	28.910000
2192.077450	25.650000
2193.700828	33.590000
2195.325571	32.260000
2196.946633	28.590000
2198.567378	26.900000
2200.189487	32.260000
2201.809599	26.120000
2203.427715	27.960000
2205.045515	33.850000
2206.663000	29.420000
2208.280169	31.610000
2209.897023	26.700000
2211.513561	28.170000
2213.128107	27.920000
2214.740660	28.340000
2216.354577	28.270000
2217.966503	33.540000
2219.579792	28.680000
2221.191091	29.390000
2222.800400	27.040000
2224.411073	25.490000
2226.019757	35.650000
2227.628128	25.870000
2229.234513	29.330000
2230.842260	33.570000
2232.448022	29.410000
2234.053472	25.510000
2235.656937	27.490000
2237.261765	28.970000
2238.864609	34.270000
2240.465470	30.510000
2242.067694	31.730000
2243.667936	29.830000
2245.269540	25.900000
2246.867491	31.230000
2248.466805	25.940000
2250.064139	31.420000
2251.661165	30.850000
2253.259553	25.920000
2254.854292	28.090000
2256.447054	24.880000
2258.041179	28.450000
2259.636665	32.030000
2261.228506	35.510000
2262.820041	27.270000
2264.412938	29.050000
2266.000525	30.840000
2267.592808	35.250000
2269.179785	31.920000
2270.769789	31.470000
2272.354489	27.500000
2273.943883	34.190000
2275.527974	29.820000
2277.113427	29.250000
2278.696911	25.560000
2280.283420	26.480000
2281.866296	31.700000
2283.448869	27.780000
2285.031138	31.960000
2286.609777	30.090000
2288.191441	29.980000
2289.769476	30.200000
2291.350534	23.950000
2292.927965	25.815000
2294.503433	27.680000
2296.081923	29.500000
2297.656789	26.360000
2299.231354	26.410000
2300.805618	29.270000
2302.379583	27.270000
2303.953246	25.730000
2305.526610	34.680000
2307.096355	24.150000
2308.665801	29.220000
2310.238265	28.450000
2311.805455	31.560000
2313.375663	29.070000
2314.942256	26.290000
2316.510209	25.430000
2318.076206	30.690000
2319.641906	30.100000
2321.207308	32.380000
2322.770757	29.080000
2324.335565	36.470000
2325.896765	42.060000
2327.460979	47.190000
2329.019931	46.620000
2330.581897	41.820000
2332.141913	36.800000
2333.701633	30.400000
2335.259405	29.570000
2336.816881	30.000000
2338.374063	25.700000
2339.929297	32.000000
2341.484238	25.620000
2343.038884	32.080000
2344.593237	30.970000
2346.147296	27.940000
2347.701062	26.770000
2349.252883	29.950000
2350.802762	27.910000
2352.355648	30.690000
2353.903291	23.550000
2355.453943	32.020000
2357.001003	31.250000
2358.549421	28.560000
2360.097548	29.840000
2361.642086	24.960000
2363.187982	30.710000
2364.731940	25.590000
2366.277254	26.470000
2367.818985	33.210000
2369.362072	24.450000
2370.903223	29.370000
2372.444085	32.700000
2373.984658	27.780000
2375.524942	28.940000
2377.064937	31.030000
2378.601354	30.530000
2380.140772	28.190000
2381.676612	27.270000
2383.213810	35.090000
2384.747432	33.110000
2386.284054	32.970000
2387.818746	31.060000
2389.351508	29.840000
2390.883983	29.120000
2392.414530	29.260000
2393.948075	30.160000
2395.476409	30.480000
2397.006099	34.650000
2398.535504	31.520000
2400.064624	34.870000
2401.593458	27.990000
2403.117088	30.960000
2404.645353	32.970000
2406.168416	33.170000
2407.696112	33.720000
2409.216969	28.890000
2410.742458	32.760000
2412.264388	27.710000
2413.787672	33.940000
2415.309036	29.700000
2416.828480	37.050000
2418.349279	31.060000
2419.868159	28.610000
2421.386758	28.470000
2422.903439	36.440000
2424.421474	29.090000
2425.939228	31.890000
2427.453430	31.560000
2428.967353	24.530000
2430.480995	29.690000
2431.995992	32.430000
2433.507440	29.270000
2435.020242	33.150000
2436.531132	26.900000
2438.041743	27.210000
2439.550442	31.840000
2441.062127	29.830000
2442.570269	29.140000
2444.078133	27.240000
2445.585718	28.170000
2447.089764	30.260000
2448.596794	24.220000
2450.101916	29.450000
2451.606761	30.120000
2453.109699	30.820000
2454.612361	24.940000
2456.114746	33.630000
2457.615226	29.080000
2459.117059	29.090000
2460.616987	32.860000
2462.116640	30.410000
2463.616018	28.980000
2465.113493	27.200000
2466.609066	26.340000
2468.107619	34.750000
2469.602644	25.930000
2471.099021	34.370000
2472.591872	32.490000
2474.086076	36.120000
2475.580006	24.290000
2477.070412	33.790000
2478.563796	33.180000
2480.055282	28.430000
2481.544871	26.760000
2483.034188	31.010000
2484.521609	29.440000
2486.012006	37.050000
2487.498885	29.970000
2488.987115	24.100000
2490.471828	30.160000
2491.956272	28.980000
2493.442066	26.370000
2494.925969	29.380000
2496.411222	27.110000
2497.891342	27.750000
2499.374435	28.810000
2500.855637	31.720000
2502.336570	26.230000
2503.815614	30.500000
2505.294389	27.680000
2506.772896	33.420000
2508.251135	31.760000
2509.729105	31.010000
2511.203570	31.580000
2512.681005	33.130000
2514.154936	28.570000
2515.630217	28.420000
2517.105231	32.070000
2518.576744	32.620000
2520.049608	31.700000
2521.520589	30.890000
2522.992920	30.690000
2524.460137	27.880000
2525.930321	26.190000
2527.398624	29.150000
2528.866662	25.210000
2530.334435	32.410000
2531.801943	26.350000
2533.269186	30.700000
2534.732937	29.420000
2536.198038	28.740000
2537.661262	28.580000
2539.125835	28.400000
2540.586920	30.880000
2542.049354	27.320000
2543.511525	27.320000
2544.970210	28.520000
2546.433466	29.760000
2547.891626	32.250000
2549.351136	28.800000
2550.805551	24.720000
2552.264537	24.720000
2553.721651	34.230000
2555.176893	27.510000
2556.631875	26.670000
2558.084988	26.920000
2559.539448	30.450000
2560.992040	32.530000
2562.444372	29.130000
2563.894837	32.020000
2565.348257	28.120000
2566.796595	27.070000
2568.247888	31.800000
2569.697316	34.820000
2571.143271	34.010000
2572.592181	25.540000
2574.037621	33.070000
2575.484408	28.060000
2576.929332	31.330000
2578.373999	29.800000
2579.820013	24.200000
2581.262561	25.220000
2582.706456	31.850000
2584.146885	29.190000
2585.588663	28.380000
2587.028581	22.470000
2588.469846	30.780000
2589.907649	28.070000
2591.348402	32.850000
2592.784093	23.700000
2594.222732	30.040000
2595.659515	25.390000
2597.094442	22.420000
2598.532316	30.480000
2599.965133	28.490000
2601.399297	28.020000
2602.831607	31.190000
2604.265263	27.440000
2605.697066	26.540000
2607.128615	28.410000
2608.559912	30.320000
2609.989356	34.330000
2611.418548	29.630000
2612.845890	27.850000
2614.274577	24.700000
2615.703013	23.050000
2617.128001	27.310000
2618.554336	29.980000
2619.978822	31.080000
2621.404654	32.270000
2622.827042	24.870000
2624.250776	25.560000
2625.672663	26.840000
2627.094300	24.320000
2628.514093	34.330000
2629.935231	28.220000
2631.356119	29.890000
2632.773568	24.260000
2634.193958	28.800000
2635.610910	27.130000
2637.027613	33.090000
2638.444068	26.280000
2639.860275	27.630000
2641.276234	30.290000
2642.690352	29.730000
2644.104222	31.350000
2645.516253	32.740000
2646.929629	31.600000
2648.339575	29.850000
2649.752457	32.340000
2651.161910	24.060000
2652.571117	30.140000
2653.978488	40.860000
2655.388793	27.980000
2656.797263	35.620000
2658.203897	35.270000
2659.610286	30.940000
2661.014841	34.280000
2662.420740	40.000000
2663.824806	36.070000
2665.228627	36.750000
2666.632204	39.900000
2668.033950	37.540000
2669.437039	41.900000
2670.836710	34.810000
2672.237725	36.960000
2673.635324	46.520000
2675.035852	39.040000
2676.432966	48.940000
2677.831423	44.190000
2679.228053	45.590000
2680.624440	44.460000
2682.020585	44.230000
2683.414904	45.490000
2684.810566	41.490000
2686.202819	52.540000
2687.596414	48.410000
2688.988185	42.210000
2690.381299	44.450000
2691.772589	47.660000
2693.162056	37.840000
2694.551283	38.970000
2695.940271	42.100000
2697.330600	40.900000
2698.715946	43.620000
2700.104215	36.550000
2701.490664	39.140000
2702.876874	37.780000
2704.262845	34.030000
2705.645418	37.910000
2707.029333	31.570000
2708.413010	33.430000
2709.796448	28.300000
2711.176491	32.960000
2712.557876	33.090000
2713.937446	27.660000
2715.318356	33.200000
2716.697452	30.630000
2718.074734	31.730000
2719.453357	34.320000
2720.830166	34.680000
2722.206740	28.030000
2723.583078	27.820000
2724.957604	31.080000
2726.333471	29.270000
2727.705952	30.100000
2729.081348	27.220000
2730.451784	30.750000
2731.823561	31.090000
2733.195103	28.320000
2734.564837	33.530000
2735.935911	29.030000
2737.305178	30.780000
2738.674211	29.460000
2740.041438	27.840000
2741.408431	19.650000
2742.775192	26.450000
2744.141720	28.660000
2745.506444	32.750000
2746.870935	28.840000
2748.235195	30.420000
2749.599222	25.980000
2750.963018	27.080000
2752.323440	21.620000
2753.686772	26.750000
2755.045162	24.020000
2756.406462	26.130000
2757.764392	26.160000
2759.125230	27.050000
2760.484268	25.800000
2761.839939	27.540000
2763.198517	28.220000
2764.553728	27.790000
2765.908710	24.700000
2767.261895	26.750000
2768.617987	28.290000
2769.970715	25.900000
2771.323215	26.050000
2772.675486	27.840000
2774.029095	24.040000
2775.379344	29.930000
2776.727798	23.250000
2778.079157	21.550000
2779.427158	25.430000
2780.776496	25.570000
2782.124042	24.040000
2783.471362	25.280000
2784.818455	21.800000
2786.163756	27.100000
2787.508832	22.510000
2788.853682	29.560000
2790.198306	25.210000
2791.539578	23.490000
2792.882187	24.210000
2794.224572	23.540000
2795.566731	30.860000
2796.905541	31.440000
2798.247251	27.680000
2799.585612	22.990000
2800.925311	29.660000
2802.263225	30.840000
2803.599353	23.340000
2804.935259	23.070000
2806.272502	25.270000
2807.607961	32.460000
2808.943197	25.780000
2810.276650	26.090000
2811.611440	26.330000
2812.942890	25.280000
2814.277235	28.510000
2815.606682	28.830000
2816.937465	26.430000
2818.268028	27.050000
2819.596811	25.570000
2820.926930	27.170000
2822.255271	25.990000
2823.583391	26.800000
2824.909733	25.270000
2826.237412	26.760000
2827.561757	26.880000
2828.887439	30.700000
2830.211345	24.940000
2831.535031	28.890000
2832.860053	22.070000
2834.181746	25.900000
2835.503220	21.830000
2836.824475	22.910000
2838.145511	21.790000
2839.464774	27.010000
2840.785373	29.750000
2842.104200	30.190000
2843.422810	23.800000
2844.739648	29.210000
2846.056269	24.510000
2847.372673	31.090000
2848.687307	27.860000
2850.003277	26.070000
2851.315926	22.620000
2852.629910	29.620000
2853.943678	24.880000
2855.257229	24.660000
2856.569014	25.360000
2857.879032	29.840000
2859.190385	23.280000
2860.498423	29.200000
2861.807795	32.550000
2863.116952	28.610000
2864.425895	23.020000
2865.733073	24.790000
2867.038489	24.230000
2868.345238	23.090000
2869.650226	26.140000
2870.954999	23.930000
2872.258012	23.190000
2873.563905	25.570000
2874.864944	24.940000
2876.167317	25.380000
2877.467930	22.850000
2878.769877	24.910000
2880.071610	19.970000
2881.370040	30.530000
2882.669803	26.750000
2883.967809	23.990000
2885.265603	29.240000
2886.561641	24.770000
2887.859012	21.020000
2889.154627	24.150000
2890.450031	21.250000
2891.745224	26.500000
2893.037120	17.940000
2894.331892	29.250000
2895.623367	24.180000
2896.916175	29.200000
2898.208773	17.430000
2899.498077	26.350000
2900.788713	20.000000
2902.077598	22.480000
2903.367815	25.970000
2904.654741	24.180000
2905.942999	20.680000
2907.229508	25.620000
2908.515808	23.610000
2909.801900	27.330000
2911.086245	20.560000
2912.373460	24.010000
2913.655849	24.890000
2914.939570	28.790000
2916.221545	23.970000
2917.503312	22.000000
2918.783334	21.860000
2920.066227	25.610000
2921.347374	28.330000
2922.625239	23.150000
2923.905973	27.620000
2925.183426	26.190000
2926.460673	22.660000
2927.736178	24.980000
2929.014551	28.660000
2930.288110	31.680000
2931.564536	20.060000
2932.839221	21.150000
2934.112165	22.520000
2935.386441	24.700000
2936.658977	25.490000
2937.931308	29.560000
2939.200367	28.420000
2940.472291	23.810000
2941.742477	23.000000
2943.012459	25.960000
2944.282238	20.700000
2945.550281	29.900000
2946.816587	26.190000
2948.082691	27.450000
2949.350126	22.610000
2950.615825	23.900000
2951.881323	23.710000
2953.146618	21.170000
2954.408648	26.990000
2955.672008	23.930000
2956.935167	20.650000
2958.196594	31.890000
2959.459350	27.380000
2960.720374	24.340000
2961.979668	25.420000
2963.238761	20.590000
2964.497655	22.960000
2965.756348	23.170000
2967.014841	26.460000
2968.271604	26.690000
2969.528169	19.620000
2970.783005	29.510000
2972.039171	24.910000
2973.292082	26.190000
2974.546321	27.290000
2975.800362	23.420000
2977.052677	21.690000
2978.304794	26.520000
2979.555186	23.420000
2980.808433	25.390000
2982.056903	21.030000
2983.308228	29.870000
2984.556303	25.860000
2985.804181	21.750000
2987.051863	21.850000
2988.299347	29.940000
2989.545110	18.850000
2990.790677	22.720000
2992.037571	23.220000
2993.281221	25.200000
2994.526199	25.930000
2995.767933	24.440000
2997.012519	23.650000
2998.255386	24.580000
2999.495012	18.580000
3000.737488	19.940000
3001.976724	29.580000
3003.217288	22.920000
3004.456135	25.860000
3005.694788	25.340000
3006.931725	18.720000
3008.169990	25.250000
3009.406539	21.310000
3010.642895	23.420000
3011.879057	23.050000
3013.113505	27.150000
3014.347760	28.280000
3015.581823	22.850000
3016.814172	22.180000
3018.044810	22.340000
3019.278294	20.220000
3020.510067	25.660000
3021.740129	24.590000
3022.969998	22.370000
3024.198158	23.490000
3025.427645	25.140000
3026.655422	23.800000
3027.883008	21.740000
3029.111920	20.780000
3030.336090	22.970000
3031.563104	27.640000
3032.786893	20.470000
3034.012009	22.420000
3035.235418	21.100000
3036.458637	22.510000
3037.680151	22.170000
3038.904506	22.320000
3040.124126	21.310000
3041.345072	21.560000
3042.565829	26.670000
3043.784882	17.370000
3045.005260	21.170000
3046.222422	18.930000
3047.440910	24.350000
3048.657695	19.770000
3049.874293	25.580000
3051.090702	26.910000
3052.303898	21.520000
3053.519933	25.170000
3054.732755	22.100000
3055.948413	24.240000
3057.159350	22.460000
3058.371611	19.560000
3059.583685	23.260000
3060.795573	27.990000
3062.005764	23.670000
3063.215768	20.560000
3064.425586	23.500000
3065.633708	23.980000
3066.841645	22.010000
3068.047886	24.810000
3069.255452	23.080000
3070.461323	23.890000
3071.667009	24.700000
3072.872511	22.120000
3074.076319	25.550000
3075.281451	24.100000
3076.484890	25.360000
3077.686638	21.380000
3078.888201	24.060000
3080.089581	18.870000
3081.290777	25.120000
3082.490283	23.000000
3083.689606	25.400000
3084.890252	20.720000
3086.089208	24.050000
3087.284970	23.090000
3088.483560	22.440000
3089.678958	22.040000
3090.875678	19.880000
3092.069206	21.090000
3093.265562	30.360000
3094.460231	17.950000
3095.651710	17.430000
3096.847521	19.070000
3098.038637	25.380000
3099.231077	23.080000
3100.420329	23.660000
3101.612406	18.700000
3102.802800	19.090000
3103.990008	19.130000
3105.178538	25.670000
3106.368391	17.810000
3107.555060	23.570000
3108.741548	20.860000
3109.927858	27.260000
3111.115489	21.160000
3112.299938	19.040000
3113.482708	18.590000
3114.668300	25.670000
3115.852213	20.910000
3117.034447	19.000000
3118.216502	15.610000
3119.398379	21.630000
3120.580078	22.910000
3121.760100	16.850000
3122.938445	18.410000
3124.119610	18.520000
3125.297600	18.670000
3126.475413	19.780000
3127.653049	20.960000
3128.829010	23.780000
3130.004795	16.810000
3131.181901	19.220000
3132.357332	19.020000
3133.531090	22.670000
3134.703175	16.730000
3135.876582	22.180000
3137.049812	20.910000
3138.221371	22.830000
3139.394250	20.810000
3140.563962	23.140000
3141.734995	27.130000
3142.904358	20.200000
3144.072050	22.360000
3145.242558	23.110000
3146.408408	21.590000
3147.578566	25.010000
3148.744068	20.060000
3149.909395	20.620000
3151.074549	23.360000
3152.239530	12.100000
3153.405830	25.700000
3154.567478	17.940000
3155.730445	28.610000
3156.893240	24.450000
3158.055862	19.820000
3159.216818	21.050000
3160.377603	15.890000
3161.538215	23.750000
3162.697163	19.320000
3163.855940	23.010000
3165.014544	15.850000
3166.172977	24.920000
3167.331239	21.420000
3168.487838	27.480000
3169.642776	19.560000
3170.799033	16.450000
3171.953629	17.030000
3173.108055	20.320000
3174.260821	16.490000
3175.413416	23.980000
3176.565842	19.330000
3177.718098	20.790000
3178.870183	19.800000
3180.019122	13.230000
3181.170869	19.510000
3182.320957	24.680000
3183.469389	24.320000
3184.617651	22.910000
3185.765745	18.200000
3186.913670	21.280000
3188.059939	20.170000
3189.206040	20.590000
3190.350487	21.320000
3191.494766	22.510000
3192.638877	19.250000
3193.784305	17.980000
3194.926595	21.720000
3196.068718	15.580000
3197.210673	22.750000
3198.352461	26.730000
3199.494082	20.380000
3200.632568	20.160000
3201.772371	19.630000
3202.913491	17.090000
3204.051478	22.900000
3205.187815	25.050000
3206.323986	17.880000
3207.461474	22.410000
3208.597314	18.370000
3209.734471	19.530000
3210.867015	21.320000
3212.003841	18.550000
3213.136055	17.720000
3214.269586	24.020000
3215.402953	18.080000
3216.533192	20.630000
3217.666229	24.540000
3218.796140	25.010000
3219.927367	20.530000
3221.055470	19.160000
3222.186369	20.570000
3223.315624	20.220000
3224.443236	25.700000
3225.567725	19.640000
3226.696490	17.920000
3227.822133	22.440000
3228.947613	18.900000
3230.071452	19.910000
3231.198086	17.390000
3232.320122	17.300000
3233.443474	21.920000
3234.566664	21.200000
3235.689691	18.550000
3236.811080	23.370000
3237.932306	26.230000
3239.051894	17.910000
3240.171321	16.510000
3241.289111	19.100000
3242.409692	21.140000
3243.527160	26.900000
3244.644467	19.360000
3245.761614	22.170000
3246.877124	17.220000
3247.993950	18.600000
3249.107666	20.820000
3250.224171	22.560000
3251.339042	18.760000
3252.450803	20.130000
3253.562406	19.680000
3254.675324	21.160000
3255.788082	24.190000
3256.897734	23.690000
3258.008701	25.150000
3259.119509	16.620000
3260.228685	24.470000
3261.336230	21.220000
3262.445090	24.830000
3263.553792	20.510000
3264.659391	20.760000
3265.766304	18.400000
3266.871588	20.590000
3267.978186	24.300000
3269.081684	20.000000
3270.186496	19.400000
3271.291151	15.880000
3272.392708	16.250000
3273.494108	17.750000
3274.596822	23.410000
3275.699380	20.620000
3276.798841	21.700000
3277.901086	20.180000
3279.000235	14.110000
3280.097760	16.680000
3281.195129	19.420000
3282.295280	19.010000
3283.392339	24.240000
3284.489242	21.360000
3285.585990	20.400000
3286.678179	19.570000
3287.774618	26.650000
3288.869434	24.100000
3289.964096	20.980000
3291.057136	26.680000
3292.150021	18.510000
3293.241286	22.920000
3294.333864	17.600000
3295.424822	16.840000
3296.514160	14.640000
3297.603345	15.830000
3298.693842	20.900000
3299.781256	17.830000
3300.868516	21.200000
3301.957089	25.890000
3303.045509	14.060000
3304.129383	19.260000
3305.217498	23.150000
3306.302531	16.160000
3307.385949	21.770000
3308.470679	16.700000
3309.553793	17.380000
3310.638220	16.530000
3311.719568	19.040000
3312.802228	21.880000
3313.883274	22.460000
3314.964168	20.350000
3316.043450	22.460000
3317.122581	21.800000
3318.203024	20.450000
3319.280392	22.070000
3320.359072	19.930000
3321.436140	15.550000
3322.513059	20.650000
3323.588366	18.770000
3324.663524	20.760000
3325.739993	22.190000
3326.813392	18.280000
3327.886641	18.620000
3328.961202	21.670000
3330.034154	19.140000
3331.105497	19.660000
3332.178151	17.710000
3333.247739	18.910000
3334.318637	19.220000
3335.387928	22.230000
3336.458529	20.580000
3337.527525	18.620000
3338.594914	19.490000
3339.660698	23.330000
3340.730708	17.680000
3341.797655	19.530000
3342.861540	21.790000
3343.928192	20.240000
3344.993241	16.260000
3346.056686	24.110000
3347.119985	12.500000
3348.183137	18.800000
3349.246143	21.280000
3350.309003	19.280000
3351.370261	26.280000
3352.428462	26.130000
3353.490883	13.140000
3354.550249	21.150000
3355.609469	16.780000
3356.669998	17.860000
3357.726019	18.080000
3358.784803	17.590000
3359.839080	19.770000
3360.896121	17.810000
3361.951563	24.800000
3363.008315	24.620000
3364.063468	22.740000
3365.117024	16.590000
3366.168984	20.780000
3367.223705	16.870000
3368.275377	21.890000
3369.326906	19.990000
3370.379743	18.500000
3371.429533	16.730000
3372.480632	18.170000
3373.528684	23.210000
3374.579497	10.060000
3375.627264	19.960000
3376.674889	16.240000
3377.722372	16.820000
3378.768262	19.070000
3379.815460	22.630000
3380.859616	15.950000
3381.906530	16.180000
3382.951852	20.790000
3383.994133	15.940000
3385.036273	17.610000
3386.079722	21.900000
3387.123029	14.670000
3388.164746	20.860000
3389.206323	23.240000
3390.247758	19.840000
3391.287605	21.040000
3392.325863	18.560000
3393.365429	15.590000
3394.404855	19.010000
3395.442693	17.940000
3396.478944	24.140000
3397.515056	17.310000
3398.552475	20.680000
3399.586861	15.570000
3400.622554	16.670000
3401.658108	18.430000
3402.690631	23.180000
3403.725906	16.410000
3404.758152	20.620000
3405.790259	21.120000
3406.820782	18.900000
3407.852612	16.630000
3408.884304	17.340000
3409.912968	22.930000
3410.941495	21.860000
3411.971328	21.660000
3413.001024	24.000000
3414.027694	16.280000
3415.055670	22.930000
3416.080623	19.070000
3417.108325	25.260000
3418.133003	17.400000
3419.158989	25.720000
3420.183394	14.700000
3421.207663	19.130000
3422.230353	17.130000
3423.252907	17.630000
3424.276767	21.170000
3425.297607	13.680000
3426.318311	13.140000
3427.340322	24.760000
3428.359314	14.500000
3429.378170	18.180000
3430.398333	16.090000
3431.415479	16.150000
