-117.841134	0.800000
-115.171534	2.790000
-112.504869	-5.390000
-109.838956	2.880000
-107.175976	6.090000
-104.511565	5.100000
-101.850085	-3.950000
-99.187176	3.230000
-96.529373	-2.090000
-93.870141	-0.460000
-91.211657	-0.680000
-88.556098	-1.730000
-85.899109	-2.420000
-83.247219	2.240000
-80.593899	-0.090000
-77.943498	0.710000
-75.291669	-0.360000
-72.644930	-1.370000
-69.996761	0.640000
-67.349335	4.780000
-64.704824	-0.920000
-62.058883	3.600000
-59.418024	-1.280000
-56.775736	0.570000
-54.136357	-0.080000
-51.495548	-0.140000
-48.855480	2.040000
-46.220485	1.350000
-43.584060	1.270000
-40.950538	2.320000
-38.315588	2.130000
-35.685703	3.150000
-33.052226	-4.990000
-30.423811	6.720000
-27.796130	0.260000
-25.167020	3.720000
-22.542967	2.620000
-19.915325	5.790000
-17.292737	0.880000
-14.670879	14.560000
-12.049752	23.850000
-9.429356	58.520000
-6.811847	189.470000
-4.192910	605.960000
-1.576858	1436.360000
1.038465	1770.630000
3.653060	916.340000
6.264774	96.160000
8.877916	16.070000
11.486024	8.390000
14.097713	-0.530000
16.704373	5.880000
19.312460	5.280000
21.919823	3.520000
24.522161	2.910000
27.128077	9.490000
29.728971	0.290000
32.331293	6.490000
34.928597	-2.420000
37.529478	2.870000
40.125343	2.280000
42.722637	2.080000
45.319211	1.320000
47.910776	3.500000
50.503769	0.550000
53.093901	3.290000
55.685460	1.400000
58.274161	0.700000
60.864288	-0.400000
63.449416	5.520000
66.035972	-0.120000
68.621814	4.270000
71.204802	1.850000
73.789216	4.850000
76.366502	-3.030000
78.947354	2.410000
81.525357	-2.710000
84.102650	5.550000
86.681369	3.010000
89.255106	1.900000
91.830271	-4.390000
94.402592	6.860000
96.974205	-2.170000
99.542978	3.840000
102.113178	-1.350000
104.680539	-1.960000
107.249327	-1.250000
109.815278	1.230000
112.378394	-0.040000
114.945066	5.430000
117.502516	-1.530000
120.065653	7.300000
122.623829	5.780000
125.185560	6.130000
127.742334	11.610000
130.300534	18.870000
132.853782	32.040000
135.406332	35.400000
137.962432	43.380000
140.513584	68.540000
143.064039	69.140000
145.613796	81.370000
148.160734	88.500000
150.706977	100.190000
153.254645	101.990000
155.801617	103.090000
158.343654	95.830000
160.884997	94.210000
163.425647	101.830000
165.967723	94.280000
168.506987	98.700000
171.043442	95.780000
173.579207	96.580000
176.116397	90.500000
178.652896	92.310000
181.186589	90.580000
183.717478	88.310000
186.247679	96.070000
188.779306	88.970000
191.308131	92.350000
193.834157	83.310000
196.359497	91.100000
198.886262	87.240000
201.410231	88.530000
203.933515	87.700000
206.456113	89.350000
208.975919	88.540000
211.495042	98.710000
214.013483	87.060000
216.533347	94.100000
219.046210	92.760000
221.562604	97.250000
224.078316	89.030000
226.589138	98.570000
229.101385	94.260000
231.610849	91.740000
234.119635	88.270000
236.627743	94.720000
239.137275	89.230000
241.641926	96.300000
244.145901	92.610000
246.651300	98.340000
249.151824	91.580000
251.655871	98.670000
254.152948	96.890000
256.653548	96.860000
259.151376	99.120000
261.648531	96.530000
264.145013	100.350000
266.636632	94.290000
269.131771	95.490000
271.624143	102.820000
274.115845	96.250000
276.604784	105.570000
279.095146	100.710000
281.582747	99.050000
284.067588	99.830000
286.555944	104.650000
289.037360	105.480000
291.522290	107.660000
294.002375	99.410000
296.485972	105.570000
298.964726	107.530000
301.444903	113.190000
303.922329	100.500000
306.399091	112.060000
308.875189	110.830000
311.348540	110.320000
313.821228	116.970000
316.293255	130.240000
318.764621	130.650000
321.233242	145.350000
323.701204	138.980000
326.170589	133.470000
328.635151	118.460000
331.103217	114.520000
333.566463	104.410000
336.029051	111.200000
338.490983	105.860000
340.952258	112.340000
343.410798	108.850000
345.870762	111.150000
348.327992	110.200000
350.784568	110.150000
353.240490	104.370000
355.693682	107.260000
358.148297	108.710000
360.598110	109.910000
363.051419	112.400000
365.499929	104.520000
367.947789	110.110000
370.397071	106.250000
372.841559	108.230000
375.287469	110.760000
377.732729	106.200000
380.175271	107.900000
382.617165	102.810000
385.058412	111.100000
387.496943	107.700000
389.936895	97.400000
392.374134	107.900000
394.808662	105.230000
397.246677	105.090000
399.679915	104.910000
402.114574	108.360000
404.544461	104.220000
406.977833	107.940000
409.406435	105.140000
411.834395	101.340000
414.263777	109.020000
416.688393	105.720000
419.114431	103.910000
421.539828	105.320000
423.964585	109.270000
426.384584	106.950000
428.806003	109.350000
431.224727	102.030000
433.644871	108.470000
436.062320	105.910000
438.481189	109.980000
440.897365	106.160000
443.308793	102.410000
445.723698	106.540000
448.135914	105.190000
450.547495	98.330000
452.958442	105.050000
455.366703	104.030000
457.774331	102.470000
460.181327	98.350000
462.587692	99.700000
464.991374	91.460000
467.394426	101.200000
469.796848	97.680000
472.198640	100.170000
474.597754	98.160000
476.998288	98.770000
479.398193	94.320000
481.793376	97.450000
484.192025	95.000000
486.585953	95.980000
488.979256	98.760000
491.371934	92.470000
493.763986	95.970000
496.157456	93.680000
498.546214	93.000000
500.932306	90.070000
503.319818	87.520000
505.706707	98.010000
508.090932	100.620000
510.476575	126.980000
512.859557	143.440000
515.239878	181.110000
517.621618	215.670000
520.000699	224.630000
522.381198	206.680000
524.759041	181.070000
527.134227	157.180000
529.508797	139.270000
531.884784	122.850000
534.258119	112.690000
536.632871	100.570000
539.002937	102.140000
541.372389	91.850000
543.743258	91.390000
546.109446	83.730000
548.477053	86.120000
550.842015	77.810000
553.206363	76.940000
555.570098	71.640000
557.935251	79.250000
560.295732	72.810000
562.657631	70.240000
565.016889	65.130000
567.373509	71.070000
569.733575	64.610000
572.086949	64.550000
574.443768	62.670000
576.797952	63.560000
579.151527	67.890000
581.504495	60.630000
583.854830	61.080000
586.206583	58.390000
588.551659	58.260000
590.902198	60.770000
593.246065	57.320000
595.595393	64.420000
597.940072	56.850000
600.282127	58.310000
602.625599	53.360000
604.966448	63.050000
607.306694	56.820000
609.644320	56.780000
611.985381	60.850000
614.321805	61.980000
616.659645	58.960000
618.994868	60.020000
621.327475	56.310000
623.661498	57.620000
625.992907	50.160000
628.323718	55.250000
630.653931	51.780000
632.983547	55.900000
635.308539	49.200000
637.638973	54.000000
639.964786	52.810000
642.287991	52.410000
644.612613	53.010000
646.934629	54.640000
649.256051	47.480000
651.574870	48.510000
653.895106	47.700000
656.214748	52.560000
658.531789	48.950000
660.848238	43.340000
663.162089	43.740000
665.477356	50.100000
667.790026	47.960000
670.104111	49.990000
672.413596	47.170000
674.724497	48.840000
677.032805	39.360000
679.340525	50.520000
681.649659	52.200000
683.954201	45.360000
686.258157	46.110000
688.561527	47.820000
690.866311	42.730000
693.166508	46.890000
695.468121	41.910000
697.769148	48.470000
700.065594	41.050000
702.363455	42.020000
704.660732	37.820000
706.957426	40.880000
709.249544	38.460000
711.545073	44.700000
713.836028	34.480000
716.128398	41.610000
718.418193	39.500000
720.707407	42.510000
722.996042	40.010000
725.282104	41.760000
727.569581	40.050000
729.854486	38.070000
732.138814	44.240000
734.420573	40.080000
736.703746	39.610000
738.986342	44.000000
741.264382	39.110000
743.543837	40.740000
745.822715	37.670000
748.101019	44.060000
750.374773	42.700000
752.649940	39.650000
754.924534	42.990000
757.196569	45.210000
759.470017	41.600000
761.740907	46.020000
764.009241	42.840000
766.278988	45.510000
768.546180	43.860000
770.812803	51.330000
773.078855	40.860000
775.342356	49.080000
777.607270	47.500000
779.871614	45.180000
782.131429	42.500000
784.392656	43.190000
786.653316	47.580000
788.911430	47.220000
791.166999	43.630000
793.425959	49.470000
795.678419	37.330000
797.936247	50.110000
800.189556	44.220000
802.440325	51.960000
804.692506	43.470000
806.942148	53.430000
809.193202	43.970000
811.439746	48.250000
813.687701	47.470000
815.933122	51.790000
818.179954	40.540000
820.426225	43.810000
822.667991	37.850000
824.913141	45.460000
827.151818	36.810000
829.393877	47.860000
831.631438	37.740000
833.870411	41.250000
836.106857	39.200000
838.344714	39.560000
840.580046	38.380000
842.812855	39.490000
845.047074	36.070000
847.278772	37.540000
849.509915	35.110000
851.740503	40.690000
853.970537	36.180000
856.200017	39.110000
858.425015	35.170000
860.653388	34.280000
862.877281	34.260000
865.102586	39.420000
867.323415	32.810000
869.547616	37.560000
871.767344	38.400000
873.988482	39.540000
876.209070	40.780000
878.427149	33.170000
880.646637	38.820000
882.861659	40.020000
885.076133	37.840000
887.290060	42.420000
889.503440	39.290000
891.716272	40.070000
893.928558	38.470000
896.138341	39.400000
898.347579	34.800000
900.556272	41.200000
902.762465	33.520000
904.970069	39.040000
907.175174	33.780000
909.379736	41.660000
911.581803	38.650000
913.785279	38.670000
915.986261	40.870000
918.186701	39.400000
920.388550	35.660000
922.584008	39.690000
924.782825	32.260000
926.977203	39.610000
929.174939	43.120000
931.368239	43.660000
933.562948	41.810000
935.755171	44.580000
937.946855	48.710000
940.138002	55.450000
942.326666	47.530000
944.514794	44.810000
946.700441	51.030000
948.889440	49.650000
951.074016	45.320000
953.258057	60.340000
955.445448	49.360000
957.624535	56.060000
959.806973	53.010000
961.988877	56.310000
964.168306	59.050000
966.345263	57.950000
968.523628	48.990000
970.703400	59.000000
972.876823	53.060000
975.053592	58.850000
977.225954	54.990000
979.399724	58.820000
981.569090	55.620000
983.741800	64.240000
985.912045	61.790000
988.081760	60.340000
990.250948	57.170000
992.415738	55.580000
994.583869	51.020000
996.747605	56.500000
998.912749	55.130000
1001.075433	54.570000
1003.237592	55.350000
1005.397294	55.720000
1007.556471	53.350000
1009.717055	59.770000
1011.875184	56.730000
1014.032790	55.980000
1016.189872	54.460000
1018.346430	54.190000
1020.498609	56.470000
1022.652195	58.460000
1024.805259	53.470000
1026.955874	61.900000
1029.107896	54.410000
1031.255544	55.390000
1033.406524	51.490000
1035.553133	61.980000
1037.699223	58.430000
1039.844795	64.470000
1041.991772	61.840000
1044.132460	61.030000
1046.276478	57.590000
1048.418055	64.050000
1050.559115	62.030000
1052.701581	62.910000
1054.837766	58.320000
1056.977278	62.240000
1059.112435	61.870000
1061.250916	63.470000
1063.385043	63.850000
1065.518657	66.740000
1067.653675	60.970000
1069.784345	64.160000
1071.916419	63.620000
1074.046064	58.450000
1076.175197	57.950000
1078.303818	57.720000
1080.431928	55.110000
1082.557612	58.650000
1084.682786	48.980000
1086.809364	59.080000
1088.931604	55.300000
1091.055249	52.460000
1093.174559	47.040000
1095.299098	51.670000
1097.417393	45.900000
1099.537092	52.580000
1101.654372	50.070000
1103.771145	50.050000
1105.887413	49.740000
1108.001264	49.070000
1110.116520	43.910000
1112.227452	45.430000
1114.341697	45.520000
1116.451621	47.190000
1118.562949	44.720000
1120.673772	47.580000
1122.780279	42.850000
1124.890095	43.000000
1126.995598	42.080000
1129.102503	44.600000
1131.203193	43.860000
1133.309095	45.810000
1135.410688	42.050000
1137.513684	45.200000
1139.616179	40.480000
1141.712467	52.590000
1143.813962	43.060000
1145.911155	45.100000
1148.007850	43.140000
1150.104046	44.810000
1152.199744	41.740000
1154.294945	46.420000
1156.387749	32.860000
1158.481955	41.630000
1160.569970	44.730000
1162.663184	40.120000
1164.750209	39.270000
1166.840533	39.600000
1168.926569	40.120000
1171.015904	40.440000
1173.099057	35.300000
1175.183612	40.050000
1177.269569	41.660000
1179.351244	36.490000
1181.434320	38.730000
1183.515011	40.820000
1185.595211	39.290000
1187.674919	41.240000
1189.754136	39.340000
1191.830971	35.220000
1193.905424	31.810000
1195.983170	40.290000
1198.056646	34.420000
1200.131522	38.000000
1202.202131	34.290000
1204.274141	38.630000
1206.343775	35.390000
1208.414810	37.080000
1210.485358	36.620000
1212.551644	34.930000
1214.619331	33.900000
1216.684646	35.090000
1218.751361	28.960000
1220.813820	38.650000
1222.879564	32.780000
1224.941054	36.850000
1227.003945	34.320000
1229.064468	42.180000
1231.124507	31.980000
1233.184063	35.650000
1235.241255	30.720000
1237.297965	39.610000
1239.352311	36.110000
1241.409939	31.210000
1243.465203	28.280000
1245.516228	29.130000
1247.568652	29.480000
1249.620596	34.810000
1251.670182	33.430000
1253.719289	40.350000
1255.767917	30.510000
1257.816067	37.360000
1259.863739	32.760000
1261.907180	33.830000
1263.953897	28.390000
1265.998260	36.930000
1268.042147	29.710000
1270.083682	32.570000
1272.122868	30.250000
1274.165327	28.940000
1276.203563	30.510000
1278.243198	27.150000
1280.282358	26.640000
1282.317299	31.510000
1284.353639	32.040000
1286.387635	34.610000
1288.423028	30.130000
1290.454209	31.760000
1292.486787	29.670000
1294.518894	36.250000
1296.548660	27.280000
1298.579823	29.750000
1300.606780	25.960000
1302.635134	31.410000
1304.659283	33.250000
1306.686698	30.080000
1308.709910	32.810000
1310.734520	33.450000
1312.756796	33.060000
1314.780468	35.080000
1316.801808	24.100000
1318.822681	25.030000
1320.843086	28.400000
1322.859298	31.040000
1324.876907	27.500000
1326.892188	30.960000
1328.910728	27.250000
1330.925079	27.070000
1332.937103	30.780000
1334.952386	29.760000
1336.963483	27.800000
1338.975977	40.740000
1340.984288	30.700000
1342.995854	35.860000
1345.001382	29.630000
1347.010165	33.390000
1349.014770	31.800000
1351.022629	32.960000
1353.030026	29.580000
1355.031392	29.900000
1357.034154	26.760000
1359.036457	35.350000
1361.038300	22.090000
1363.039683	35.110000
1365.038753	31.520000
1367.037364	32.900000
1369.035516	30.150000
1371.033211	25.820000
1373.026743	33.250000
1375.021670	28.790000
1377.016141	24.820000
1379.010155	32.210000
1381.001862	31.250000
1382.993113	22.800000
1384.982059	30.480000
1386.972401	33.920000
1388.962287	32.750000
1390.949869	35.770000
1392.936998	32.100000
1394.921825	32.890000
1396.908047	30.790000
1398.891968	31.180000
1400.875437	25.640000
1402.858454	29.530000
1404.839173	27.710000
1406.821286	30.470000
1408.801103	26.890000
1410.780468	31.250000
1412.755695	27.440000
1414.734160	31.980000
1416.710332	33.250000
1418.686054	33.260000
1420.661328	32.220000
1422.634310	35.060000
1424.606844	28.120000
1426.578930	33.940000
1428.550569	26.630000
1430.518079	29.450000
1432.490663	24.350000
1434.455441	34.370000
1436.425292	21.820000
1438.391019	28.700000
1440.358138	25.600000
1442.322974	31.940000
1444.283690	30.770000
1446.249474	28.180000
1448.209303	30.170000
1450.170526	31.390000
1452.133140	29.280000
1454.091640	25.420000
1456.049698	29.450000
1458.007314	29.790000
1459.964487	29.000000
1461.919385	30.580000
1463.875676	25.720000
1465.829692	32.270000
1467.783267	26.800000
1469.734570	27.080000
1471.687265	31.130000
1473.637689	33.890000
1475.587674	24.510000
1477.537220	33.200000
1479.484497	27.290000
1481.429506	28.150000
1483.375908	29.670000
1485.321872	27.220000
1487.267399	27.950000
1489.210660	31.520000
1491.153486	28.770000
1493.094047	31.040000
1495.036001	32.600000
1496.975692	35.410000
1498.914948	27.940000
1500.853770	34.310000
1502.790332	26.500000
1504.728285	34.510000
1506.663979	28.390000
1508.599240	31.530000
1510.532244	25.980000
1512.464817	29.620000
1514.396956	28.440000
1516.328664	37.890000
1518.258119	33.250000
1520.188964	31.870000
1522.119377	28.860000
1524.045718	31.580000
1525.973449	27.470000
1527.898931	28.430000
1529.823983	28.260000
1531.748606	30.650000
1533.672799	26.750000
1535.594746	33.610000
1537.518083	31.480000
1539.439173	31.640000
1541.358019	28.220000
1543.278255	33.390000
1545.196248	22.570000
1547.113813	31.690000
1549.029138	31.920000
1550.945852	33.410000
1552.858511	35.950000
1554.774373	41.230000
1556.687997	35.050000
1558.599382	36.790000
1560.512157	28.590000
1562.420882	36.130000
1564.330996	28.330000
1566.240687	32.590000
1568.149955	29.920000
1570.056989	35.350000
1571.961790	33.040000
1573.867979	31.160000
1575.771938	27.340000
1577.675475	37.250000
1579.578592	32.790000
1581.479479	42.550000
1583.381755	35.890000
1585.281803	45.410000
1587.183238	38.570000
1589.080640	42.110000
1590.977623	49.390000
1592.874188	46.240000
1594.772140	43.380000
1596.664258	40.750000
1598.559570	37.220000
1600.454464	35.280000
1602.347136	29.920000
1604.239391	36.120000
1606.129427	30.960000
1608.019047	33.880000
1609.908252	29.710000
1611.797041	30.920000
1613.683614	32.370000
1615.571574	33.240000
1617.455517	32.630000
1619.340847	32.910000
1621.225764	31.370000
1623.108467	28.790000
1624.992557	29.800000
1626.872635	30.700000
1628.754101	29.680000
1630.633356	30.740000
1632.513997	29.160000
1634.388834	26.810000
1636.268652	28.030000
1638.144466	31.660000
1640.019869	28.400000
1641.896658	29.420000
1643.767651	25.270000
1645.641825	28.120000
1647.512000	29.420000
1649.385356	32.400000
1651.256509	31.190000
1653.125461	32.800000
1654.995797	30.710000
1656.862141	27.790000
1658.729870	28.850000
1660.595400	30.540000
1662.462316	25.890000
1664.325242	28.680000
1666.189555	24.550000
1668.051671	28.070000
1669.913382	30.310000
1671.776479	31.000000
1673.637380	29.200000
1675.496089	29.350000
1677.354394	30.250000
1679.214083	33.420000
1681.068006	32.530000
1682.925102	31.470000
1684.781794	28.290000
1686.634511	34.860000
1688.490399	26.420000
1690.342313	38.630000
1692.193826	26.810000
1694.044938	33.340000
1695.895649	30.030000
1697.745960	28.560000
1699.594087	25.690000
1701.443598	32.490000
1703.287359	24.960000
1705.136071	28.190000
1706.979036	29.270000
1708.825168	30.940000
1710.667337	27.790000
1712.512672	33.770000
1714.352266	31.830000
1716.193244	29.060000
1718.035605	27.030000
1719.874010	34.840000
1721.713798	28.060000
1723.551410	29.800000
1725.388628	30.410000
1727.223672	28.150000
1729.060099	29.450000
1730.894353	32.120000
1732.728214	29.330000
1734.561680	31.980000
1736.391200	25.420000
1738.223880	26.810000
1740.052615	33.070000
1741.884507	32.740000
1743.712457	28.520000
1745.540015	30.060000
1747.367182	28.060000
1749.193957	35.220000
1751.020340	28.760000
1752.842787	30.420000
1754.668389	26.150000
1756.490056	32.130000
1758.313104	27.740000
1760.133992	31.830000
1761.954491	29.040000
1763.776370	31.830000
1765.592550	28.470000
1767.411883	30.990000
1769.227287	27.670000
1771.045843	38.330000
1772.860473	26.280000
1774.674716	28.450000
1776.488573	31.220000
1778.302043	24.000000
1780.113360	23.650000
1781.926057	35.260000
1783.738369	23.210000
1785.546762	26.950000
1787.356537	29.580000
1789.162397	26.660000
1790.971402	23.920000
1792.776494	25.420000
1794.582967	22.370000
1796.389056	29.350000
1798.191234	23.180000
1799.996557	28.400000
1801.797971	26.390000
1803.600765	29.610000
1805.399653	26.720000
1807.199922	29.090000
1808.999809	25.680000
1810.797554	27.300000
1812.594919	25.170000
1814.391903	34.740000
1816.188508	31.950000
1817.982973	34.420000
1819.778817	28.540000
1821.569006	34.940000
1823.364092	30.270000
1825.153525	25.580000
1826.946096	30.880000
1828.736531	33.230000
1830.524832	27.350000
1832.316267	33.420000
1834.102058	27.030000
1835.889228	37.310000
1837.674266	25.240000
1839.462438	29.470000
1841.246724	23.740000
1843.028880	29.890000
1844.812416	28.200000
1846.593823	35.580000
1848.376609	25.470000
1850.155514	33.940000
1851.935798	32.800000
1853.713957	28.300000
1855.493494	25.730000
1857.270905	28.570000
1859.046194	29.320000
1860.822860	32.290000
1862.597404	28.110000
1864.373325	30.240000
1866.143627	24.840000
1867.917056	28.880000
1869.688365	30.390000
1871.459303	30.280000
1873.231619	26.040000
1874.998321	33.020000
1876.768148	25.500000
1878.534112	29.520000
1880.303200	27.690000
1882.068426	33.210000
1883.833284	32.010000
1885.599519	28.900000
1887.361895	26.860000
1889.123903	37.960000
1890.885545	30.020000
1892.646819	28.670000
1894.407727	29.750000
1896.168268	36.290000
1897.926699	27.540000
1899.684764	33.060000
1901.440722	30.260000
1903.198056	26.680000
1904.955025	26.150000
1906.709887	29.870000
1908.462645	32.950000
1910.215038	29.460000
1911.968808	24.340000
1913.720474	29.910000
1915.470038	30.760000
1917.220977	31.000000
1918.971553	32.190000
1920.718291	28.890000
1922.466404	26.530000
1924.212419	28.070000
1925.959808	31.170000
1927.705100	27.190000
1929.448294	23.080000
1931.192863	30.650000
1932.935336	30.350000
1934.677450	31.070000
1936.419203	27.850000
1938.160596	31.830000
1939.899896	27.790000
1941.638837	29.680000
1943.377419	27.370000
1945.113910	32.230000
1946.850043	31.640000
1948.587550	31.050000
1950.321235	29.690000
1952.056295	32.560000
1953.789266	31.640000
1955.521881	34.080000
1957.254140	27.300000
1958.986042	33.310000
1960.715858	27.750000
1962.443589	30.140000
1964.172695	27.640000
1965.901445	28.360000
1967.628113	28.530000
1969.354426	29.660000
1971.082112	25.140000
1972.804262	33.130000
1974.529513	30.180000
1976.250957	33.060000
1977.975501	24.080000
1979.697966	31.810000
1981.416628	33.980000
1983.138388	27.300000
1984.856346	33.090000
1986.575677	35.580000
1988.291209	30.400000
1990.011561	30.730000
1991.728115	28.650000
1993.440872	28.890000
1995.156725	28.480000
1996.870506	37.290000
1998.583937	31.010000
2000.295297	29.500000
2002.008029	29.230000
2003.716971	30.890000
2005.429005	30.630000
2007.135530	32.240000
2008.845148	28.700000
2010.552698	31.620000
2012.259901	25.740000
2013.965038	33.120000
2015.669829	30.590000
2017.375991	34.270000
2019.078371	31.620000
2020.782122	30.740000
2022.483811	28.440000
2024.185154	32.920000
2025.886153	29.920000
2027.585090	28.920000
2029.285399	25.370000
2030.981932	30.510000
2032.679837	25.730000
2034.375684	30.200000
2036.074616	27.940000
2037.768062	32.240000
2039.462879	26.160000
2041.157354	32.260000
2042.848060	27.070000
2044.541850	31.590000
2046.231873	33.530000
2047.923267	31.210000
2049.612608	30.680000
2051.303319	30.700000
2052.990267	29.310000
2054.676876	30.010000
2056.364854	28.980000
2058.049073	30.450000
2059.734663	23.790000
2061.419912	28.520000
2063.103114	31.300000
2064.787686	37.760000
2066.466794	29.930000
2068.150689	31.470000
2069.829122	30.950000
2071.510633	29.830000
2073.188392	23.550000
2074.865815	30.450000
2076.544607	28.360000
2078.221357	28.080000
2079.896064	29.170000
2081.572142	27.890000
2083.246178	28.910000
2084.919880	27.220000
2086.593246	26.070000
2088.264573	33.010000
2089.935566	27.220000
2091.606225	32.750000
2093.276550	24.240000
2094.946541	31.960000
2096.614496	33.460000
2098.282117	26.620000
2099.947705	26.750000
2101.614661	33.430000
2103.279584	27.290000
2104.944175	36.070000
2106.606734	25.230000
2108.270661	31.840000
2109.932557	28.180000
2111.594123	33.580000
2113.255357	27.690000
2114.914563	30.590000
2116.573438	31.380000
2118.231984	29.730000
2119.890199	26.490000
2121.544692	35.670000
2123.202249	24.520000
2124.859476	36.460000
2126.512983	25.860000
2128.167857	29.900000
2129.819012	34.310000
2131.473230	30.260000
2133.123730	27.690000
2134.775598	33.400000
2136.422057	27.250000
2138.073271	31.610000
2139.720771	29.670000
2141.369638	25.140000
2143.016486	30.300000
2144.663009	28.810000
2146.309206	28.870000
2147.951695	31.110000
2149.597241	29.050000
2151.239082	29.870000
2152.883979	25.960000
2154.525170	27.960000
2156.166038	27.040000
2157.806583	31.670000
2159.445115	26.830000
2161.085013	37.290000
2162.721211	32.830000
2164.358775	35.740000
2165.996017	27.010000
2167.631249	32.000000
2169.266159	35.070000
2170.900748	26.130000
2172.535016	27.870000
2174.165590	30.260000
2175.799216	28.650000
2177.429150	31.550000
2179.060449	26.450000
2180.689743	33.300000
2182.318718	27.730000
2183.947373	33.390000
2185.575709	23.840000
2187.202043	30.620000
2188.828057	20.390000
2190.452071	32.710000
2192.077450	27.910000
2193.700828	31.850000
2195.325571	28.930000
2196.946633	32.390000
2198.567378	28.560000
2200.189487	39.070000
2201.809599	27.780000
2203.427715	32.030000
2205.045515	28.190000
2206.663000	29.340000
2208.280169	33.070000
2209.897023	30.570000
2211.513561	26.360000
2213.128107	28.140000
2214.740660	29.930000
2216.354577	30.310000
2217.966503	27.240000
2219.579792	31.460000
2221.191091	27.100000
2222.800400	28.430000
2224.411073	26.520000
2226.019757	29.610000
2227.628128	30.430000
2229.234513	31.000000
2230.842260	34.460000
2232.448022	28.160000
2234.053472	29.990000
2235.656937	28.420000
2237.261765	27.390000
2238.864609	30.090000
2240.465470	32.440000
2242.067694	32.340000
2243.667936	27.680000
2245.269540	28.560000
2246.867491	27.340000
2248.466805	27.070000
2250.064139	31.680000
2251.661165	30.770000
2253.259553	28.720000
2254.854292	33.430000
2256.447054	27.730000
2258.041179	29.130000
2259.636665	30.340000
2261.228506	32.630000
2262.820041	26.460000
2264.412938	32.880000
2266.000525	31.430000
2267.592808	31.110000
2269.179785	33.110000
2270.769789	26.160000
2272.354489	30.570000
2273.943883	36.320000
2275.527974	23.580000
2277.113427	30.430000
2278.696911	29.050000
2280.283420	31.320000
2281.866296	27.740000
2283.448869	29.210000
2285.031138	30.400000
2286.609777	27.490000
2288.191441	30.350000
2289.769476	28.030000
2291.350534	23.800000
2292.927965	24.175000
2294.503433	24.550000
2296.081923	32.100000
2297.656789	25.550000
2299.231354	28.160000
2300.805618	29.320000
2302.379583	29.790000
2303.953246	30.510000
2305.526610	34.430000
2307.096355	21.700000
2308.665801	31.910000
2310.238265	27.320000
2311.805455	26.800000
2313.375663	25.350000
2314.942256	24.880000
2316.510209	24.670000
2318.076206	33.220000
2319.641906	31.400000
2321.207308	31.510000
2322.770757	28.560000
2324.335565	38.630000
2325.896765	40.590000
2327.460979	48.460000
2329.019931	49.160000
2330.581897	46.980000
2332.141913	34.640000
2333.701633	27.310000
2335.259405	31.660000
2336.816881	31.240000
2338.374063	24.350000
2339.929297	38.170000
2341.484238	32.470000
2343.038884	31.360000
2344.593237	31.090000
2346.147296	27.580000
2347.701062	25.720000
2349.252883	32.540000
2350.802762	31.650000
2352.355648	29.190000
2353.903291	25.740000
2355.453943	33.040000
2357.001003	31.100000
2358.549421	26.290000
2360.097548	29.340000
2361.642086	26.640000
2363.187982	29.730000
2364.731940	26.030000
2366.277254	26.660000
2367.818985	31.570000
2369.362072	25.460000
2370.903223	32.220000
2372.444085	32.120000
2373.984658	29.570000
2375.524942	27.410000
2377.064937	29.210000
2378.601354	33.580000
2380.140772	27.090000
2381.676612	25.660000
2383.213810	29.990000
2384.747432	30.350000
2386.284054	34.750000
2387.818746	32.180000
2389.351508	33.030000
2390.883983	27.190000
2392.414530	34.410000
2393.948075	25.940000
2395.476409	30.180000
2397.006099	34.800000
2398.535504	31.550000
2400.064624	32.700000
2401.593458	33.240000
2403.117088	27.890000
2404.645353	34.640000
2406.168416	29.730000
2407.696112	34.090000
2409.216969	29.210000
2410.742458	31.810000
2412.264388	33.110000
2413.787672	34.460000
2415.309036	31.510000
2416.828480	32.490000
2418.349279	25.220000
2419.868159	32.330000
2421.386758	29.630000
2422.903439	34.920000
2424.421474	22.120000
2425.939228	31.670000
2427.453430	26.970000
2428.967353	23.670000
2430.480995	31.450000
2431.995992	32.170000
2433.507440	29.660000
2435.020242	26.800000
2436.531132	24.480000
2438.041743	27.720000
2439.550442	33.770000
2441.062127	32.220000
2442.570269	29.710000
2444.078133	30.820000
2445.585718	29.060000
2447.089764	35.990000
2448.596794	26.280000
2450.101916	32.360000
2451.606761	33.680000
2453.109699	30.620000
2454.612361	24.300000
2456.114746	36.700000
2457.615226	30.050000
2459.117059	31.720000
2460.616987	26.910000
2462.116640	28.450000
2463.616018	29.640000
2465.113493	29.900000
2466.609066	27.970000
2468.107619	38.090000
2469.602644	26.090000
2471.099021	33.140000
2472.591872	24.910000
2474.086076	34.700000
2475.580006	24.650000
2477.070412	32.270000
2478.563796	31.400000
2480.055282	30.980000
2481.544871	26.220000
2483.034188	30.500000
2484.521609	27.030000
2486.012006	31.260000
2487.498885	33.640000
2488.987115	26.220000
2490.471828	26.930000
2491.956272	28.500000
2493.442066	23.870000
2494.925969	29.020000
2496.411222	25.120000
2497.891342	30.130000
2499.374435	29.380000
2500.855637	29.450000
2502.336570	29.790000
2503.815614	34.850000
2505.294389	25.240000
2506.772896	33.930000
2508.251135	34.050000
2509.729105	31.880000
2511.203570	32.680000
2512.681005	36.130000
2514.154936	24.670000
2515.630217	26.000000
2517.105231	28.970000
2518.576744	30.800000
2520.049608	31.660000
2521.520589	26.450000
2522.992920	26.090000
2524.460137	29.160000
2525.930321	29.690000
2527.398624	33.910000
2528.866662	26.260000
2530.334435	30.720000
2531.801943	28.360000
2533.269186	26.270000
2534.732937	25.000000
2536.198038	30.190000
2537.661262	26.830000
2539.125835	26.140000
2540.586920	30.960000
2542.049354	29.620000
2543.511525	23.890000
2544.970210	29.060000
2546.433466	24.990000
2547.891626	29.440000
2549.351136	22.520000
2550.805551	26.370000
2552.264537	23.980000
2553.721651	33.600000
2555.176893	24.630000
2556.631875	29.440000
2558.084988	30.200000
2559.539448	31.740000
2560.992040	28.340000
2562.444372	27.370000
2563.894837	28.610000
2565.348257	28.750000
2566.796595	24.620000
2568.247888	32.970000
2569.697316	32.920000
2571.143271	32.040000
2572.592181	27.570000
2574.037621	33.910000
2575.484408	29.030000
2576.929332	28.960000
2578.373999	23.930000
2579.820013	26.850000
2581.262561	27.180000
2582.706456	31.160000
2584.146885	21.060000
2585.588663	27.040000
2587.028581	28.600000
2588.469846	30.020000
2589.907649	27.400000
2591.348402	33.050000
2592.784093	26.100000
2594.222732	27.390000
2595.659515	30.710000
2597.094442	30.410000
2598.532316	27.070000
2599.965133	31.740000
2601.399297	29.390000
2602.831607	30.720000
2604.265263	26.340000
2605.697066	28.950000
2607.128615	28.250000
2608.559912	29.330000
2609.989356	26.060000
2611.418548	28.520000
2612.845890	25.880000
2614.274577	29.910000
2615.703013	28.090000
2617.128001	28.820000
2618.554336	34.640000
2619.978822	31.340000
2621.404654	27.880000
2622.827042	28.850000
2624.250776	29.000000
2625.672663	30.370000
2627.094300	26.640000
2628.514093	31.670000
2629.935231	24.920000
2631.356119	27.570000
2632.773568	21.780000
2634.193958	29.170000
2635.610910	28.740000
2637.027613	31.420000
2638.444068	24.410000
2639.860275	29.690000
2641.276234	36.710000
2642.690352	28.210000
2644.104222	28.870000
2645.516253	33.570000
2646.929629	30.350000
2648.339575	27.800000
2649.752457	36.270000
2651.161910	32.470000
2652.571117	29.080000
2653.978488	41.110000
2655.388793	27.600000
2656.797263	32.630000
2658.203897	30.910000
2659.610286	34.010000
2661.014841	33.290000
2662.420740	36.530000
2663.824806	32.970000
2665.228627	38.110000
2666.632204	36.170000
2668.033950	42.820000
2669.437039	41.780000
2670.836710	39.570000
2672.237725	40.230000
2673.635324	44.580000
2675.035852	38.640000
2676.432966	43.000000
2677.831423	45.280000
2679.228053	44.830000
2680.624440	38.900000
2682.020585	45.620000
2683.414904	44.660000
2684.810566	46.880000
2686.202819	48.890000
2687.596414	46.670000
2688.988185	46.600000
2690.381299	44.290000
2691.772589	45.460000
2693.162056	41.000000
2694.551283	38.800000
2695.940271	47.440000
2697.330600	36.960000
2698.715946	40.070000
2700.104215	34.010000
2701.490664	40.280000
2702.876874	36.990000
2704.262845	35.180000
2705.645418	33.830000
2707.029333	31.810000
2708.413010	30.040000
2709.796448	30.210000
2711.176491	33.360000
2712.557876	32.560000
2713.937446	26.770000
2715.318356	33.900000
2716.697452	31.610000
2718.074734	30.930000
2719.453357	27.640000
2720.830166	29.760000
2722.206740	26.930000
2723.583078	26.320000
2724.957604	26.390000
2726.333471	32.800000
2727.705952	29.720000
2729.081348	30.170000
2730.451784	23.590000
2731.823561	31.680000
2733.195103	25.520000
2734.564837	32.670000
2735.935911	28.610000
2737.305178	29.400000
2738.674211	32.660000
2740.041438	29.880000
2741.408431	26.730000
2742.775192	21.940000
2744.141720	26.160000
2745.506444	31.380000
2746.870935	26.830000
2748.235195	30.660000
2749.599222	23.900000
2750.963018	25.250000
2752.323440	21.020000
2753.686772	26.840000
2755.045162	25.010000
2756.406462	26.410000
2757.764392	30.100000
2759.125230	27.240000
2760.484268	25.410000
2761.839939	26.080000
2763.198517	23.530000
2764.553728	27.880000
2765.908710	26.910000
2767.261895	24.880000
2768.617987	25.950000
2769.970715	27.770000
2771.323215	25.370000
2772.675486	27.300000
2774.029095	25.720000
2775.379344	26.450000
2776.727798	25.210000
2778.079157	27.780000
2779.427158	24.160000
2780.776496	28.060000
2782.124042	26.420000
2783.471362	27.820000
2784.818455	19.680000
2786.163756	25.030000
2787.508832	25.160000
2788.853682	27.370000
2790.198306	23.820000
2791.539578	26.740000
2792.882187	25.190000
2794.224572	26.650000
2795.566731	30.070000
2796.905541	29.630000
2798.247251	22.610000
2799.585612	22.140000
2800.925311	20.250000
2802.263225	33.510000
2803.599353	23.990000
2804.935259	25.600000
2806.272502	24.990000
2807.607961	33.680000
2808.943197	29.430000
2810.276650	26.110000
2811.611440	21.300000
2812.942890	28.440000
2814.277235	24.160000
2815.606682	29.150000
2816.937465	23.900000
2818.268028	26.390000
2819.596811	26.270000
2820.926930	28.240000
2822.255271	23.800000
2823.583391	21.510000
2824.909733	26.250000
2826.237412	27.820000
2827.561757	22.520000
2828.887439	31.550000
2830.211345	22.420000
2831.535031	26.700000
2832.860053	23.750000
2834.181746	25.150000
2835.503220	20.360000
2836.824475	23.270000
2838.145511	20.250000
2839.464774	26.700000
2840.785373	27.860000
2842.104200	31.410000
2843.422810	24.930000
2844.739648	27.470000
2846.056269	22.340000
2847.372673	27.910000
2848.687307	24.880000
2850.003277	26.260000
2851.315926	25.550000
2852.629910	27.580000
2853.943678	25.330000
2855.257229	21.440000
2856.569014	24.210000
2857.879032	31.480000
2859.190385	20.840000
2860.498423	28.240000
2861.807795	28.660000
2863.116952	27.910000
2864.425895	23.560000
2865.733073	28.100000
2867.038489	25.780000
2868.345238	26.360000
2869.650226	26.710000
2870.954999	22.900000
2872.258012	21.250000
2873.563905	30.990000
2874.864944	25.050000
2876.167317	25.960000
2877.467930	24.490000
2878.769877	26.120000
2880.071610	19.660000
2881.370040	30.300000
2882.669803	27.350000
2883.967809	26.210000
2885.265603	28.210000
2886.561641	29.770000
2887.859012	21.900000
2889.154627	22.450000
2890.450031	16.140000
2891.745224	22.890000
2893.037120	14.420000
2894.331892	27.660000
2895.623367	21.970000
2896.916175	28.800000
2898.208773	15.550000
2899.498077	29.240000
2900.788713	19.290000
2902.077598	30.000000
2903.367815	25.810000
2904.654741	24.350000
2905.942999	23.260000
2907.229508	22.810000
2908.515808	26.540000
2909.801900	25.350000
2911.086245	19.450000
2912.373460	24.770000
2913.655849	20.930000
2914.939570	30.860000
2916.221545	27.510000
2917.503312	24.000000
2918.783334	20.810000
2920.066227	23.950000
2921.347374	26.170000
2922.625239	24.040000
2923.905973	26.280000
2925.183426	25.360000
2926.460673	20.490000
2927.736178	21.770000
2929.014551	24.530000
2930.288110	29.910000
2931.564536	21.730000
2932.839221	23.080000
2934.112165	22.260000
2935.386441	21.160000
2936.658977	26.270000
2937.931308	25.870000
2939.200367	22.320000
2940.472291	22.030000
2941.742477	23.320000
2943.012459	20.870000
2944.282238	21.480000
2945.550281	26.150000
2946.816587	19.030000
2948.082691	29.180000
2949.350126	20.970000
2950.615825	20.450000
2951.881323	21.990000
2953.146618	27.450000
2954.408648	23.310000
2955.672008	23.310000
2956.935167	24.530000
2958.196594	27.880000
2959.459350	24.460000
2960.720374	24.070000
2961.979668	25.130000
2963.238761	22.630000
2964.497655	21.430000
2965.756348	18.790000
2967.014841	21.560000
2968.271604	27.160000
2969.528169	20.390000
2970.783005	29.850000
2972.039171	23.450000
2973.292082	26.130000
2974.546321	22.920000
2975.800362	21.360000
2977.052677	19.980000
2978.304794	24.660000
2979.555186	24.070000
2980.808433	23.700000
2982.056903	23.400000
2983.308228	27.500000
2984.556303	23.460000
2985.804181	25.170000
2987.051863	24.870000
2988.299347	26.840000
2989.545110	18.270000
2990.790677	20.450000
2992.037571	21.080000
2993.281221	22.060000
2994.526199	26.670000
2995.767933	24.070000
2997.012519	24.600000
2998.255386	24.470000
2999.495012	24.110000
3000.737488	22.940000
3001.976724	25.330000
3003.217288	22.190000
3004.456135	21.170000
3005.694788	28.540000
3006.931725	17.850000
3008.169990	18.560000
3009.406539	18.000000
3010.642895	22.090000
3011.879057	26.160000
3013.113505	28.670000
3014.347760	23.790000
3015.581823	19.960000
3016.814172	23.760000
3018.044810	23.320000
3019.278294	22.160000
3020.510067	23.710000
3021.740129	22.380000
3022.969998	25.470000
3024.198158	24.700000
3025.427645	24.660000
3026.655422	23.220000
3027.883008	29.220000
3029.111920	19.640000
3030.336090	19.380000
3031.563104	20.670000
3032.786893	26.290000
3034.012009	23.880000
3035.235418	18.950000
3036.458637	21.060000
3037.680151	20.460000
3038.904506	19.400000
3040.124126	23.070000
3041.345072	22.020000
3042.565829	25.820000
3043.784882	22.230000
3045.005260	23.030000
3046.222422	21.320000
3047.440910	27.370000
3048.657695	21.880000
3049.874293	26.070000
3051.090702	25.150000
3052.303898	23.360000
3053.519933	20.990000
3054.732755	22.880000
3055.948413	20.500000
3057.159350	22.940000
3058.371611	23.850000
3059.583685	24.390000
3060.795573	24.960000
3062.005764	17.400000
3063.215768	21.110000
3064.425586	26.780000
3065.633708	19.790000
3066.841645	25.190000
3068.047886	20.500000
3069.255452	25.360000
3070.461323	27.205000
3071.667009	29.050000
3072.872511	21.540000
3074.076319	22.080000
3075.281451	21.590000
3076.484890	29.850000
3077.686638	18.840000
3078.888201	25.360000
3080.089581	18.760000
3081.290777	23.830000
3082.490283	25.120000
3083.689606	22.170000
3084.890252	19.650000
3086.089208	22.390000
3087.284970	24.220000
3088.483560	22.870000
3089.678958	20.220000
3090.875678	25.420000
3092.069206	18.170000
3093.265562	27.760000
3094.460231	18.240000
3095.651710	15.090000
3096.847521	16.510000
3098.038637	21.570000
3099.231077	24.320000
3100.420329	22.220000
3101.612406	22.820000
3102.802800	23.350000
3103.990008	20.080000
3105.178538	27.230000
3106.368391	21.470000
3107.555060	21.950000
3108.741548	20.240000
3109.927858	21.570000
3111.115489	18.080000
3112.299938	21.590000
3113.482708	17.130000
3114.668300	18.520000
3115.852213	21.170000
3117.034447	20.080000
3118.216502	19.920000
3119.398379	20.640000
3120.580078	18.020000
3121.760100	18.120000
3122.938445	20.410000
3124.119610	22.410000
3125.297600	21.990000
3126.475413	19.470000
3127.653049	17.310000
3128.829010	19.730000
3130.004795	18.920000
3131.181901	16.770000
3132.357332	16.400000
3133.531090	18.430000
3134.703175	20.710000
3135.876582	26.200000
3137.049812	17.090000
3138.221371	18.630000
3139.394250	21.220000
3140.563962	24.520000
3141.734995	26.440000
3142.904358	24.530000
3144.072050	22.460000
3145.242558	21.810000
3146.408408	21.920000
3147.578566	21.980000
3148.744068	21.150000
3149.909395	25.570000
3151.074549	22.090000
3152.239530	22.100000
3153.405830	25.600000
3154.567478	19.400000
3155.730445	21.290000
3156.893240	22.940000
3158.055862	18.730000
3159.216818	22.890000
3160.377603	18.040000
3161.538215	21.280000
3162.697163	17.660000
3163.855940	24.280000
3165.014544	18.260000
3166.172977	30.210000
3167.331239	16.250000
3168.487838	24.030000
3169.642776	15.140000
3170.799033	17.330000
3171.953629	18.150000
3173.108055	20.260000
3174.260821	17.300000
3175.413416	20.390000
3176.565842	17.950000
3177.718098	21.910000
3178.870183	19.330000
3180.019122	17.730000
3181.170869	20.230000
3182.320957	22.300000
3183.469389	18.530000
3184.617651	20.300000
3185.765745	17.360000
3186.913670	24.290000
3188.059939	18.970000
3189.206040	23.720000
3190.350487	19.260000
3191.494766	23.370000
3192.638877	24.290000
3193.784305	23.250000
3194.926595	15.050000
3196.068718	19.560000
3197.210673	18.260000
3198.352461	23.760000
3199.494082	18.290000
3200.632568	21.360000
3201.772371	17.850000
3202.913491	18.530000
3204.051478	22.900000
3205.187815	20.700000
3206.323986	18.160000
3207.461474	18.570000
3208.597314	21.160000
3209.734471	13.050000
3210.867015	21.120000
3212.003841	25.280000
3213.136055	19.770000
3214.269586	22.660000
3215.402953	16.530000
3216.533192	18.940000
3217.666229	19.070000
3218.796140	23.390000
3219.927367	20.320000
3221.055470	19.510000
3222.186369	23.450000
3223.315624	21.330000
3224.443236	13.970000
3225.567725	16.220000
3226.696490	17.370000
3227.822133	20.320000
3228.947613	20.600000
3230.071452	23.110000
3231.198086	18.390000
3232.320122	14.150000
3233.443474	14.240000
3234.566664	25.910000
3235.689691	13.990000
3236.811080	18.700000
3237.932306	24.760000
3239.051894	18.060000
3240.171321	21.290000
3241.289111	20.650000
3242.409692	16.010000
3243.527160	25.560000
3244.644467	22.740000
3245.761614	18.160000
3246.877124	21.280000
3247.993950	22.510000
3249.107666	14.400000
3250.224171	23.930000
3251.339042	15.760000
3252.450803	25.850000
3253.562406	20.000000
3254.675324	19.120000
3255.788082	19.090000
3256.897734	20.330000
3258.008701	22.910000
3259.119509	20.900000
3260.228685	19.400000
3261.336230	25.320000
3262.445090	23.750000
3263.553792	19.210000
3264.659391	19.410000
3265.766304	17.850000
3266.871588	17.650000
3267.978186	26.290000
3269.081684	18.170000
3270.186496	17.550000
3271.291151	17.940000
3272.392708	18.350000
3273.494108	14.200000
3274.596822	26.430000
3275.699380	21.110000
3276.798841	20.950000
3277.901086	20.910000
3279.000235	16.540000
3280.097760	15.920000
3281.195129	18.550000
3282.295280	16.450000
3283.392339	18.370000
3284.489242	19.370000
3285.585990	20.830000
3286.678179	15.490000
3287.774618	23.630000
3288.869434	22.290000
3289.964096	19.620000
3291.057136	20.140000
3292.150021	21.780000
3293.241286	21.640000
3294.333864	14.920000
3295.424822	19.230000
3296.514160	19.580000
3297.603345	17.490000
3298.693842	22.730000
3299.781256	21.280000
3300.868516	20.210000
3301.957089	18.500000
3303.045509	17.830000
3304.129383	18.050000
3305.217498	21.900000
3306.302531	16.010000
3307.385949	19.430000
3308.470679	12.800000
3309.553793	18.860000
3310.638220	18.980000
3311.719568	21.720000
3312.802228	25.800000
3313.883274	24.930000
3314.964168	18.770000
3316.043450	20.670000
3317.122581	17.560000
3318.203024	20.320000
3319.280392	22.990000
3320.359072	21.120000
3321.436140	16.310000
3322.513059	16.520000
3323.588366	19.380000
3324.663524	19.340000
3325.739993	20.170000
3326.813392	20.410000
3327.886641	15.720000
3328.961202	19.000000
3330.034154	18.780000
3331.105497	18.360000
3332.178151	19.120000
3333.247739	15.950000
3334.318637	19.430000
3335.387928	20.540000
3336.458529	18.720000
3337.527525	19.350000
3338.594914	14.410000
3339.660698	23.290000
3340.730708	17.670000
3341.797655	21.090000
3342.861540	17.680000
3343.928192	19.360000
3344.993241	13.050000
3346.056686	21.370000
3347.119985	13.620000
3348.183137	15.770000
3349.246143	20.170000
3350.309003	16.350000
3351.370261	18.660000
3352.428462	27.570000
3353.490883	17.050000
3354.550249	23.760000
3355.609469	13.000000
3356.669998	16.850000
3357.726019	14.150000
3358.784803	21.740000
3359.839080	16.390000
3360.896121	15.640000
3361.951563	20.030000
3363.008315	26.490000
3364.063468	17.880000
3365.117024	21.720000
3366.168984	16.710000
3367.223705	13.590000
3368.275377	18.080000
3369.326906	23.510000
3370.379743	16.760000
3371.429533	14.800000
3372.480632	20.100000
3373.528684	20.230000
3374.579497	11.490000
3375.627264	19.240000
3376.674889	14.480000
3377.722372	15.920000
3378.768262	14.130000
3379.815460	18.300000
3380.859616	15.430000
3381.906530	15.760000
3382.951852	20.600000
3383.994133	13.910000
3385.036273	18.590000
3386.079722	19.520000
3387.123029	15.940000
3388.164746	16.610000
3389.206323	19.000000
3390.247758	19.530000
3391.287605	19.300000
3392.325863	20.900000
3393.365429	17.590000
3394.404855	15.620000
3395.442693	18.030000
3396.478944	17.850000
3397.515056	17.430000
3398.552475	20.620000
3399.586861	19.310000
3400.622554	20.710000
3401.658108	16.690000
3402.690631	19.740000
3403.725906	20.290000
3404.758152	17.090000
3405.790259	17.780000
3406.820782	21.260000
3407.852612	20.070000
3408.884304	15.440000
3409.912968	16.310000
3410.941495	22.540000
3411.971328	19.620000
3413.001024	23.370000
3414.027694	18.790000
3415.055670	17.020000
3416.080623	14.700000
3417.108325	21.640000
3418.133003	17.150000
3419.158989	20.580000
3420.183394	11.810000
3421.207663	18.450000
3422.230353	11.220000
3423.252907	18.080000
3424.276767	20.910000
3425.297607	14.210000
3426.318311	9.840000
3427.340322	22.860000
3428.359314	14.560000
3429.378170	18.010000
3430.398333	11.480000
3431.415479	18.500000
