-117.841134	1.870000
-115.171534	4.990000
-112.504869	-3.980000
-109.838956	11.090000
-107.175976	5.340000
-104.511565	3.230000
-101.850085	-5.300000
-99.187176	3.940000
-96.529373	1.370000
-93.870141	-0.810000
-91.211657	1.680000
-88.556098	2.870000
-85.899109	-1.040000
-83.247219	-1.630000
-80.593899	0.700000
-77.943498	-0.940000
-75.291669	-3.480000
-72.644930	0.510000
-69.996761	-2.410000
-67.349335	2.940000
-64.704824	-0.590000
-62.058883	1.190000
-59.418024	2.180000
-56.775736	1.260000
-54.136357	-2.540000
-51.495548	5.530000
-48.855480	-0.050000
-46.220485	0.100000
-43.584060	0.070000
-40.950538	4.910000
-38.315588	4.180000
-35.685703	8.380000
-33.052226	0.680000
-30.423811	4.390000
-27.796130	-0.990000
-25.167020	8.920000
-22.542967	0.190000
-19.915325	4.970000
-17.292737	6.010000
-14.670879	14.740000
-12.049752	20.110000
-9.429356	55.430000
-6.811847	169.160000
-4.192910	587.150000
-1.576858	1501.520000
1.038465	1910.280000
3.653060	884.790000
6.264774	90.400000
8.877916	14.870000
11.486024	14.090000
14.097713	-1.660000
16.704373	8.570000
19.312460	6.740000
21.919823	1.180000
24.522161	1.010000
27.128077	6.920000
29.728971	-0.670000
32.331293	0.910000
34.928597	1.860000
37.529478	7.850000
40.125343	0.110000
42.722637	4.840000
45.319211	0.200000
47.910776	4.730000
50.503769	-1.020000
53.093901	0.910000
55.685460	-0.770000
58.274161	2.550000
60.864288	-0.780000
63.449416	2.010000
66.035972	-0.790000
68.621814	4.370000
71.204802	1.840000
73.789216	3.530000
76.366502	1.990000
78.947354	2.730000
81.525357	-0.560000
84.102650	7.950000
86.681369	-1.090000
89.255106	2.650000
91.830271	0.000000
94.402592	8.150000
96.974205	-3.420000
99.542978	4.590000
102.113178	-4.470000
104.680539	-1.070000
107.249327	-1.200000
109.815278	0.320000
112.378394	1.500000
114.945066	9.060000
117.502516	-1.250000
120.065653	10.210000
122.623829	0.640000
125.185560	13.200000
127.742334	13.890000
130.300534	19.230000
132.853782	27.140000
135.406332	36.640000
137.962432	44.390000
140.513584	67.810000
143.064039	75.860000
145.613796	84.640000
148.160734	88.290000
150.706977	99.790000
153.254645	97.210000
155.801617	104.860000
158.343654	97.320000
160.884997	94.900000
163.425647	98.310000
165.967723	99.100000
168.506987	92.930000
171.043442	97.950000
173.579207	95.990000
176.116397	89.820000
178.652896	89.840000
181.186589	91.480000
183.717478	82.280000
186.247679	100.600000
188.779306	87.020000
191.308131	90.980000
193.834157	89.980000
196.359497	87.380000
198.886262	86.660000
201.410231	92.420000
203.933515	88.200000
206.456113	90.360000
208.975919	82.330000
211.495042	97.660000
214.013483	86.090000
216.533347	90.980000
219.046210	90.170000
221.562604	98.070000
224.078316	87.850000
226.589138	96.110000
229.101385	89.210000
231.610849	91.220000
234.119635	91.450000
236.627743	97.120000
239.137275	90.540000
241.641926	99.250000
244.145901	95.580000
246.651300	93.710000
249.151824	91.060000
251.655871	98.110000
254.152948	95.620000
256.653548	98.610000
259.151376	99.260000
261.648531	97.630000
264.145013	96.530000
266.636632	99.270000
269.131771	98.810000
271.624143	101.280000
274.115845	95.150000
276.604784	108.470000
279.095146	103.390000
281.582747	103.710000
284.067588	102.560000
286.555944	101.440000
289.037360	103.520000
291.522290	104.520000
294.002375	98.900000
296.485972	108.390000
298.964726	110.900000
301.444903	109.940000
303.922329	104.310000
306.399091	113.140000
308.875189	105.090000
311.348540	113.680000
313.821228	106.690000
316.293255	126.220000
318.764621	130.340000
321.233242	144.900000
323.701204	137.980000
326.170589	127.320000
328.635151	120.240000
331.103217	117.410000
333.566463	103.030000
336.029051	111.310000
338.490983	107.550000
340.952258	112.440000
343.410798	103.490000
345.870762	114.010000
348.327992	104.140000
350.784568	107.620000
353.240490	108.260000
355.693682	106.150000
358.148297	106.920000
360.598110	105.330000
363.051419	109.110000
365.499929	106.620000
367.947789	111.390000
370.397071	112.440000
372.841559	106.120000
375.287469	108.880000
377.732729	106.300000
380.175271	108.410000
382.617165	104.000000
385.058412	113.280000
387.496943	106.890000
389.936895	101.860000
392.374134	102.280000
394.808662	106.720000
397.246677	105.460000
399.679915	109.530000
402.114574	106.340000
404.544461	103.460000
406.977833	102.730000
409.406435	111.140000
411.834395	101.740000
414.263777	109.560000
416.688393	108.080000
419.114431	105.250000
421.539828	107.680000
423.964585	111.000000
426.384584	104.380000
428.806003	105.400000
431.224727	103.560000
433.644871	106.760000
436.062320	104.640000
438.481189	104.070000
440.897365	95.040000
443.308793	108.010000
445.723698	106.020000
448.135914	106.180000
450.547495	103.940000
452.958442	104.760000
455.366703	100.980000
457.774331	101.310000
460.181327	98.060000
462.587692	99.130000
464.991374	96.860000
467.394426	103.080000
469.796848	96.600000
472.198640	99.080000
474.597754	93.240000
476.998288	93.890000
479.398193	96.630000
481.793376	98.350000
484.192025	94.960000
486.585953	95.190000
488.979256	100.620000
491.371934	100.200000
493.763986	90.300000
496.157456	91.660000
498.546214	91.530000
500.932306	88.190000
503.319818	83.990000
505.706707	100.330000
508.090932	101.580000
510.476575	121.400000
512.859557	147.720000
515.239878	187.200000
517.621618	216.550000
520.000699	226.010000
522.381198	208.770000
524.759041	177.750000
527.134227	152.500000
529.508797	137.780000
531.884784	125.010000
534.258119	111.640000
536.632871	99.130000
539.002937	96.230000
541.372389	90.510000
543.743258	90.730000
546.109446	82.430000
548.477053	82.310000
550.842015	75.210000
553.206363	78.920000
555.570098	75.090000
557.935251	73.850000
560.295732	71.770000
562.657631	72.000000
565.016889	66.070000
567.373509	69.750000
569.733575	59.690000
572.086949	64.040000
574.443768	70.750000
576.797952	63.870000
579.151527	62.430000
581.504495	67.300000
583.854830	61.080000
586.206583	59.610000
588.551659	59.530000
590.902198	62.630000
593.246065	57.350000
595.595393	63.770000
597.940072	56.500000
600.282127	59.430000
602.625599	52.220000
604.966448	63.540000
607.306694	52.680000
609.644320	60.470000
611.985381	54.650000
614.321805	62.700000
616.659645	54.560000
618.994868	62.330000
621.327475	56.050000
623.661498	56.980000
625.992907	54.040000
628.323718	56.830000
630.653931	56.730000
632.983547	54.100000
635.308539	51.230000
637.638973	58.070000
639.964786	55.990000
642.287991	55.900000
644.612613	52.760000
646.934629	55.870000
649.256051	51.170000
651.574870	53.290000
653.895106	44.170000
656.214748	53.430000
658.531789	45.990000
660.848238	46.700000
663.162089	45.670000
665.477356	50.130000
667.790026	48.750000
670.104111	51.790000
672.413596	45.650000
674.724497	49.250000
677.032805	38.030000
679.340525	51.090000
681.649659	45.350000
683.954201	45.310000
686.258157	46.840000
688.561527	48.670000
690.866311	42.070000
693.166508	46.680000
695.468121	40.930000
697.769148	43.830000
700.065594	36.390000
702.363455	42.180000
704.660732	38.840000
706.957426	43.030000
709.249544	40.680000
711.545073	42.140000
713.836028	35.940000
716.128398	45.710000
718.418193	42.210000
720.707407	46.830000
722.996042	35.580000
725.282104	43.410000
727.569581	32.320000
729.854486	39.830000
732.138814	39.080000
734.420573	43.130000
736.703746	44.650000
738.986342	44.410000
741.264382	39.580000
743.543837	45.870000
745.822715	39.900000
748.101019	42.110000
750.374773	40.550000
752.649940	41.060000
754.924534	42.210000
757.196569	43.770000
759.470017	42.900000
761.740907	41.850000
764.009241	42.510000
766.278988	47.660000
768.546180	41.890000
770.812803	47.380000
773.078855	45.210000
775.342356	47.550000
777.607270	43.110000
779.871614	47.200000
782.131429	42.810000
784.392656	47.700000
786.653316	49.840000
788.911430	44.980000
791.166999	44.650000
793.425959	48.010000
795.678419	43.530000
797.936247	47.460000
800.189556	43.460000
802.440325	46.410000
804.692506	39.700000
806.942148	52.050000
809.193202	39.140000
811.439746	46.890000
813.687701	42.040000
815.933122	47.930000
818.179954	40.940000
820.426225	47.340000
822.667991	38.450000
824.913141	44.990000
827.151818	37.650000
829.393877	43.820000
831.631438	36.420000
833.870411	42.540000
836.106857	36.740000
838.344714	38.760000
840.580046	37.350000
842.812855	38.760000
845.047074	39.110000
847.278772	38.920000
849.509915	33.970000
851.740503	43.450000
853.970537	36.520000
856.200017	37.620000
858.425015	38.510000
860.653388	38.800000
862.877281	34.650000
865.102586	43.560000
867.323415	34.310000
869.547616	42.910000
871.767344	40.840000
873.988482	41.400000
876.209070	37.530000
878.427149	40.740000
880.646637	37.950000
882.861659	40.000000
885.076133	41.280000
887.290060	36.410000
889.503440	36.450000
891.716272	42.130000
893.928558	31.490000
896.138341	37.540000
898.347579	31.290000
900.556272	39.610000
902.762465	35.020000
904.970069	38.860000
907.175174	37.180000
909.379736	43.130000
911.581803	34.610000
913.785279	43.140000
915.986261	39.910000
918.186701	41.230000
920.388550	39.700000
922.584008	38.440000
924.782825	32.900000
926.977203	40.430000
929.174939	39.770000
931.368239	48.540000
933.562948	43.460000
935.755171	47.070000
937.946855	44.650000
940.138002	55.380000
942.326666	42.140000
944.514794	47.560000
946.700441	51.500000
948.889440	50.590000
951.074016	47.700000
953.258057	63.060000
955.445448	51.630000
957.624535	59.000000
959.806973	53.670000
961.988877	59.390000
964.168306	56.940000
966.345263	58.610000
968.523628	54.540000
970.703400	57.620000
972.876823	53.830000
975.053592	59.960000
977.225954	57.630000
979.399724	58.630000
981.569090	58.730000
983.741800	64.150000
985.912045	60.770000
988.081760	58.350000
990.250948	59.670000
992.415738	57.980000
994.583869	53.860000
996.747605	59.980000
998.912749	57.120000
1001.075433	51.030000
1003.237592	52.580000
1005.397294	57.710000
1007.556471	54.410000
1009.717055	60.350000
1011.875184	57.380000
1014.032790	58.390000
1016.189872	50.470000
1018.346430	56.970000
1020.498609	56.220000
1022.652195	60.570000
1024.805259	55.030000
1026.955874	59.570000
1029.107896	54.690000
1031.255544	51.590000
1033.406524	55.540000
1035.553133	59.950000
1037.699223	54.840000
1039.844795	67.840000
1041.991772	55.770000
1044.132460	61.900000
1046.276478	55.360000
1048.418055	62.000000
1050.559115	61.220000
1052.701581	62.740000
1054.837766	58.360000
1056.977278	67.860000
1059.112435	60.930000
1061.250916	67.930000
1063.385043	59.660000
1065.518657	64.500000
1067.653675	58.430000
1069.784345	64.010000
1071.916419	63.720000
1074.046064	60.980000
1076.175197	56.220000
1078.303818	58.970000
1080.431928	58.390000
1082.557612	57.490000
1084.682786	52.810000
1086.809364	58.770000
1088.931604	54.280000
1091.055249	53.290000
1093.174559	49.500000
1095.299098	47.620000
1097.417393	47.360000
1099.537092	50.850000
1101.654372	47.640000
1103.771145	53.010000
1105.887413	48.330000
1108.001264	50.020000
1110.116520	46.560000
1112.227452	49.860000
1114.341697	45.240000
1116.451621	44.460000
1118.562949	42.840000
1120.673772	49.840000
1122.780279	48.150000
1124.890095	45.580000
1126.995598	38.450000
1129.102503	47.900000
1131.203193	41.540000
1133.309095	43.470000
1135.410688	42.510000
1137.513684	45.470000
1139.616179	38.410000
1141.712467	53.330000
1143.813962	42.210000
1145.911155	39.740000
1148.007850	40.720000
1150.104046	42.940000
1152.199744	41.880000
1154.294945	41.790000
1156.387749	35.350000
1158.481955	41.180000
1160.569970	45.740000
1162.663184	39.890000
1164.750209	38.380000
1166.840533	43.790000
1168.926569	42.870000
1171.015904	42.810000
1173.099057	42.450000
1175.183612	47.500000
1177.269569	44.560000
1179.351244	43.350000
1181.434320	34.610000
1183.515011	37.100000
1185.595211	37.180000
1187.674919	45.970000
1189.754136	34.760000
1191.830971	38.320000
1193.905424	31.390000
1195.983170	43.960000
1198.056646	41.920000
1200.131522	37.560000
1202.202131	36.610000
1204.274141	38.450000
1206.343775	39.130000
1208.414810	36.490000
1210.485358	39.680000
1212.551644	34.320000
1214.619331	33.160000
1216.684646	32.420000
1218.751361	34.080000
1220.813820	37.920000
1222.879564	29.430000
1224.941054	36.090000
1227.003945	34.090000
1229.064468	39.610000
1231.124507	32.610000
1233.184063	36.570000
1235.241255	30.920000
1237.297965	34.090000
1239.352311	36.440000
1241.409939	33.150000
1243.465203	26.060000
1245.516228	36.700000
1247.568652	28.750000
1249.620596	30.800000
1251.670182	35.390000
1253.719289	35.930000
1255.767917	27.790000
1257.816067	36.200000
1259.863739	32.610000
1261.907180	35.470000
1263.953897	29.100000
1265.998260	34.110000
1268.042147	30.730000
1270.083682	31.900000
1272.122868	30.110000
1274.165327	33.130000
1276.203563	30.200000
1278.243198	34.250000
1280.282358	27.630000
1282.317299	30.290000
1284.353639	35.690000
1286.387635	35.980000
1288.423028	27.770000
1290.454209	30.870000
1292.486787	29.980000
1294.518894	37.610000
1296.548660	25.930000
1298.579823	32.130000
1300.606780	26.070000
1302.635134	30.680000
1304.659283	32.120000
1306.686698	31.770000
1308.709910	29.800000
1310.734520	31.870000
1312.756796	31.120000
1314.780468	34.230000
1316.801808	27.760000
1318.822681	28.830000
1320.843086	24.420000
1322.859298	32.670000
1324.876907	30.320000
1326.892188	31.500000
1328.910728	25.980000
1330.925079	29.140000
1332.937103	27.720000
1334.952386	31.750000
1336.963483	31.340000
1338.975977	39.770000
1340.984288	32.020000
1342.995854	39.920000
1345.001382	30.340000
1347.010165	32.980000
1349.014770	28.970000
1351.022629	32.610000
1353.030026	29.380000
1355.031392	35.020000
1357.034154	28.130000
1359.036457	37.500000
1361.038300	30.430000
1363.039683	36.360000
1365.038753	29.530000
1367.037364	33.440000
1369.035516	29.610000
1371.033211	28.010000
1373.026743	31.170000
1375.021670	32.370000
1377.016141	24.020000
1379.010155	32.300000
1381.001862	30.800000
1382.993113	31.040000
1384.982059	32.650000
1386.972401	30.550000
1388.962287	31.830000
1390.949869	31.150000
1392.936998	32.290000
1394.921825	32.960000
1396.908047	29.480000
1398.891968	33.400000
1400.875437	30.680000
1402.858454	28.630000
1404.839173	30.850000
1406.821286	27.780000
1408.801103	28.690000
1410.780468	34.520000
1412.755695	26.390000
1414.734160	31.490000
1416.710332	32.110000
1418.686054	27.650000
1420.661328	29.090000
1422.634310	33.680000
1424.606844	25.510000
1426.578930	34.790000
1428.550569	27.590000
1430.518079	27.580000
1432.490663	29.730000
1434.455441	32.770000
1436.425292	22.980000
1438.391019	26.820000
1440.358138	31.290000
1442.322974	30.600000
1444.283690	27.120000
1446.249474	28.980000
1448.209303	29.250000
1450.170526	27.910000
1452.133140	21.960000
1454.091640	30.440000
1456.049698	29.670000
1458.007314	25.470000
1459.964487	24.110000
1461.919385	28.390000
1463.875676	29.020000
1465.829692	32.660000
1467.783267	30.440000
1469.734570	31.150000
1471.687265	34.110000
1473.637689	34.800000
1475.587674	28.080000
1477.537220	34.210000
1479.484497	26.580000
1481.429506	32.040000
1483.375908	27.360000
1485.321872	33.330000
1487.267399	25.560000
1489.210660	32.820000
1491.153486	29.230000
1493.094047	31.720000
1495.036001	26.760000
1496.975692	30.420000
1498.914948	23.260000
1500.853770	35.700000
1502.790332	27.170000
1504.728285	30.450000
1506.663979	29.290000
1508.599240	31.920000
1510.532244	26.830000
1512.464817	29.920000
1514.396956	26.950000
1516.328664	34.290000
1518.258119	31.690000
1520.188964	30.770000
1522.119377	28.720000
1524.045718	33.290000
1525.973449	30.410000
1527.898931	28.860000
1529.823983	25.840000
1531.748606	30.250000
1533.672799	29.020000
1535.594746	30.930000
1537.518083	33.020000
1539.439173	33.120000
1541.358019	27.940000
1543.278255	31.330000
1545.196248	19.570000
1547.113813	31.980000
1549.029138	33.330000
1550.945852	36.760000
1552.858511	34.200000
1554.774373	37.560000
1556.687997	35.930000
1558.599382	36.410000
1560.512157	31.130000
1562.420882	34.850000
1564.330996	30.690000
1566.240687	37.430000
1568.149955	35.840000
1570.056989	36.290000
1571.961790	30.010000
1573.867979	32.030000
1575.771938	29.520000
1577.675475	39.100000
1579.578592	35.310000
1581.479479	40.550000
1583.381755	38.370000
1585.281803	44.120000
1587.183238	41.470000
1589.080640	41.890000
1590.977623	51.360000
1592.874188	48.040000
1594.772140	44.500000
1596.664258	35.340000
1598.559570	34.870000
1600.454464	38.280000
1602.347136	30.470000
1604.239391	34.090000
1606.129427	36.400000
1608.019047	36.890000
1609.908252	32.490000
1611.797041	31.090000
1613.683614	30.020000
1615.571574	36.140000
1617.455517	30.090000
1619.340847	32.300000
1621.225764	27.520000
1623.108467	34.720000
1624.992557	29.190000
1626.872635	31.960000
1628.754101	31.300000
1630.633356	34.070000
1632.513997	28.300000
1634.388834	28.960000
1636.268652	25.910000
1638.144466	33.530000
1640.019869	29.850000
1641.896658	35.430000
1643.767651	22.570000
1645.641825	29.050000
1647.512000	30.360000
1649.385356	33.170000
1651.256509	33.120000
1653.125461	32.060000
1654.995797	34.850000
1656.862141	30.620000
1658.729870	28.580000
1660.595400	26.550000
1662.462316	25.840000
1664.325242	31.880000
1666.189555	24.250000
1668.051671	30.630000
1669.913382	28.280000
1671.776479	30.250000
1673.637380	25.940000
1675.496089	31.710000
1677.354394	28.440000
1679.214083	33.260000
1681.068006	28.630000
1682.925102	29.990000
1684.781794	25.260000
1686.634511	29.250000
1688.490399	26.390000
1690.342313	36.290000
1692.193826	23.550000
1694.044938	36.110000
1695.895649	28.180000
1697.745960	31.030000
1699.594087	26.340000
1701.443598	36.450000
1703.287359	26.700000
1705.136071	30.230000
1706.979036	30.620000
1708.825168	36.080000
1710.667337	30.260000
1712.512672	29.550000
1714.352266	26.650000
1716.193244	28.680000
1718.035605	27.830000
1719.874010	36.430000
1721.713798	29.040000
1723.551410	33.500000
1725.388628	23.660000
1727.223672	33.670000
1729.060099	22.320000
1730.894353	28.640000
1732.728214	29.340000
1734.561680	28.270000
1736.391200	23.510000
1738.223880	27.830000
1740.052615	28.030000
1741.884507	29.680000
1743.712457	33.370000
1745.540015	31.080000
1747.367182	29.710000
1749.193957	33.630000
1751.020340	25.450000
1752.842787	29.140000
1754.668389	23.530000
1756.490056	29.790000
1758.313104	24.020000
1760.133992	28.270000
1761.954491	28.660000
1763.776370	28.640000
1765.592550	24.990000
1767.411883	30.340000
1769.227287	26.000000
1771.045843	34.590000
1772.860473	29.550000
1774.674716	29.040000
1776.488573	28.150000
1778.302043	27.340000
1780.113360	27.440000
1781.926057	31.000000
1783.738369	25.660000
1785.546762	32.060000
1787.356537	27.450000
1789.162397	32.070000
1790.971402	26.390000
1792.776494	26.360000
1794.582967	26.800000
1796.389056	33.570000
1798.191234	20.480000
1799.996557	29.790000
1801.797971	27.270000
1803.600765	24.050000
1805.399653	28.780000
1807.199922	31.210000
1808.999809	26.500000
1810.797554	28.910000
1812.594919	27.150000
1814.391903	32.810000
1816.188508	31.380000
1817.982973	34.860000
1819.778817	26.720000
1821.569006	37.140000
1823.364092	30.600000
1825.153525	33.830000
1826.946096	31.910000
1828.736531	29.000000
1830.524832	24.050000
1832.316267	32.460000
1834.102058	28.330000
1835.889228	31.450000
1837.674266	25.340000
1839.462438	32.040000
1841.246724	29.480000
1843.028880	26.240000
1844.812416	25.450000
1846.593823	33.510000
1848.376609	30.390000
1850.155514	37.300000
1851.935798	27.940000
1853.713957	32.340000
1855.493494	24.650000
1857.270905	32.760000
1859.046194	29.650000
1860.822860	34.910000
1862.597404	28.180000
1864.373325	35.140000
1866.143627	24.250000
1867.917056	32.250000
1869.688365	34.980000
1871.459303	32.200000
1873.231619	29.210000
1874.998321	35.630000
1876.768148	28.320000
1878.534112	35.120000
1880.303200	25.390000
1882.068426	37.050000
1883.833284	27.910000
1885.599519	31.380000
1887.361895	25.870000
1889.123903	35.840000
1890.885545	24.170000
1892.646819	30.100000
1894.407727	26.990000
1896.168268	34.710000
1897.926699	27.830000
1899.684764	29.930000
1901.440722	35.220000
1903.198056	28.520000
1904.955025	25.400000
1906.709887	29.960000
1908.462645	29.260000
1910.215038	32.900000
1911.968808	26.480000
1913.720474	25.260000
1915.470038	29.280000
1917.220977	31.620000
1918.971553	29.840000
1920.718291	31.340000
1922.466404	27.270000
1924.212419	29.960000
1925.959808	28.200000
1927.705100	31.120000
1929.448294	22.550000
1931.192863	27.460000
1932.935336	33.070000
1934.677450	25.350000
1936.419203	33.210000
1938.160596	29.870000
1939.899896	28.750000
1941.638837	36.560000
1943.377419	29.670000
1945.113910	32.530000
1946.850043	32.920000
1948.587550	33.310000
1950.321235	27.820000
1952.056295	33.230000
1953.789266	29.980000
1955.521881	34.070000
1957.254140	29.340000
1958.986042	34.630000
1960.715858	28.890000
1962.443589	29.290000
1964.172695	32.740000
1965.901445	31.960000
1967.628113	30.230000
1969.354426	31.350000
1971.082112	29.850000
1972.804262	37.130000
1974.529513	29.650000
1976.250957	34.190000
1977.975501	22.580000
1979.697966	35.120000
1981.416628	30.700000
1983.138388	29.850000
1984.856346	28.540000
1986.575677	33.110000
1988.291209	29.350000
1990.011561	30.820000
1991.728115	29.310000
1993.440872	29.060000
1995.156725	27.790000
1996.870506	33.680000
1998.583937	29.900000
2000.295297	30.800000
2002.008029	26.370000
2003.716971	30.120000
2005.429005	25.840000
2007.135530	33.780000
2008.845148	32.370000
2010.552698	33.490000
2012.259901	26.420000
2013.965038	32.430000
2015.669829	28.310000
2017.375991	34.040000
2019.078371	31.010000
2020.782122	29.560000
2022.483811	26.080000
2024.185154	29.320000
2025.886153	25.680000
2027.585090	28.730000
2029.285399	30.420000
2030.981932	30.180000
2032.679837	30.330000
2034.375684	32.500000
2036.074616	28.420000
2037.768062	32.680000
2039.462879	29.050000
2041.157354	30.090000
2042.848060	27.680000
2044.541850	33.580000
2046.231873	28.670000
2047.923267	30.440000
2049.612608	25.940000
2051.303319	32.550000
2052.990267	23.560000
2054.676876	35.490000
2056.364854	28.140000
2058.049073	30.960000
2059.734663	22.340000
2061.419912	28.600000
2063.103114	27.200000
2064.787686	37.080000
2066.466794	35.120000
2068.150689	30.150000
2069.829122	30.100000
2071.510633	29.770000
2073.188392	27.080000
2074.865815	28.860000
2076.544607	26.570000
2078.221357	31.960000
2079.896064	32.320000
2081.572142	29.080000
2083.246178	28.680000
2084.919880	28.150000
2086.593246	25.560000
2088.264573	30.630000
2089.935566	23.280000
2091.606225	30.260000
2093.276550	26.410000
2094.946541	34.170000
2096.614496	29.050000
2098.282117	29.990000
2099.947705	26.860000
2101.614661	32.970000
2103.279584	27.940000
2104.944175	35.760000
2106.606734	25.660000
2108.270661	33.240000
2109.932557	24.790000
2111.594123	32.950000
2113.255357	27.900000
2114.914563	30.730000
2116.573438	31.340000
2118.231984	35.680000
2119.890199	29.320000
2121.544692	39.560000
2123.202249	23.040000
2124.859476	35.680000
2126.512983	26.110000
2128.167857	35.210000
2129.819012	32.880000
2131.473230	33.040000
2133.123730	30.190000
2134.775598	38.250000
2136.422057	27.010000
2138.073271	30.450000
2139.720771	24.430000
2141.369638	30.010000
2143.016486	34.210000
2144.663009	29.410000
2146.309206	22.270000
2147.951695	32.060000
2149.597241	29.760000
2151.239082	32.290000
2152.883979	28.350000
2154.525170	30.690000
2156.166038	26.550000
2157.806583	33.370000
2159.445115	26.880000
2161.085013	38.630000
2162.721211	28.510000
2164.358775	36.100000
2165.996017	30.160000
2167.631249	33.420000
2169.266159	26.580000
2170.900748	28.140000
2172.535016	28.650000
2174.165590	26.570000
2175.799216	25.120000
2177.429150	34.070000
2179.060449	31.560000
2180.689743	34.790000
2182.318718	25.600000
2183.947373	37.100000
2185.575709	25.830000
2187.202043	29.470000
2188.828057	23.890000
2190.452071	31.200000
2192.077450	24.700000
2193.700828	31.330000
2195.325571	28.510000
2196.946633	28.950000
2198.567378	28.700000
2200.189487	38.210000
2201.809599	27.730000
2203.427715	29.960000
2205.045515	31.440000
2206.663000	35.770000
2208.280169	29.170000
2209.897023	28.700000
2211.513561	29.780000
2213.128107	26.110000
2214.740660	28.090000
2216.354577	31.940000
2217.966503	26.290000
2219.579792	33.450000
2221.191091	27.780000
2222.800400	26.620000
2224.411073	23.710000
2226.019757	32.720000
2227.628128	26.210000
2229.234513	32.530000
2230.842260	36.710000
2232.448022	32.300000
2234.053472	26.650000
2235.656937	28.030000
2237.261765	27.440000
2238.864609	33.970000
2240.465470	31.590000
2242.067694	29.650000
2243.667936	26.690000
2245.269540	31.350000
2246.867491	27.770000
2248.466805	25.310000
2250.064139	28.770000
2251.661165	33.810000
2253.259553	24.620000
2254.854292	35.570000
2256.447054	27.820000
2258.041179	29.640000
2259.636665	31.840000
2261.228506	31.950000
2262.820041	26.170000
2264.412938	33.850000
2266.000525	29.170000
2267.592808	36.560000
2269.179785	33.160000
2270.769789	29.130000
2272.354489	29.940000
2273.943883	37.490000
2275.527974	22.620000
2277.113427	31.840000
2278.696911	25.280000
2280.283420	32.870000
2281.866296	25.300000
2283.448869	31.310000
2285.031138	22.860000
2286.609777	30.410000
2288.191441	31.370000
2289.769476	32.090000
2291.350534	28.830000
2292.927965	27.250000
2294.503433	25.670000
2296.081923	30.640000
2297.656789	29.010000
2299.231354	29.420000
2300.805618	32.240000
2302.379583	29.460000
2303.953246	29.970000
2305.526610	35.590000
2307.096355	19.540000
2308.665801	32.600000
2310.238265	27.730000
2311.805455	31.890000
2313.375663	27.670000
2314.942256	31.880000
2316.510209	23.440000
2318.076206	33.760000
2319.641906	31.090000
2321.207308	30.180000
2322.770757	28.840000
2324.335565	39.320000
2325.896765	40.260000
2327.460979	47.990000
2329.019931	46.540000
2330.581897	43.380000
2332.141913	34.660000
2333.701633	29.580000
2335.259405	28.720000
2336.816881	28.300000
2338.374063	24.350000
2339.929297	35.680000
2341.484238	26.560000
2343.038884	33.920000
2344.593237	32.840000
2346.147296	26.160000
2347.701062	25.890000
2349.252883	31.240000
2350.802762	28.650000
2352.355648	30.020000
2353.903291	24.570000
2355.453943	34.930000
2357.001003	30.040000
2358.549421	25.520000
2360.097548	29.460000
2361.642086	30.240000
2363.187982	21.200000
2364.731940	27.390000
2366.277254	23.750000
2367.818985	32.650000
2369.362072	27.500000
2370.903223	31.470000
2372.444085	33.230000
2373.984658	34.530000
2375.524942	24.800000
2377.064937	31.160000
2378.601354	34.880000
2380.140772	24.450000
2381.676612	28.170000
2383.213810	35.590000
2384.747432	29.170000
2386.284054	32.340000
2387.818746	30.550000
2389.351508	31.610000
2390.883983	28.740000
2392.414530	28.900000
2393.948075	28.610000
2395.476409	27.890000
2397.006099	33.420000
2398.535504	30.220000
2400.064624	28.270000
2401.593458	31.100000
2403.117088	28.750000
2404.645353	33.550000
2406.168416	31.280000
2407.696112	31.360000
2409.216969	28.190000
2410.742458	33.080000
2412.264388	31.350000
2413.787672	32.360000
2415.309036	32.830000
2416.828480	37.100000
2418.349279	26.900000
2419.868159	29.700000
2421.386758	27.220000
2422.903439	32.570000
2424.421474	29.640000
2425.939228	30.800000
2427.453430	29.240000
2428.967353	23.380000
2430.480995	29.200000
2431.995992	29.740000
2433.507440	27.200000
2435.020242	28.750000
2436.531132	20.830000
2438.041743	29.750000
2439.550442	32.980000
2441.062127	28.760000
2442.570269	24.900000
2444.078133	32.190000
2445.585718	27.230000
2447.089764	33.240000
2448.596794	24.290000
2450.101916	35.080000
2451.606761	29.240000
2453.109699	30.360000
2454.612361	24.780000
2456.114746	36.860000
2457.615226	26.180000
2459.117059	28.930000
2460.616987	23.230000
2462.116640	27.050000
2463.616018	32.060000
2465.113493	30.110000
2466.609066	25.800000
2468.107619	35.840000
2469.602644	27.570000
2471.099021	34.880000
2472.591872	25.890000
2474.086076	31.000000
2475.580006	27.110000
2477.070412	36.600000
2478.563796	30.190000
2480.055282	29.450000
2481.544871	27.640000
2483.034188	34.140000
2484.521609	30.000000
2486.012006	30.660000
2487.498885	31.140000
2488.987115	28.750000
2490.471828	30.840000
2491.956272	31.100000
2493.442066	24.390000
2494.925969	30.560000
2496.411222	25.370000
2497.891342	30.970000
2499.374435	24.410000
2500.855637	26.030000
2502.336570	29.260000
2503.815614	30.730000
2505.294389	25.430000
2506.772896	29.260000
2508.251135	28.370000
2509.729105	32.500000
2511.203570	33.030000
2512.681005	32.870000
2514.154936	26.780000
2515.630217	28.220000
2517.105231	28.010000
2518.576744	30.270000
2520.049608	29.660000
2521.520589	27.460000
2522.992920	27.980000
2524.460137	26.410000
2525.930321	27.940000
2527.398624	36.070000
2528.866662	23.150000
2530.334435	29.550000
2531.801943	26.150000
2533.269186	28.370000
2534.732937	25.890000
2536.198038	29.290000
2537.661262	25.880000
2539.125835	31.050000
2540.586920	30.180000
2542.049354	29.900000
2543.511525	23.210000
2544.970210	30.690000
2546.433466	30.860000
2547.891626	29.620000
2549.351136	25.600000
2550.805551	29.480000
2552.264537	25.460000
2553.721651	31.100000
2555.176893	30.110000
2556.631875	27.640000
2558.084988	27.160000
2559.539448	30.520000
2560.992040	28.000000
2562.444372	28.000000
2563.894837	25.480000
2565.348257	29.330000
2566.796595	30.060000
2568.247888	31.570000
2569.697316	29.450000
2571.143271	30.950000
2572.592181	24.290000
2574.037621	32.150000
2575.484408	26.640000
2576.929332	30.520000
2578.373999	29.540000
2579.820013	25.020000
2581.262561	27.030000
2582.706456	33.530000
2584.146885	24.000000
2585.588663	30.210000
2587.028581	25.290000
2588.469846	26.990000
2589.907649	26.000000
2591.348402	32.140000
2592.784093	25.320000
2594.222732	28.430000
2595.659515	26.040000
2597.094442	27.640000
2598.532316	26.160000
2599.965133	31.980000
2601.399297	28.600000
2602.831607	32.760000
2604.265263	26.220000
2605.697066	27.830000
2607.128615	28.670000
2608.559912	30.840000
2609.989356	31.350000
2611.418548	32.550000
2612.845890	23.750000
2614.274577	29.400000
2615.703013	21.880000
2617.128001	27.050000
2618.554336	30.280000
2619.978822	29.580000
2621.404654	29.550000
2622.827042	30.300000
2624.250776	23.910000
2625.672663	31.620000
2627.094300	27.720000
2628.514093	37.590000
2629.935231	25.630000
2631.356119	34.170000
2632.773568	21.440000
2634.193958	35.630000
2635.610910	32.600000
2637.027613	33.480000
2638.444068	33.030000
2639.860275	32.550000
2641.276234	30.020000
2642.690352	33.290000
2644.104222	29.170000
2645.516253	35.280000
2646.929629	29.330000
2648.339575	30.950000
2649.752457	32.920000
2651.161910	32.690000
2652.571117	29.480000
2653.978488	41.330000
2655.388793	26.690000
2656.797263	28.060000
2658.203897	35.420000
2659.610286	35.270000
2661.014841	33.710000
2662.420740	41.800000
2663.824806	33.270000
2665.228627	36.790000
2666.632204	40.010000
2668.033950	41.210000
2669.437039	40.740000
2670.836710	44.440000
2672.237725	40.400000
2673.635324	46.230000
2675.035852	38.340000
2676.432966	42.530000
2677.831423	42.860000
2679.228053	51.190000
2680.624440	41.540000
2682.020585	45.510000
2683.414904	42.070000
2684.810566	49.440000
2686.202819	43.900000
2687.596414	47.890000
2688.988185	42.010000
2690.381299	48.650000
2691.772589	48.210000
2693.162056	44.870000
2694.551283	41.360000
2695.940271	45.190000
2697.330600	37.150000
2698.715946	45.090000
2700.104215	38.150000
2701.490664	38.660000
2702.876874	32.310000
2704.262845	40.000000
2705.645418	34.800000
2707.029333	30.580000
2708.413010	36.010000
2709.796448	36.520000
2711.176491	31.750000
2712.557876	35.760000
2713.937446	30.200000
2715.318356	33.750000
2716.697452	34.030000
2718.074734	33.590000
2719.453357	28.610000
2720.830166	34.840000
2722.206740	26.800000
2723.583078	29.470000
2724.957604	28.630000
2726.333471	28.290000
2727.705952	23.740000
2729.081348	31.200000
2730.451784	24.220000
2731.823561	36.820000
2733.195103	28.380000
2734.564837	33.740000
2735.935911	26.800000
2737.305178	31.600000
2738.674211	24.370000
2740.041438	27.150000
2741.408431	24.950000
2742.775192	26.800000
2744.141720	24.820000
2745.506444	30.150000
2746.870935	23.810000
2748.235195	34.620000
2749.599222	24.980000
2750.963018	22.380000
2752.323440	26.270000
2753.686772	29.830000
2755.045162	24.130000
2756.406462	26.500000
2757.764392	30.690000
2759.125230	27.220000
2760.484268	24.710000
2761.839939	33.410000
2763.198517	26.400000
2764.553728	25.850000
2765.908710	29.020000
2767.261895	26.950000
2768.617987	25.310000
2769.970715	27.200000
2771.323215	26.930000
2772.675486	30.400000
2774.029095	24.690000
2775.379344	25.530000
2776.727798	24.190000
2778.079157	24.410000
2779.427158	24.850000
2780.776496	25.380000
2782.124042	27.230000
2783.471362	27.720000
2784.818455	27.290000
2786.163756	28.200000
2787.508832	25.860000
2788.853682	35.360000
2790.198306	22.870000
2791.539578	24.310000
2792.882187	24.700000
2794.224572	28.350000
2795.566731	28.630000
2796.905541	29.900000
2798.247251	24.840000
2799.585612	22.790000
2800.925311	23.500000
2802.263225	34.340000
2803.599353	21.110000
2804.935259	29.290000
2806.272502	24.910000
2807.607961	30.790000
2808.943197	28.320000
2810.276650	27.160000
2811.611440	25.280000
2812.942890	29.460000
2814.277235	24.230000
2815.606682	27.680000
2816.937465	28.020000
2818.268028	28.980000
2819.596811	25.550000
2820.926930	31.100000
2822.255271	26.560000
2823.583391	23.450000
2824.909733	25.960000
2826.237412	24.510000
2827.561757	26.110000
2828.887439	31.670000
2830.211345	20.540000
2831.535031	27.690000
2832.860053	22.220000
2834.181746	28.560000
2835.503220	20.590000
2836.824475	24.370000
2838.145511	21.370000
2839.464774	25.880000
2840.785373	29.350000
2842.104200	31.650000
2843.422810	23.330000
2844.739648	29.410000
2846.056269	24.980000
2847.372673	28.640000
2848.687307	27.410000
2850.003277	27.690000
2851.315926	22.160000
2852.629910	28.370000
2853.943678	25.700000
2855.257229	29.600000
2856.569014	21.020000
2857.879032	30.580000
2859.190385	21.150000
2860.498423	27.570000
2861.807795	29.630000
2863.116952	26.890000
2864.425895	20.460000
2865.733073	29.300000
2867.038489	26.390000
2868.345238	22.240000
2869.650226	25.200000
2870.954999	26.010000
2872.258012	19.350000
2873.563905	35.110000
2874.864944	24.470000
2876.167317	25.800000
2877.467930	21.420000
2878.769877	29.820000
2880.071610	19.480000
2881.370040	29.570000
2882.669803	22.790000
2883.967809	27.030000
2885.265603	23.130000
2886.561641	29.730000
2887.859012	24.370000
2889.154627	23.060000
2890.450031	23.590000
2891.745224	28.270000
2893.037120	19.990000
2894.331892	28.340000
2895.623367	22.380000
2896.916175	29.210000
2898.208773	15.020000
2899.498077	27.670000
2900.788713	17.670000
2902.077598	26.520000
2903.367815	24.540000
2904.654741	21.600000
2905.942999	21.910000
2907.229508	28.260000
2908.515808	21.480000
2909.801900	26.460000
2911.086245	20.830000
2912.373460	25.740000
2913.655849	22.820000
2914.939570	23.470000
2916.221545	24.800000
2917.503312	26.420000
2918.783334	22.900000
2920.066227	27.010000
2921.347374	26.570000
2922.625239	20.660000
2923.905973	20.770000
2925.183426	23.190000
2926.460673	20.240000
2927.736178	24.680000
2929.014551	30.920000
2930.288110	31.110000
2931.564536	23.210000
2932.839221	19.060000
2934.112165	23.690000
2935.386441	24.310000
2936.658977	23.720000
2937.931308	25.880000
2939.200367	26.370000
2940.472291	26.410000
2941.742477	24.680000
2943.012459	24.150000
2944.282238	23.680000
2945.550281	26.490000
2946.816587	19.530000
2948.082691	32.540000
2949.350126	24.070000
2950.615825	28.170000
2951.881323	27.260000
2953.146618	27.830000
2954.408648	25.120000
2955.672008	27.440000
2956.935167	18.990000
2958.196594	27.080000
2959.459350	26.650000
2960.720374	23.350000
2961.979668	24.180000
2963.238761	25.670000
2964.497655	23.260000
2965.756348	19.180000
2967.014841	22.820000
2968.271604	27.780000
2969.528169	22.820000
2970.783005	26.650000
2972.039171	24.530000
2973.292082	24.000000
2974.546321	23.840000
2975.800362	27.650000
2977.052677	22.260000
2978.304794	25.970000
2979.555186	21.060000
2980.808433	26.010000
2982.056903	17.430000
2983.308228	29.330000
2984.556303	25.460000
2985.804181	27.130000
2987.051863	22.490000
2988.299347	23.490000
2989.545110	20.940000
2990.790677	21.650000
2992.037571	15.250000
2993.281221	26.430000
2994.526199	24.630000
2995.767933	25.790000
2997.012519	22.280000
2998.255386	29.360000
2999.495012	21.390000
3000.737488	23.530000
3001.976724	25.590000
3003.217288	24.130000
3004.456135	22.680000
3005.694788	28.840000
3006.931725	14.150000
3008.169990	25.900000
3009.406539	18.020000
3010.642895	23.300000
3011.879057	27.250000
3013.113505	26.030000
3014.347760	28.320000
3015.581823	25.060000
3016.814172	24.330000
3018.044810	28.210000
3019.278294	20.920000
3020.510067	27.440000
3021.740129	25.040000
3022.969998	24.030000
3024.198158	25.090000
3025.427645	27.540000
3026.655422	23.160000
3027.883008	26.940000
3029.111920	20.910000
3030.336090	22.090000
3031.563104	24.370000
3032.786893	21.600000
3034.012009	24.700000
3035.235418	19.030000
3036.458637	18.760000
3037.680151	21.020000
3038.904506	19.790000
3040.124126	19.260000
3041.345072	17.340000
3042.565829	23.300000
3043.784882	20.100000
3045.005260	20.480000
3046.222422	19.380000
3047.440910	26.960000
3048.657695	24.850000
3049.874293	23.140000
3051.090702	28.190000
3052.303898	24.170000
3053.519933	24.490000
3054.732755	27.860000
3055.948413	24.290000
3057.159350	25.600000
3058.371611	22.430000
3059.583685	25.220000
3060.795573	27.750000
3062.005764	22.350000
3063.215768	23.500000
3064.425586	20.450000
3065.633708	20.880000
3066.841645	28.490000
3068.047886	22.560000
3069.255452	27.980000
3070.461323	29.755000
3071.667009	31.530000
3072.872511	21.340000
3074.076319	27.030000
3075.281451	21.810000
3076.484890	27.070000
3077.686638	18.610000
3078.888201	22.090000
3080.089581	20.850000
3081.290777	25.860000
3082.490283	23.740000
3083.689606	24.640000
3084.890252	24.490000
3086.089208	24.960000
3087.284970	18.450000
3088.483560	24.970000
3089.678958	18.560000
3090.875678	20.610000
3092.069206	17.890000
3093.265562	29.460000
3094.460231	18.810000
3095.651710	20.570000
3096.847521	18.250000
3098.038637	27.000000
3099.231077	25.800000
3100.420329	26.700000
3101.612406	20.900000
3102.802800	24.100000
3103.990008	17.600000
3105.178538	23.330000
3106.368391	15.740000
3107.555060	22.520000
3108.741548	17.210000
3109.927858	27.600000
3111.115489	17.770000
3112.299938	22.910000
3113.482708	18.090000
3114.668300	23.850000
3115.852213	17.920000
3117.034447	20.450000
3118.216502	20.680000
3119.398379	19.470000
3120.580078	17.700000
3121.760100	23.270000
3122.938445	18.530000
3124.119610	21.680000
3125.297600	19.110000
3126.475413	23.360000
3127.653049	18.940000
3128.829010	27.270000
3130.004795	18.120000
3131.181901	21.260000
3132.357332	15.200000
3133.531090	21.150000
3134.703175	16.680000
3135.876582	25.850000
3137.049812	19.370000
3138.221371	22.050000
3139.394250	22.090000
3140.563962	27.030000
3141.734995	28.210000
3142.904358	25.390000
3144.072050	18.370000
3145.242558	26.780000
3146.408408	21.810000
3147.578566	26.600000
3148.744068	21.740000
3149.909395	21.910000
3151.074549	25.080000
3152.239530	21.840000
3153.405830	26.080000
3154.567478	19.850000
3155.730445	22.140000
3156.893240	22.390000
3158.055862	20.210000
3159.216818	24.400000
3160.377603	16.980000
3161.538215	30.220000
3162.697163	21.180000
3163.855940	18.860000
3165.014544	15.840000
3166.172977	27.730000
3167.331239	16.880000
3168.487838	25.950000
3169.642776	18.320000
3170.799033	18.980000
3171.953629	17.700000
3173.108055	19.020000
3174.260821	15.880000
3175.413416	21.190000
3176.565842	15.200000
3177.718098	23.030000
3178.870183	15.790000
3180.019122	15.680000
3181.170869	18.020000
3182.320957	21.460000
3183.469389	20.100000
3184.617651	21.710000
3185.765745	19.150000
3186.913670	24.660000
3188.059939	15.240000
3189.206040	15.930000
3190.350487	20.220000
3191.494766	22.220000
3192.638877	22.980000
3193.784305	24.420000
3194.926595	19.450000
3196.068718	19.670000
3197.210673	19.830000
3198.352461	25.330000
3199.494082	23.360000
3200.632568	20.380000
3201.772371	18.660000
3202.913491	22.280000
3204.051478	19.180000
3205.187815	21.050000
3206.323986	18.130000
3207.461474	18.200000
3208.597314	18.800000
3209.734471	23.500000
3210.867015	21.850000
3212.003841	25.350000
3213.136055	19.750000
3214.269586	23.630000
3215.402953	12.700000
3216.533192	22.010000
3217.666229	20.450000
3218.796140	25.850000
3219.927367	22.150000
3221.055470	21.500000
3222.186369	19.630000
3223.315624	25.050000
3224.443236	20.190000
3225.567725	21.320000
3226.696490	20.210000
3227.822133	24.230000
3228.947613	19.120000
3230.071452	24.780000
3231.198086	17.010000
3232.320122	21.230000
3233.443474	17.970000
3234.566664	25.780000
3235.689691	20.730000
3236.811080	22.620000
3237.932306	25.730000
3239.051894	18.570000
3240.171321	16.430000
3241.289111	20.010000
3242.409692	19.140000
3243.527160	24.500000
3244.644467	21.480000
3245.761614	22.560000
3246.877124	13.860000
3247.993950	18.950000
3249.107666	16.890000
3250.224171	16.360000
3251.339042	19.640000
3252.450803	21.990000
3253.562406	18.160000
3254.675324	22.780000
3255.788082	21.440000
3256.897734	24.220000
3258.008701	23.710000
3259.119509	19.140000
3260.228685	23.400000
3261.336230	24.140000
3262.445090	21.250000
3263.553792	21.010000
3264.659391	19.090000
3265.766304	19.830000
3266.871588	20.050000
3267.978186	24.880000
3269.081684	25.090000
3270.186496	23.090000
3271.291151	14.560000
3272.392708	20.080000
3273.494108	18.710000
3274.596822	26.170000
3275.699380	21.110000
3276.798841	20.990000
3277.901086	21.040000
3279.000235	18.250000
3280.097760	17.330000
3281.195129	23.190000
3282.295280	13.630000
3283.392339	19.410000
3284.489242	18.260000
3285.585990	23.580000
3286.678179	17.330000
3287.774618	24.640000
3288.869434	22.130000
3289.964096	24.110000
3291.057136	18.160000
3292.150021	18.760000
3293.241286	19.760000
3294.333864	15.650000
3295.424822	17.180000
3296.514160	21.680000
3297.603345	19.020000
3298.693842	23.180000
3299.781256	17.330000
3300.868516	17.670000
3301.957089	18.950000
3303.045509	17.630000
3304.129383	15.620000
3305.217498	23.360000
3306.302531	16.280000
3307.385949	23.070000
3308.470679	12.010000
3309.553793	20.840000
3310.638220	20.240000
3311.719568	22.370000
3312.802228	18.150000
3313.883274	23.630000
3314.964168	16.260000
3316.043450	23.200000
3317.122581	20.350000
3318.203024	21.320000
3319.280392	20.280000
3320.359072	23.310000
3321.436140	17.930000
3322.513059	19.030000
3323.588366	18.450000
3324.663524	20.100000
3325.739993	19.010000
3326.813392	19.250000
3327.886641	12.730000
3328.961202	19.540000
3330.034154	17.690000
3331.105497	20.180000
3332.178151	15.710000
3333.247739	16.430000
3334.318637	19.670000
3335.387928	21.970000
3336.458529	20.090000
3337.527525	19.600000
3338.594914	15.410000
3339.660698	23.280000
3340.730708	19.960000
3341.797655	20.410000
3342.861540	17.280000
3343.928192	19.810000
3344.993241	14.010000
3346.056686	22.440000
3347.119985	13.640000
3348.183137	19.680000
3349.246143	20.180000
3350.309003	21.250000
3351.370261	16.890000
3352.428462	21.560000
3353.490883	13.180000
3354.550249	18.320000
3355.609469	17.410000
3356.669998	18.170000
3357.726019	13.810000
3358.784803	19.910000
3359.839080	18.080000
3360.896121	20.460000
3361.951563	16.380000
3363.008315	23.740000
3364.063468	16.960000
3365.117024	21.350000
3366.168984	19.380000
3367.223705	22.880000
3368.275377	19.060000
3369.326906	21.990000
3370.379743	17.090000
3371.429533	17.380000
3372.480632	21.040000
3373.528684	19.840000
3374.579497	16.010000
3375.627264	15.210000
3376.674889	13.970000
3377.722372	18.540000
3378.768262	14.530000
3379.815460	20.360000
3380.859616	20.530000
3381.906530	19.490000
3382.951852	21.510000
3383.994133	17.520000
3385.036273	13.810000
3386.079722	23.550000
3387.123029	11.200000
3388.164746	21.360000
3389.206323	18.800000
3390.247758	21.750000
3391.287605	17.450000
3392.325863	21.040000
3393.365429	19.230000
3394.404855	19.290000
3395.442693	18.230000
3396.478944	23.460000
3397.515056	16.870000
3398.552475	22.160000
3399.586861	19.630000
3400.622554	22.480000
3401.658108	15.040000
3402.690631	20.240000
3403.725906	17.130000
3404.758152	19.530000
3405.790259	21.810000
3406.820782	18.080000
3407.852612	15.420000
3408.884304	15.650000
3409.912968	19.920000
3410.941495	22.720000
3411.971328	15.410000
3413.001024	22.280000
3414.027694	20.610000
3415.055670	21.630000
3416.080623	18.400000
3417.108325	20.330000
3418.133003	16.910000
3419.158989	22.320000
3420.183394	18.000000
3421.207663	20.840000
3422.230353	14.370000
3423.252907	16.860000
3424.276767	20.500000
3425.297607	15.300000
3426.318311	13.010000
3427.340322	23.660000
3428.359314	12.150000
3429.378170	17.340000
3430.398333	13.950000
3431.415479	17.570000
