-117.841134	-1.190000
-115.171534	1.090000
-112.504869	-0.820000
-109.838956	4.560000
-107.175976	4.040000
-104.511565	1.620000
-101.850085	-3.870000
-99.187176	0.780000
-96.529373	6.010000
-93.870141	0.070000
-91.211657	-0.180000
-88.556098	-0.260000
-85.899109	1.420000
-83.247219	1.900000
-80.593899	-0.160000
-77.943498	3.510000
-75.291669	-2.110000
-72.644930	-0.050000
-69.996761	2.450000
-67.349335	1.460000
-64.704824	0.680000
-62.058883	3.280000
-59.418024	2.740000
-56.775736	-0.910000
-54.136357	1.080000
-51.495548	2.700000
-48.855480	-1.180000
-46.220485	0.810000
-43.584060	0.600000
-40.950538	4.770000
-38.315588	2.080000
-35.685703	3.250000
-33.052226	0.810000
-30.423811	6.940000
-27.796130	2.900000
-25.167020	3.510000
-22.542967	0.150000
-19.915325	9.840000
-17.292737	6.300000
-14.670879	11.180000
-12.049752	24.910000
-9.429356	52.420000
-6.811847	176.180000
-4.192910	548.260000
-1.576858	1449.490000
1.038465	1961.280000
3.653060	1013.490000
6.264774	114.810000
8.877916	18.580000
11.486024	10.520000
14.097713	0.010000
16.704373	7.080000
19.312460	1.340000
21.919823	4.820000
24.522161	0.630000
27.128077	3.170000
29.728971	-1.560000
32.331293	4.070000
34.928597	2.220000
37.529478	3.750000
40.125343	-0.860000
42.722637	5.080000
45.319211	-1.220000
47.910776	4.990000
50.503769	2.410000
53.093901	3.100000
55.685460	0.420000
58.274161	4.550000
60.864288	-0.640000
63.449416	4.650000
66.035972	0.850000
68.621814	2.720000
71.204802	3.050000
73.789216	3.410000
76.366502	2.050000
78.947354	0.780000
81.525357	-6.800000
84.102650	6.220000
86.681369	0.230000
89.255106	4.170000
91.830271	-0.500000
94.402592	3.720000
96.974205	-1.180000
99.542978	4.490000
102.113178	-3.020000
104.680539	-0.100000
107.249327	0.000000
109.815278	-0.010000
112.378394	3.120000
114.945066	5.850000
117.502516	2.690000
120.065653	6.980000
122.623829	3.510000
125.185560	8.990000
127.742334	15.030000
130.300534	22.090000
132.853782	24.500000
135.406332	36.280000
137.962432	44.940000
140.513584	69.380000
143.064039	73.880000
145.613796	83.960000
148.160734	90.550000
150.706977	98.460000
153.254645	96.060000
155.801617	103.160000
158.343654	94.810000
160.884997	93.670000
163.425647	98.560000
165.967723	100.060000
168.506987	91.550000
171.043442	99.920000
173.579207	98.370000
176.116397	95.930000
178.652896	93.170000
181.186589	91.810000
183.717478	87.480000
186.247679	92.350000
188.779306	86.180000
191.308131	94.460000
193.834157	85.020000
196.359497	91.190000
198.886262	84.650000
201.410231	89.830000
203.933515	86.420000
206.456113	92.430000
208.975919	87.970000
211.495042	93.880000
214.013483	86.820000
216.533347	90.380000
219.046210	90.050000
221.562604	96.360000
224.078316	85.890000
226.589138	91.870000
229.101385	96.700000
231.610849	86.830000
234.119635	87.100000
236.627743	92.830000
239.137275	87.160000
241.641926	93.750000
244.145901	95.700000
246.651300	96.670000
249.151824	93.840000
251.655871	102.640000
254.152948	96.540000
256.653548	97.620000
259.151376	94.080000
261.648531	97.410000
264.145013	98.270000
266.636632	97.470000
269.131771	94.760000
271.624143	101.040000
274.115845	95.980000
276.604784	106.650000
279.095146	97.760000
281.582747	99.970000
284.067588	104.630000
286.555944	106.150000
289.037360	104.180000
291.522290	102.180000
294.002375	97.520000
296.485972	107.100000
298.964726	105.740000
301.444903	114.760000
303.922329	100.180000
306.399091	111.710000
308.875189	108.660000
311.348540	109.590000
313.821228	110.570000
316.293255	121.820000
318.764621	127.280000
321.233242	146.000000
323.701204	137.080000
326.170589	131.660000
328.635151	123.500000
331.103217	120.460000
333.566463	107.290000
336.029051	112.080000
338.490983	107.190000
340.952258	111.380000
343.410798	107.220000
345.870762	111.340000
348.327992	103.540000
350.784568	112.270000
353.240490	107.970000
355.693682	105.670000
358.148297	109.410000
360.598110	109.000000
363.051419	105.790000
365.499929	103.800000
367.947789	108.630000
370.397071	109.190000
372.841559	107.240000
375.287469	110.480000
377.732729	100.110000
380.175271	106.570000
382.617165	105.330000
385.058412	111.330000
387.496943	110.700000
389.936895	104.110000
392.374134	103.660000
394.808662	106.620000
397.246677	101.910000
399.679915	103.520000
402.114574	106.530000
404.544461	102.380000
406.977833	105.020000
409.406435	101.800000
411.834395	99.310000
414.263777	108.820000
416.688393	104.390000
419.114431	102.880000
421.539828	106.600000
423.964585	105.970000
426.384584	102.250000
428.806003	112.040000
431.224727	101.470000
433.644871	107.600000
436.062320	100.040000
438.481189	112.030000
440.897365	99.560000
443.308793	104.290000
445.723698	104.560000
448.135914	102.590000
450.547495	106.270000
452.958442	101.990000
455.366703	101.680000
457.774331	102.020000
460.181327	94.750000
462.587692	99.100000
464.991374	94.860000
467.394426	102.230000
469.796848	98.620000
472.198640	99.680000
474.597754	96.290000
476.998288	95.570000
479.398193	97.420000
481.793376	102.310000
484.192025	94.270000
486.585953	96.580000
488.979256	95.430000
491.371934	98.670000
493.763986	93.550000
496.157456	92.840000
498.546214	90.660000
500.932306	91.740000
503.319818	85.610000
505.706707	97.780000
508.090932	104.020000
510.476575	119.060000
512.859557	144.430000
515.239878	184.730000
517.621618	217.030000
520.000699	226.550000
522.381198	205.510000
524.759041	180.050000
527.134227	154.250000
529.508797	139.240000
531.884784	115.590000
534.258119	106.950000
536.632871	99.990000
539.002937	100.570000
541.372389	91.390000
543.743258	90.050000
546.109446	83.600000
548.477053	77.800000
550.842015	76.140000
553.206363	78.520000
555.570098	74.520000
557.935251	75.150000
560.295732	73.510000
562.657631	74.480000
565.016889	65.680000
567.373509	71.220000
569.733575	62.560000
572.086949	61.430000
574.443768	65.030000
576.797952	63.570000
579.151527	63.610000
581.504495	64.620000
583.854830	65.370000
586.206583	56.550000
588.551659	61.120000
590.902198	61.770000
593.246065	56.850000
595.595393	58.290000
597.940072	60.560000
600.282127	61.600000
602.625599	51.700000
604.966448	60.090000
607.306694	55.210000
609.644320	56.780000
611.985381	58.800000
614.321805	66.070000
616.659645	58.140000
618.994868	59.700000
621.327475	53.210000
623.661498	55.760000
625.992907	51.060000
628.323718	54.980000
630.653931	53.690000
632.983547	52.940000
635.308539	50.510000
637.638973	57.090000
639.964786	52.830000
642.287991	54.210000
644.612613	52.010000
646.934629	57.480000
649.256051	48.180000
651.574870	46.520000
653.895106	41.480000
656.214748	54.400000
658.531789	48.460000
660.848238	44.210000
663.162089	48.800000
665.477356	51.510000
667.790026	48.570000
670.104111	48.370000
672.413596	47.450000
674.724497	48.610000
677.032805	42.390000
679.340525	48.020000
681.649659	47.500000
683.954201	47.110000
686.258157	45.460000
688.561527	43.070000
690.866311	36.680000
693.166508	48.430000
695.468121	41.910000
697.769148	44.160000
700.065594	40.900000
702.363455	40.260000
704.660732	35.150000
706.957426	40.750000
709.249544	39.830000
711.545073	42.760000
713.836028	38.690000
716.128398	45.620000
718.418193	38.530000
720.707407	40.480000
722.996042	34.430000
725.282104	43.050000
727.569581	37.670000
729.854486	41.880000
732.138814	38.100000
734.420573	40.830000
736.703746	42.430000
738.986342	46.280000
741.264382	38.620000
743.543837	43.380000
745.822715	35.330000
748.101019	43.930000
750.374773	44.620000
752.649940	39.160000
754.924534	45.520000
757.196569	41.400000
759.470017	38.960000
761.740907	43.080000
764.009241	38.950000
766.278988	45.360000
768.546180	38.960000
770.812803	48.400000
773.078855	45.220000
775.342356	47.610000
777.607270	44.360000
779.871614	46.640000
782.131429	43.580000
784.392656	47.770000
786.653316	51.340000
788.911430	44.670000
791.166999	42.140000
793.425959	44.860000
795.678419	41.980000
797.936247	52.020000
800.189556	44.150000
802.440325	45.760000
804.692506	41.260000
806.942148	53.950000
809.193202	40.070000
811.439746	46.430000
813.687701	40.720000
815.933122	47.250000
818.179954	39.350000
820.426225	42.240000
822.667991	38.930000
824.913141	41.740000
827.151818	38.670000
829.393877	42.130000
831.631438	36.760000
833.870411	39.460000
836.106857	40.150000
838.344714	37.460000
840.580046	34.020000
842.812855	38.410000
845.047074	38.840000
847.278772	38.550000
849.509915	38.100000
851.740503	38.150000
853.970537	34.830000
856.200017	35.270000
858.425015	33.100000
860.653388	38.580000
862.877281	33.480000
865.102586	39.670000
867.323415	35.730000
869.547616	39.170000
871.767344	41.270000
873.988482	39.020000
876.209070	43.420000
878.427149	38.710000
880.646637	37.670000
882.861659	38.280000
885.076133	43.930000
887.290060	38.770000
889.503440	37.010000
891.716272	42.230000
893.928558	31.310000
896.138341	43.320000
898.347579	33.780000
900.556272	37.420000
902.762465	34.390000
904.970069	40.840000
907.175174	33.720000
909.379736	40.960000
911.581803	37.140000
913.785279	39.820000
915.986261	34.860000
918.186701	40.700000
920.388550	39.790000
922.584008	37.120000
924.782825	33.000000
926.977203	42.430000
929.174939	38.180000
931.368239	42.750000
933.562948	44.170000
935.755171	49.150000
937.946855	43.300000
940.138002	50.410000
942.326666	46.150000
944.514794	47.460000
946.700441	52.680000
948.889440	53.840000
951.074016	47.960000
953.258057	54.830000
955.445448	52.490000
957.624535	57.320000
959.806973	52.010000
961.988877	58.630000
964.168306	56.730000
966.345263	56.690000
968.523628	52.920000
970.703400	58.470000
972.876823	57.170000
975.053592	57.110000
977.225954	63.690000
979.399724	60.900000
981.569090	54.570000
983.741800	59.880000
985.912045	59.180000
988.081760	56.890000
990.250948	57.710000
992.415738	60.510000
994.583869	50.780000
996.747605	58.140000
998.912749	52.910000
1001.075433	56.140000
1003.237592	51.280000
1005.397294	54.410000
1007.556471	48.430000
1009.717055	56.870000
1011.875184	54.900000
1014.032790	59.590000
1016.189872	49.820000
1018.346430	53.710000
1020.498609	51.210000
1022.652195	56.840000
1024.805259	54.170000
1026.955874	60.000000
1029.107896	53.630000
1031.255544	51.960000
1033.406524	57.110000
1035.553133	59.390000
1037.699223	57.420000
1039.844795	65.460000
1041.991772	59.840000
1044.132460	63.360000
1046.276478	59.370000
1048.418055	58.810000
1050.559115	59.890000
1052.701581	65.150000
1054.837766	54.360000
1056.977278	62.260000
1059.112435	57.420000
1061.250916	60.370000
1063.385043	59.640000
1065.518657	64.460000
1067.653675	60.130000
1069.784345	60.470000
1071.916419	57.150000
1074.046064	57.220000
1076.175197	57.500000
1078.303818	56.100000
1080.431928	54.440000
1082.557612	55.030000
1084.682786	56.330000
1086.809364	57.400000
1088.931604	54.840000
1091.055249	49.890000
1093.174559	50.480000
1095.299098	52.300000
1097.417393	44.000000
1099.537092	51.750000
1101.654372	50.900000
1103.771145	53.440000
1105.887413	45.460000
1108.001264	50.820000
1110.116520	43.450000
1112.227452	49.710000
1114.341697	38.410000
1116.451621	42.980000
1118.562949	44.780000
1120.673772	48.420000
1122.780279	43.560000
1124.890095	43.400000
1126.995598	38.050000
1129.102503	41.920000
1131.203193	40.940000
1133.309095	42.650000
1135.410688	40.200000
1137.513684	43.510000
1139.616179	38.830000
1141.712467	47.550000
1143.813962	41.800000
1145.911155	37.960000
1148.007850	40.250000
1150.104046	40.550000
1152.199744	40.220000
1154.294945	44.630000
1156.387749	30.760000
1158.481955	39.880000
1160.569970	45.580000
1162.663184	37.080000
1164.750209	40.400000
1166.840533	43.340000
1168.926569	38.010000
1171.015904	38.950000
1173.099057	36.260000
1175.183612	39.550000
1177.269569	43.230000
1179.351244	37.270000
1181.434320	40.590000
1183.515011	44.500000
1185.595211	39.290000
1187.674919	40.420000
1189.754136	34.640000
1191.830971	33.820000
1193.905424	33.690000
1195.983170	39.480000
1198.056646	33.350000
1200.131522	36.130000
1202.202131	40.220000
1204.274141	36.330000
1206.343775	35.100000
1208.414810	34.250000
1210.485358	36.570000
1212.551644	35.430000
1214.619331	33.560000
1216.684646	35.460000
1218.751361	29.910000
1220.813820	36.970000
1222.879564	32.850000
1224.941054	40.240000
1227.003945	36.690000
1229.064468	38.680000
1231.124507	31.690000
1233.184063	33.080000
1235.241255	29.330000
1237.297965	37.320000
1239.352311	33.620000
1241.409939	32.690000
1243.465203	32.760000
1245.516228	31.570000
1247.568652	32.110000
1249.620596	33.250000
1251.670182	29.660000
1253.719289	39.140000
1255.767917	26.010000
1257.816067	35.620000
1259.863739	30.480000
1261.907180	33.700000
1263.953897	29.330000
1265.998260	31.480000
1268.042147	28.800000
1270.083682	27.660000
1272.122868	25.610000
1274.165327	31.480000
1276.203563	29.480000
1278.243198	31.040000
1280.282358	29.580000
1282.317299	30.280000
1284.353639	30.870000
1286.387635	35.710000
1288.423028	26.390000
1290.454209	30.320000
1292.486787	32.650000
1294.518894	32.540000
1296.548660	24.960000
1298.579823	26.860000
1300.606780	28.290000
1302.635134	29.970000
1304.659283	32.350000
1306.686698	23.640000
1308.709910	27.420000
1310.734520	32.090000
1312.756796	32.690000
1314.780468	32.560000
1316.801808	25.720000
1318.822681	28.990000
1320.843086	22.710000
1322.859298	31.480000
1324.876907	28.270000
1326.892188	33.670000
1328.910728	26.940000
1330.925079	28.360000
1332.937103	27.860000
1334.952386	33.940000
1336.963483	23.750000
1338.975977	42.220000
1340.984288	27.830000
1342.995854	35.460000
1345.001382	29.720000
1347.010165	32.680000
1349.014770	27.500000
1351.022629	31.360000
1353.030026	30.080000
1355.031392	34.470000
1357.034154	29.220000
1359.036457	35.330000
1361.038300	25.360000
1363.039683	37.090000
1365.038753	27.660000
1367.037364	32.430000
1369.035516	26.150000
1371.033211	28.410000
1373.026743	32.850000
1375.021670	29.540000
1377.016141	27.520000
1379.010155	29.390000
1381.001862	31.120000
1382.993113	28.790000
1384.982059	24.460000
1386.972401	30.720000
1388.962287	34.470000
1390.949869	33.540000
1392.936998	30.190000
1394.921825	31.270000
1396.908047	30.970000
1398.891968	33.380000
1400.875437	26.790000
1402.858454	27.300000
1404.839173	29.960000
1406.821286	30.380000
1408.801103	28.080000
1410.780468	27.320000
1412.755695	28.610000
1414.734160	29.520000
1416.710332	31.130000
1418.686054	28.260000
1420.661328	26.580000
1422.634310	28.450000
1424.606844	27.830000
1426.578930	29.120000
1428.550569	28.900000
1430.518079	24.410000
1432.490663	28.230000
1434.455441	37.070000
1436.425292	27.820000
1438.391019	25.370000
1440.358138	28.860000
1442.322974	29.880000
1444.283690	27.750000
1446.249474	28.580000
1448.209303	26.130000
1450.170526	24.060000
1452.133140	25.870000
1454.091640	28.550000
1456.049698	27.500000
1458.007314	29.310000
1459.964487	23.680000
1461.919385	27.640000
1463.875676	23.870000
1465.829692	31.350000
1467.783267	28.840000
1469.734570	26.110000
1471.687265	30.660000
1473.637689	34.370000
1475.587674	25.700000
1477.537220	31.580000
1479.484497	26.500000
1481.429506	29.870000
1483.375908	24.080000
1485.321872	30.690000
1487.267399	23.350000
1489.210660	32.630000
1491.153486	23.540000
1493.094047	30.140000
1495.036001	27.440000
1496.975692	33.530000
1498.914948	28.170000
1500.853770	33.770000
1502.790332	25.720000
1504.728285	26.610000
1506.663979	24.190000
1508.599240	31.060000
1510.532244	24.490000
1512.464817	29.450000
1514.396956	28.340000
1516.328664	33.640000
1518.258119	33.540000
1520.188964	30.050000
1522.119377	28.840000
1524.045718	30.880000
1525.973449	28.610000
1527.898931	28.740000
1529.823983	26.570000
1531.748606	30.660000
1533.672799	29.720000
1535.594746	29.880000
1537.518083	27.200000
1539.439173	29.340000
1541.358019	28.700000
1543.278255	31.000000
1545.196248	24.720000
1547.113813	35.870000
1549.029138	29.490000
1550.945852	34.830000
1552.858511	39.930000
1554.774373	37.270000
1556.687997	37.550000
1558.599382	34.980000
1560.512157	33.420000
1562.420882	33.800000
1564.330996	29.390000
1566.240687	35.270000
1568.149955	35.370000
1570.056989	37.650000
1571.961790	30.160000
1573.867979	32.140000
1575.771938	28.530000
1577.675475	33.520000
1579.578592	36.510000
1581.479479	41.490000
1583.381755	31.390000
1585.281803	42.950000
1587.183238	37.390000
1589.080640	41.040000
1590.977623	47.660000
1592.874188	44.880000
1594.772140	42.530000
1596.664258	42.530000
1598.559570	33.810000
1600.454464	30.520000
1602.347136	28.580000
1604.239391	34.640000
1606.129427	27.600000
1608.019047	34.420000
1609.908252	27.560000
1611.797041	29.990000
1613.683614	31.700000
1615.571574	33.820000
1617.455517	28.770000
1619.340847	30.430000
1621.225764	32.940000
1623.108467	30.470000
1624.992557	29.740000
1626.872635	31.790000
1628.754101	26.750000
1630.633356	31.160000
1632.513997	28.600000
1634.388834	33.320000
1636.268652	25.740000
1638.144466	29.920000
1640.019869	24.140000
1641.896658	34.300000
1643.767651	22.600000
1645.641825	31.900000
1647.512000	27.930000
1649.385356	32.310000
1651.256509	31.830000
1653.125461	27.480000
1654.995797	23.830000
1656.862141	29.570000
1658.729870	23.830000
1660.595400	28.260000
1662.462316	25.910000
1664.325242	30.830000
1666.189555	21.360000
1668.051671	29.720000
1669.913382	31.170000
1671.776479	29.190000
1673.637380	25.440000
1675.496089	31.640000
1677.354394	27.450000
1679.214083	33.650000
1681.068006	28.690000
1682.925102	30.490000
1684.781794	27.310000
1686.634511	30.790000
1688.490399	24.180000
1690.342313	31.220000
1692.193826	27.020000
1694.044938	33.380000
1695.895649	26.450000
1697.745960	29.570000
1699.594087	23.140000
1701.443598	33.400000
1703.287359	21.870000
1705.136071	30.030000
1706.979036	25.410000
1708.825168	28.940000
1710.667337	27.290000
1712.512672	34.700000
1714.352266	29.710000
1716.193244	25.300000
1718.035605	25.910000
1719.874010	31.360000
1721.713798	28.960000
1723.551410	34.350000
1725.388628	27.090000
1727.223672	31.410000
1729.060099	26.620000
1730.894353	29.680000
1732.728214	27.520000
1734.561680	31.410000
1736.391200	25.200000
1738.223880	27.940000
1740.052615	27.330000
1741.884507	32.600000
1743.712457	28.470000
1745.540015	27.800000
1747.367182	28.600000
1749.193957	33.100000
1751.020340	30.670000
1752.842787	28.200000
1754.668389	27.640000
1756.490056	33.220000
1758.313104	24.620000
1760.133992	25.540000
1761.954491	31.510000
1763.776370	29.430000
1765.592550	25.920000
1767.411883	28.520000
1769.227287	24.800000
1771.045843	32.360000
1772.860473	25.600000
1774.674716	28.260000
1776.488573	30.010000
1778.302043	24.550000
1780.113360	25.370000
1781.926057	32.670000
1783.738369	28.100000
1785.546762	28.060000
1787.356537	24.850000
1789.162397	28.520000
1790.971402	24.320000
1792.776494	21.570000
1794.582967	24.810000
1796.389056	33.900000
1798.191234	24.290000
1799.996557	29.370000
1801.797971	28.900000
1803.600765	26.240000
1805.399653	24.010000
1807.199922	33.040000
1808.999809	25.380000
1810.797554	27.410000
1812.594919	26.410000
1814.391903	30.970000
1816.188508	31.360000
1817.982973	34.800000
1819.778817	28.460000
1821.569006	35.850000
1823.364092	29.260000
1825.153525	29.040000
1826.946096	28.890000
1828.736531	30.910000
1830.524832	23.890000
1832.316267	25.190000
1834.102058	24.480000
1835.889228	33.510000
1837.674266	23.410000
1839.462438	32.450000
1841.246724	30.230000
1843.028880	23.780000
1844.812416	24.610000
1846.593823	34.210000
1848.376609	33.150000
1850.155514	33.410000
1851.935798	30.420000
1853.713957	30.400000
1855.493494	24.720000
1857.270905	32.000000
1859.046194	27.520000
1860.822860	30.080000
1862.597404	25.850000
1864.373325	32.010000
1866.143627	21.510000
1867.917056	30.960000
1869.688365	31.800000
1871.459303	33.790000
1873.231619	27.440000
1874.998321	30.930000
1876.768148	27.750000
1878.534112	30.940000
1880.303200	28.690000
1882.068426	31.940000
1883.833284	30.930000
1885.599519	30.310000
1887.361895	27.020000
1889.123903	36.050000
1890.885545	24.160000
1892.646819	25.140000
1894.407727	25.880000
1896.168268	30.990000
1897.926699	27.190000
1899.684764	31.110000
1901.440722	31.860000
1903.198056	29.380000
1904.955025	30.220000
1906.709887	26.960000
1908.462645	29.600000
1910.215038	27.870000
1911.968808	25.830000
1913.720474	26.080000
1915.470038	31.950000
1917.220977	29.130000
1918.971553	30.550000
1920.718291	29.400000
1922.466404	23.040000
1924.212419	25.250000
1925.959808	28.950000
1927.705100	24.390000
1929.448294	26.140000
1931.192863	30.850000
1932.935336	30.080000
1934.677450	28.480000
1936.419203	25.960000
1938.160596	29.060000
1939.899896	30.200000
1941.638837	31.680000
1943.377419	29.060000
1945.113910	32.550000
1946.850043	32.205000
1948.587550	31.860000
1950.321235	29.820000
1952.056295	29.810000
1953.789266	25.950000
1955.521881	29.750000
1957.254140	28.180000
1958.986042	28.680000
1960.715858	23.880000
1962.443589	27.610000
1964.172695	30.820000
1965.901445	30.940000
1967.628113	27.900000
1969.354426	28.270000
1971.082112	27.380000
1972.804262	32.570000
1974.529513	26.520000
1976.250957	32.270000
1977.975501	24.850000
1979.697966	30.890000
1981.416628	27.850000
1983.138388	28.840000
1984.856346	28.660000
1986.575677	37.190000
1988.291209	28.200000
1990.011561	30.850000
1991.728115	30.660000
1993.440872	24.700000
1995.156725	31.020000
1996.870506	37.640000
1998.583937	29.360000
2000.295297	27.380000
2002.008029	28.270000
2003.716971	32.110000
2005.429005	28.560000
2007.135530	32.260000
2008.845148	26.070000
2010.552698	35.580000
2012.259901	22.120000
2013.965038	32.040000
2015.669829	33.450000
2017.375991	29.260000
2019.078371	28.990000
2020.782122	28.100000
2022.483811	28.020000
2024.185154	31.310000
2025.886153	27.330000
2027.585090	31.460000
2029.285399	27.940000
2030.981932	29.470000
2032.679837	32.240000
2034.375684	27.990000
2036.074616	24.510000
2037.768062	29.590000
2039.462879	28.540000
2041.157354	33.520000
2042.848060	27.210000
2044.541850	32.580000
2046.231873	26.050000
2047.923267	30.810000
2049.612608	32.470000
2051.303319	30.400000
2052.990267	29.500000
2054.676876	30.950000
2056.364854	26.100000
2058.049073	29.320000
2059.734663	21.410000
2061.419912	30.230000
2063.103114	31.000000
2064.787686	36.450000
2066.466794	27.920000
2068.150689	31.850000
2069.829122	26.330000
2071.510633	29.240000
2073.188392	24.190000
2074.865815	30.900000
2076.544607	29.860000
2078.221357	30.360000
2079.896064	27.510000
2081.572142	29.910000
2083.246178	25.160000
2084.919880	28.350000
2086.593246	21.380000
2088.264573	27.300000
2089.935566	24.160000
2091.606225	32.350000
2093.276550	25.290000
2094.946541	32.830000
2096.614496	26.090000
2098.282117	30.220000
2099.947705	25.610000
2101.614661	30.990000
2103.279584	26.000000
2104.944175	33.400000
2106.606734	23.410000
2108.270661	29.850000
2109.932557	23.270000
2111.594123	31.080000
2113.255357	26.230000
2114.914563	32.500000
2116.573438	29.460000
2118.231984	30.960000
2119.890199	21.910000
2121.544692	35.030000
2123.202249	27.000000
2124.859476	34.350000
2126.512983	27.380000
2128.167857	31.180000
2129.819012	29.820000
2131.473230	29.860000
2133.123730	30.950000
2134.775598	31.200000
2136.422057	29.230000
2138.073271	30.170000
2139.720771	32.170000
2141.369638	31.360000
2143.016486	29.670000
2144.663009	27.960000
2146.309206	26.620000
2147.951695	27.080000
2149.597241	30.430000
2151.239082	32.320000
2152.883979	26.350000
2154.525170	30.280000
2156.166038	29.760000
2157.806583	32.720000
2159.445115	26.270000
2161.085013	37.290000
2162.721211	28.360000
2164.358775	32.970000
2165.996017	28.880000
2167.631249	31.470000
2169.266159	30.440000
2170.900748	29.090000
2172.535016	26.120000
2174.165590	29.910000
2175.799216	27.980000
2177.429150	29.820000
2179.060449	30.910000
2180.689743	34.860000
2182.318718	24.750000
2183.947373	32.880000
2185.575709	26.140000
2187.202043	29.270000
2188.828057	22.260000
2190.452071	28.900000
2192.077450	23.510000
2193.700828	31.740000
2195.325571	27.660000
2196.946633	31.080000
2198.567378	25.510000
2200.189487	35.730000
2201.809599	26.340000
2203.427715	33.260000
2205.045515	32.180000
2206.663000	32.500000
2208.280169	30.620000
2209.897023	30.120000
2211.513561	25.620000
2213.128107	29.230000
2214.740660	26.350000
2216.354577	31.150000
2217.966503	26.260000
2219.579792	28.220000
2221.191091	25.990000
2222.800400	26.570000
2224.411073	20.850000
2226.019757	28.310000
2227.628128	27.190000
2229.234513	30.970000
2230.842260	30.030000
2232.448022	31.940000
2234.053472	25.860000
2235.656937	27.780000
2237.261765	24.150000
2238.864609	34.000000
2240.465470	30.600000
2242.067694	26.650000
2243.667936	29.910000
2245.269540	31.690000
2246.867491	26.450000
2248.466805	27.400000
2250.064139	24.480000
2251.661165	35.000000
2253.259553	24.500000
2254.854292	32.300000
2256.447054	27.430000
2258.041179	36.820000
2259.636665	31.900000
2261.228506	35.070000
2262.820041	28.050000
2264.412938	27.750000
2266.000525	32.870000
2267.592808	33.120000
2269.179785	32.680000
2270.769789	32.140000
2272.354489	27.400000
2273.943883	31.430000
2275.527974	22.830000
2277.113427	29.550000
2278.696911	29.180000
2280.283420	29.160000
2281.866296	29.030000
2283.448869	23.660000
2285.031138	26.220000
2286.609777	31.720000
2288.191441	30.550000
2289.769476	24.030000
2291.350534	23.220000
2292.927965	24.605000
2294.503433	25.990000
2296.081923	27.370000
2297.656789	25.260000
2299.231354	26.580000
2300.805618	28.210000
2302.379583	27.720000
2303.953246	30.760000
2305.526610	38.660000
2307.096355	20.610000
2308.665801	30.800000
2310.238265	26.620000
2311.805455	28.320000
2313.375663	26.940000
2314.942256	28.840000
2316.510209	21.450000
2318.076206	33.950000
2319.641906	29.450000
2321.207308	29.440000
2322.770757	27.340000
2324.335565	40.280000
2325.896765	36.750000
2327.460979	49.110000
2329.019931	47.130000
2330.581897	44.480000
2332.141913	35.700000
2333.701633	28.540000
2335.259405	30.370000
2336.816881	30.630000
2338.374063	24.790000
2339.929297	33.780000
2341.484238	27.600000
2343.038884	31.170000
2344.593237	26.390000
2346.147296	24.340000
2347.701062	23.590000
2349.252883	30.990000
2350.802762	30.600000
2352.355648	26.200000
2353.903291	22.760000
2355.453943	33.720000
2357.001003	26.580000
2358.549421	29.020000
2360.097548	35.400000
2361.642086	27.220000
2363.187982	27.240000
2364.731940	24.800000
2366.277254	25.100000
2367.818985	33.160000
2369.362072	23.760000
2370.903223	32.180000
2372.444085	28.620000
2373.984658	26.440000
2375.524942	28.240000
2377.064937	26.170000
2378.601354	35.060000
2380.140772	26.190000
2381.676612	27.510000
2383.213810	32.830000
2384.747432	26.570000
2386.284054	30.500000
2387.818746	31.060000
2389.351508	33.150000
2390.883983	31.550000
2392.414530	32.130000
2393.948075	31.050000
2395.476409	28.930000
2397.006099	30.790000
2398.535504	31.470000
2400.064624	30.770000
2401.593458	29.570000
2403.117088	27.990000
2404.645353	32.590000
2406.168416	30.150000
2407.696112	36.750000
2409.216969	24.510000
2410.742458	31.480000
2412.264388	25.910000
2413.787672	34.420000
2415.309036	31.770000
2416.828480	31.380000
2418.349279	21.010000
2419.868159	29.220000
2421.386758	27.840000
2422.903439	35.410000
2424.421474	26.940000
2425.939228	30.840000
2427.453430	27.350000
2428.967353	22.930000
2430.480995	26.350000
2431.995992	34.450000
2433.507440	29.470000
2435.020242	31.470000
2436.531132	22.490000
2438.041743	29.570000
2439.550442	34.730000
2441.062127	27.990000
2442.570269	25.230000
2444.078133	30.680000
2445.585718	25.670000
2447.089764	33.640000
2448.596794	27.100000
2450.101916	31.880000
2451.606761	32.760000
2453.109699	30.640000
2454.612361	28.890000
2456.114746	30.530000
2457.615226	25.030000
2459.117059	30.550000
2460.616987	28.730000
2462.116640	30.540000
2463.616018	30.040000
2465.113493	32.470000
2466.609066	23.210000
2468.107619	33.190000
2469.602644	28.170000
2471.099021	31.790000
2472.591872	30.550000
2474.086076	29.010000
2475.580006	23.650000
2477.070412	30.020000
2478.563796	34.390000
2480.055282	28.160000
2481.544871	29.190000
2483.034188	30.540000
2484.521609	34.210000
2486.012006	34.750000
2487.498885	25.600000
2488.987115	26.740000
2490.471828	29.300000
2491.956272	27.850000
2493.442066	22.990000
2494.925969	33.000000
2496.411222	24.740000
2497.891342	29.310000
2499.374435	27.140000
2500.855637	31.460000
2502.336570	30.850000
2503.815614	31.950000
2505.294389	29.870000
2506.772896	30.310000
2508.251135	29.630000
2509.729105	31.000000
2511.203570	29.790000
2512.681005	26.460000
2514.154936	25.640000
2515.630217	25.520000
2517.105231	28.840000
2518.576744	33.530000
2520.049608	28.290000
2521.520589	30.560000
2522.992920	30.080000
2524.460137	31.440000
2525.930321	25.780000
2527.398624	32.070000
2528.866662	24.720000
2530.334435	31.590000
2531.801943	24.770000
2533.269186	31.770000
2534.732937	24.370000
2536.198038	30.940000
2537.661262	25.520000
2539.125835	27.170000
2540.586920	30.190000
2542.049354	27.500000
2543.511525	24.510000
2544.970210	27.620000
2546.433466	26.030000
2547.891626	26.080000
2549.351136	23.930000
2550.805551	28.060000
2552.264537	24.880000
2553.721651	33.870000
2555.176893	28.400000
2556.631875	25.160000
2558.084988	24.230000
2559.539448	28.200000
2560.992040	29.710000
2562.444372	29.920000
2563.894837	33.630000
2565.348257	30.360000
2566.796595	22.870000
2568.247888	35.600000
2569.697316	28.820000
2571.143271	30.570000
2572.592181	23.960000
2574.037621	33.590000
2575.484408	26.630000
2576.929332	33.680000
2578.373999	25.660000
2579.820013	25.700000
2581.262561	30.200000
2582.706456	32.460000
2584.146885	25.230000
2585.588663	30.790000
2587.028581	22.950000
2588.469846	26.930000
2589.907649	22.270000
2591.348402	32.010000
2592.784093	22.880000
2594.222732	28.120000
2595.659515	25.820000
2597.094442	26.560000
2598.532316	27.420000
2599.965133	25.920000
2601.399297	30.550000
2602.831607	26.450000
2604.265263	24.430000
2605.697066	24.780000
2607.128615	27.910000
2608.559912	32.690000
2609.989356	31.840000
2611.418548	24.540000
2612.845890	28.130000
2614.274577	26.590000
2615.703013	24.420000
2617.128001	26.620000
2618.554336	30.180000
2619.978822	28.770000
2621.404654	29.030000
2622.827042	27.950000
2624.250776	26.500000
2625.672663	27.900000
2627.094300	29.380000
2628.514093	31.250000
2629.935231	21.790000
2631.356119	33.030000
2632.773568	25.860000
2634.193958	30.220000
2635.610910	28.660000
2637.027613	31.800000
2638.444068	23.470000
2639.860275	26.930000
2641.276234	30.490000
2642.690352	27.440000
2644.104222	28.430000
2645.516253	36.720000
2646.929629	32.730000
2648.339575	30.640000
2649.752457	27.200000
2651.161910	31.520000
2652.571117	26.100000
2653.978488	40.100000
2655.388793	29.700000
2656.797263	31.300000
2658.203897	31.060000
2659.610286	34.740000
2661.014841	31.860000
2662.420740	39.340000
2663.824806	37.820000
2665.228627	35.620000
2666.632204	35.160000
2668.033950	41.430000
2669.437039	36.080000
2670.836710	41.520000
2672.237725	40.440000
2673.635324	45.220000
2675.035852	38.650000
2676.432966	42.800000
2677.831423	44.320000
2679.228053	47.960000
2680.624440	37.410000
2682.020585	43.960000
2683.414904	40.570000
2684.810566	43.470000
2686.202819	48.890000
2687.596414	45.450000
2688.988185	43.750000
2690.381299	43.330000
2691.772589	43.510000
2693.162056	39.510000
2694.551283	39.410000
2695.940271	40.550000
2697.330600	39.710000
2698.715946	41.800000
2700.104215	34.330000
2701.490664	43.490000
2702.876874	35.300000
2704.262845	35.210000
2705.645418	37.380000
2707.029333	31.590000
2708.413010	34.250000
2709.796448	31.840000
2711.176491	30.160000
2712.557876	34.230000
2713.937446	26.860000
2715.318356	31.350000
2716.697452	29.080000
2718.074734	32.190000
2719.453357	30.050000
2720.830166	33.070000
2722.206740	26.650000
2723.583078	29.030000
2724.957604	23.970000
2726.333471	31.150000
2727.705952	30.190000
2729.081348	27.460000
2730.451784	25.170000
2731.823561	29.490000
2733.195103	27.070000
2734.564837	30.410000
2735.935911	25.960000
2737.305178	29.020000
2738.674211	27.550000
2740.041438	26.130000
2741.408431	25.880000
2742.775192	25.110000
2744.141720	25.650000
2745.506444	32.940000
2746.870935	24.660000
2748.235195	28.740000
2749.599222	23.070000
2750.963018	26.180000
2752.323440	23.030000
2753.686772	22.910000
2755.045162	24.150000
2756.406462	22.150000
2757.764392	25.970000
2759.125230	27.040000
2760.484268	20.690000
2761.839939	29.090000
2763.198517	23.820000
2764.553728	24.150000
2765.908710	26.920000
2767.261895	25.960000
2768.617987	24.770000
2769.970715	27.500000
2771.323215	27.250000
2772.675486	26.330000
2774.029095	20.830000
2775.379344	27.730000
2776.727798	20.560000
2778.079157	28.900000
2779.427158	23.840000
2780.776496	26.930000
2782.124042	23.160000
2783.471362	24.410000
2784.818455	21.320000
2786.163756	25.850000
2787.508832	25.370000
2788.853682	25.540000
2790.198306	26.570000
2791.539578	22.110000
2792.882187	23.870000
2794.224572	29.170000
2795.566731	30.120000
2796.905541	26.290000
2798.247251	20.910000
2799.585612	23.990000
2800.925311	24.620000
2802.263225	29.770000
2803.599353	23.700000
2804.935259	24.550000
2806.272502	27.380000
2807.607961	30.400000
2808.943197	24.380000
2810.276650	25.660000
2811.611440	22.930000
2812.942890	24.960000
2814.277235	24.960000
2815.606682	27.260000
2816.937465	24.730000
2818.268028	23.810000
2819.596811	23.870000
2820.926930	24.170000
2822.255271	23.620000
2823.583391	25.270000
2824.909733	24.760000
2826.237412	26.070000
2827.561757	22.290000
2828.887439	30.580000
2830.211345	19.900000
2831.535031	27.490000
2832.860053	23.220000
2834.181746	27.180000
2835.503220	20.520000
2836.824475	26.630000
2838.145511	20.660000
2839.464774	21.990000
2840.785373	27.800000
2842.104200	30.630000
2843.422810	21.530000
2844.739648	31.100000
2846.056269	17.860000
2847.372673	26.840000
2848.687307	25.300000
2850.003277	26.230000
2851.315926	23.000000
2852.629910	28.630000
2853.943678	23.500000
2855.257229	24.740000
2856.569014	21.550000
2857.879032	31.910000
2859.190385	22.160000
2860.498423	29.790000
2861.807795	28.250000
2863.116952	25.090000
2864.425895	23.900000
2865.733073	30.640000
2867.038489	23.650000
2868.345238	27.900000
2869.650226	26.800000
2870.954999	23.500000
2872.258012	21.230000
2873.563905	29.130000
2874.864944	27.520000
2876.167317	28.900000
2877.467930	21.710000
2878.769877	30.540000
2880.071610	21.070000
2881.370040	29.100000
2882.669803	26.900000
2883.967809	25.730000
2885.265603	28.930000
2886.561641	23.880000
2887.859012	23.990000
2889.154627	24.890000
2890.450031	17.170000
2891.745224	24.460000
2893.037120	14.340000
2894.331892	27.140000
2895.623367	21.070000
2896.916175	27.070000
2898.208773	16.750000
2899.498077	26.240000
2900.788713	18.680000
2902.077598	24.400000
2903.367815	23.990000
2904.654741	24.920000
2905.942999	18.330000
2907.229508	23.850000
2908.515808	24.140000
2909.801900	27.240000
2911.086245	19.830000
2912.373460	25.310000
2913.655849	21.760000
2914.939570	29.830000
2916.221545	25.490000
2917.503312	26.690000
2918.783334	22.440000
2920.066227	26.420000
2921.347374	30.020000
2922.625239	20.900000
2923.905973	20.360000
2925.183426	23.920000
2926.460673	17.900000
2927.736178	22.300000
2929.014551	24.580000
2930.288110	34.580000
2931.564536	18.080000
2932.839221	17.250000
2934.112165	25.620000
2935.386441	25.350000
2936.658977	19.210000
2937.931308	24.500000
2939.200367	25.210000
2940.472291	25.360000
2941.742477	21.970000
2943.012459	28.850000
2944.282238	24.830000
2945.550281	25.040000
2946.816587	19.480000
2948.082691	27.780000
2949.350126	18.260000
2950.615825	26.610000
2951.881323	22.150000
2953.146618	28.150000
2954.408648	22.310000
2955.672008	22.110000
2956.935167	20.050000
2958.196594	32.330000
2959.459350	23.230000
2960.720374	21.760000
2961.979668	26.590000
2963.238761	22.560000
2964.497655	21.090000
2965.756348	17.790000
2967.014841	21.070000
2968.271604	26.840000
2969.528169	20.320000
2970.783005	23.650000
2972.039171	24.140000
2973.292082	24.900000
2974.546321	20.740000
2975.800362	26.440000
2977.052677	22.030000
2978.304794	27.900000
2979.555186	19.820000
2980.808433	24.740000
2982.056903	22.050000
2983.308228	24.670000
2984.556303	21.190000
2985.804181	22.130000
2987.051863	23.170000
2988.299347	25.400000
2989.545110	22.350000
2990.790677	22.960000
2992.037571	19.800000
2993.281221	24.070000
2994.526199	24.960000
2995.767933	23.400000
2997.012519	21.880000
2998.255386	27.270000
2999.495012	19.350000
3000.737488	17.730000
3001.976724	26.100000
3003.217288	23.810000
3004.456135	21.360000
3005.694788	26.730000
3006.931725	16.810000
3008.169990	25.680000
3009.406539	19.160000
3010.642895	24.700000
3011.879057	20.940000
3013.113505	26.370000
3014.347760	27.170000
3015.581823	22.340000
3016.814172	25.930000
3018.044810	23.540000
3019.278294	22.550000
3020.510067	27.170000
3021.740129	21.750000
3022.969998	25.510000
3024.198158	24.740000
3025.427645	27.320000
3026.655422	19.820000
3027.883008	24.180000
3029.111920	21.860000
3030.336090	22.730000
3031.563104	23.840000
3032.786893	18.800000
3034.012009	24.830000
3035.235418	23.450000
3036.458637	17.500000
3037.680151	22.820000
3038.904506	19.070000
3040.124126	21.720000
3041.345072	19.220000
3042.565829	27.050000
3043.784882	21.230000
3045.005260	22.040000
3046.222422	19.820000
3047.440910	29.930000
3048.657695	25.040000
3049.874293	22.010000
3051.090702	25.080000
3052.303898	22.700000
3053.519933	24.400000
3054.732755	25.670000
3055.948413	20.830000
3057.159350	24.360000
3058.371611	21.130000
3059.583685	21.630000
3060.795573	24.970000
3062.005764	21.960000
3063.215768	19.030000
3064.425586	24.300000
3065.633708	24.650000
3066.841645	26.910000
3068.047886	21.530000
3069.255452	25.770000
3070.461323	25.410000
3071.667009	25.050000
3072.872511	22.400000
3074.076319	25.850000
3075.281451	24.390000
3076.484890	28.380000
3077.686638	20.480000
3078.888201	24.970000
3080.089581	21.560000
3081.290777	24.320000
3082.490283	18.940000
3083.689606	24.490000
3084.890252	19.630000
3086.089208	21.970000
3087.284970	18.900000
3088.483560	23.560000
3089.678958	20.090000
3090.875678	24.640000
3092.069206	23.460000
3093.265562	29.670000
3094.460231	20.160000
3095.651710	20.170000
3096.847521	20.600000
3098.038637	26.530000
3099.231077	22.980000
3100.420329	20.280000
3101.612406	20.890000
3102.802800	24.430000
3103.990008	14.740000
3105.178538	29.370000
3106.368391	18.390000
3107.555060	21.930000
3108.741548	18.080000
3109.927858	26.040000
3111.115489	19.720000
3112.299938	22.640000
3113.482708	17.460000
3114.668300	21.580000
3115.852213	19.490000
3117.034447	17.390000
3118.216502	19.390000
3119.398379	17.670000
3120.580078	17.450000
3121.760100	16.840000
3122.938445	21.000000
3124.119610	21.600000
3125.297600	19.020000
3126.475413	16.470000
3127.653049	15.870000
3128.829010	23.120000
3130.004795	18.590000
3131.181901	23.870000
3132.357332	15.730000
3133.531090	21.240000
3134.703175	14.020000
3135.876582	21.360000
3137.049812	21.820000
3138.221371	22.210000
3139.394250	21.270000
3140.563962	19.350000
3141.734995	26.100000
3142.904358	22.720000
3144.072050	16.880000
3145.242558	25.370000
3146.408408	20.330000
3147.578566	24.460000
3148.744068	20.200000
3149.909395	25.520000
3151.074549	24.590000
3152.239530	18.840000
3153.405830	21.180000
3154.567478	21.830000
3155.730445	23.250000
3156.893240	23.190000
3158.055862	17.800000
3159.216818	19.880000
3160.377603	16.940000
3161.538215	24.860000
3162.697163	16.130000
3163.855940	24.480000
3165.014544	12.680000
3166.172977	24.360000
3167.331239	16.660000
3168.487838	26.280000
3169.642776	17.840000
3170.799033	18.800000
3171.953629	21.660000
3173.108055	20.010000
3174.260821	14.380000
3175.413416	18.520000
3176.565842	14.300000
3177.718098	18.790000
3178.870183	17.390000
3180.019122	17.950000
3181.170869	23.380000
3182.320957	20.600000
3183.469389	18.020000
3184.617651	20.900000
3185.765745	18.320000
3186.913670	18.890000
3188.059939	16.140000
3189.206040	19.030000
3190.350487	23.990000
3191.494766	20.480000
3192.638877	19.270000
3193.784305	26.210000
3194.926595	21.650000
3196.068718	16.030000
3197.210673	18.610000
3198.352461	25.220000
3199.494082	18.170000
3200.632568	19.830000
3201.772371	15.100000
3202.913491	22.580000
3204.051478	19.100000
3205.187815	22.800000
3206.323986	15.840000
3207.461474	15.960000
3208.597314	16.840000
3209.734471	16.390000
3210.867015	19.850000
3212.003841	22.120000
3213.136055	23.530000
3214.269586	21.660000
3215.402953	14.390000
3216.533192	25.770000
3217.666229	20.650000
3218.796140	24.530000
3219.927367	16.960000
3221.055470	18.530000
3222.186369	22.310000
3223.315624	20.500000
3224.443236	22.190000
3225.567725	22.510000
3226.696490	14.410000
3227.822133	23.800000
3228.947613	19.660000
3230.071452	22.770000
3231.198086	20.630000
3232.320122	21.850000
3233.443474	17.570000
3234.566664	22.880000
3235.689691	16.920000
3236.811080	22.290000
3237.932306	23.970000
3239.051894	21.320000
3240.171321	17.440000
3241.289111	21.730000
3242.409692	20.820000
3243.527160	24.670000
3244.644467	16.900000
3245.761614	21.710000
3246.877124	17.350000
3247.993950	19.570000
3249.107666	16.710000
3250.224171	19.750000
3251.339042	13.900000
3252.450803	20.140000
3253.562406	19.840000
3254.675324	21.550000
3255.788082	17.600000
3256.897734	24.900000
3258.008701	19.770000
3259.119509	18.600000
3260.228685	21.660000
3261.336230	22.530000
3262.445090	23.320000
3263.553792	18.510000
3264.659391	20.980000
3265.766304	17.930000
3266.871588	19.650000
3267.978186	24.980000
3269.081684	20.880000
3270.186496	21.940000
3271.291151	13.630000
3272.392708	19.760000
3273.494108	16.510000
3274.596822	24.550000
3275.699380	21.720000
3276.798841	19.300000
3277.901086	17.900000
3279.000235	14.600000
3280.097760	17.030000
3281.195129	19.750000
3282.295280	16.990000
3283.392339	20.070000
3284.489242	20.750000
3285.585990	24.290000
3286.678179	18.190000
3287.774618	23.900000
3288.869434	21.840000
3289.964096	21.000000
3291.057136	18.470000
3292.150021	20.610000
3293.241286	24.080000
3294.333864	20.960000
3295.424822	14.100000
3296.514160	21.190000
3297.603345	15.160000
3298.693842	17.990000
3299.781256	18.510000
3300.868516	21.200000
3301.957089	24.840000
3303.045509	17.410000
3304.129383	15.160000
3305.217498	26.900000
3306.302531	15.180000
3307.385949	17.570000
3308.470679	17.710000
3309.553793	20.790000
3310.638220	21.410000
3311.719568	20.300000
3312.802228	19.060000
3313.883274	22.720000
3314.964168	17.480000
3316.043450	23.320000
3317.122581	18.610000
3318.203024	20.460000
3319.280392	18.920000
3320.359072	24.600000
3321.436140	16.770000
3322.513059	20.220000
3323.588366	16.510000
3324.663524	15.970000
3325.739993	17.840000
3326.813392	18.370000
3327.886641	20.790000
3328.961202	19.530000
3330.034154	18.100000
3331.105497	19.040000
3332.178151	16.900000
3333.247739	20.660000
3334.318637	19.890000
3335.387928	24.960000
3336.458529	21.740000
3337.527525	16.040000
3338.594914	18.410000
3339.660698	21.450000
3340.730708	22.360000
3341.797655	16.050000
3342.861540	18.570000
3343.928192	22.680000
3344.993241	15.820000
3346.056686	21.170000
3347.119985	8.140000
3348.183137	17.990000
3349.246143	17.350000
3350.309003	18.750000
3351.370261	22.390000
3352.428462	26.300000
3353.490883	13.860000
3354.550249	19.560000
3355.609469	14.800000
3356.669998	18.630000
3357.726019	15.440000
3358.784803	19.850000
3359.839080	14.670000
3360.896121	21.160000
3361.951563	22.820000
3363.008315	18.980000
3364.063468	19.430000
3365.117024	19.610000
3366.168984	16.410000
3367.223705	19.710000
3368.275377	20.600000
3369.326906	19.030000
3370.379743	17.010000
3371.429533	17.340000
3372.480632	15.870000
3373.528684	21.780000
3374.579497	11.630000
3375.627264	17.040000
3376.674889	17.600000
3377.722372	16.220000
3378.768262	13.190000
3379.815460	25.900000
3380.859616	15.850000
3381.906530	18.800000
3382.951852	20.610000
3383.994133	16.350000
3385.036273	16.980000
3386.079722	21.320000
3387.123029	18.660000
3388.164746	22.900000
3389.206323	19.900000
3390.247758	20.590000
3391.287605	15.020000
3392.325863	18.810000
3393.365429	20.810000
3394.404855	17.510000
3395.442693	19.930000
3396.478944	21.860000
3397.515056	13.320000
3398.552475	23.360000
3399.586861	18.170000
3400.622554	25.420000
3401.658108	15.240000
3402.690631	18.970000
3403.725906	14.760000
3404.758152	20.780000
3405.790259	18.000000
3406.820782	20.490000
3407.852612	19.650000
3408.884304	16.300000
3409.912968	21.560000
3410.941495	24.470000
3411.971328	16.090000
3413.001024	23.180000
3414.027694	13.410000
3415.055670	20.980000
3416.080623	15.210000
3417.108325	21.580000
3418.133003	19.010000
3419.158989	23.240000
3420.183394	14.280000
3421.207663	18.440000
3422.230353	13.940000
3423.252907	15.150000
3424.276767	18.530000
3425.297607	15.330000
3426.318311	12.910000
3427.340322	21.970000
3428.359314	15.540000
3429.378170	17.800000
3430.398333	11.540000
3431.415479	17.350000
