-117.753856	59.000000
-115.084255	60.000000
-112.417590	123.000000
-109.751678	40.000000
-107.088697	48.000000
-104.424286	74.000000
-101.762806	32.000000
-99.099897	68.000000
-96.442095	86.000000
-93.782862	71.000000
-91.124378	73.000000
-88.468819	75.000000
-85.811831	56.000000
-83.159940	60.000000
-80.506620	64.000000
-77.856220	63.000000
-75.204390	32.000000
-72.557651	89.000000
-69.909482	42.000000
-67.262057	35.000000
-64.617545	34.000000
-61.971604	59.000000
-59.330746	79.000000
-56.688457	48.000000
-54.049078	48.000000
-51.408270	56.000000
-48.768201	42.000000
-46.133206	38.000000
-43.496781	62.000000
-40.863260	69.000000
-38.228309	102.000000
-35.598425	46.000000
-32.964947	83.000000
-30.336532	72.000000
-27.708851	107.000000
-25.079742	86.000000
-22.455689	71.000000
-19.828047	46.000000
-17.205458	122.000000
-14.583600	112.000000
-11.962473	221.000000
-9.342077	398.000000
-6.724568	1107.000000
-4.105631	3020.000000
-1.489580	7644.000000
1.125743	10347.000000
3.740339	7911.000000
6.352053	1032.000000
8.965194	132.000000
11.573302	59.000000
14.184992	68.000000
16.791651	102.000000
19.399738	134.000000
22.007101	89.000000
24.609439	82.000000
27.215355	75.000000
29.816250	91.000000
32.418572	78.000000
35.015876	97.000000
37.616756	70.000000
40.212622	86.000000
42.809915	84.000000
45.406489	73.000000
47.998054	117.000000
50.591047	81.000000
53.181179	94.000000
55.772739	96.000000
58.361439	91.000000
60.951567	89.000000
63.536695	129.000000
66.123251	67.000000
68.709092	47.000000
71.292080	70.000000
73.876495	55.000000
76.453780	41.000000
79.034632	76.000000
81.612635	58.000000
84.189928	104.000000
86.768647	78.000000
89.342385	41.000000
91.917549	78.000000
94.489870	90.000000
97.061484	78.000000
99.630257	130.000000
102.200457	113.000000
104.767818	86.000000
107.336606	127.000000
109.902556	192.000000
112.465672	181.000000
115.032345	209.000000
117.589795	217.000000
120.152931	388.000000
122.711108	496.000000
125.272839	657.000000
127.829613	1055.000000
130.387813	1487.000000
132.941061	2158.000000
135.493610	3127.000000
138.049711	4385.000000
140.600863	5658.000000
143.151317	7196.000000
145.701075	8178.000000
148.248013	8684.000000
150.794255	9337.000000
153.341924	9479.000000
155.888896	9529.000000
158.430932	9645.000000
160.972275	9673.000000
163.512926	9631.000000
166.055001	9718.000000
168.594266	9801.000000
171.130721	9641.000000
173.666486	9539.000000
176.203676	9758.000000
178.740174	9581.000000
181.273868	9663.000000
183.804757	9589.000000
186.334958	9438.000000
188.866584	9759.000000
191.395410	9611.000000
193.921436	9830.000000
196.446776	9573.000000
198.973541	9683.000000
201.497510	9448.000000
204.020793	9448.000000
206.543392	9572.000000
209.063198	9367.000000
211.582321	9748.000000
214.100761	9316.000000
216.620625	9445.000000
219.133488	9586.000000
221.649882	9672.000000
224.165595	9672.000000
226.676417	9505.000000
229.188664	9543.000000
231.698128	9584.000000
234.206914	9444.000000
236.715022	9571.000000
239.224554	9593.000000
241.729205	9272.000000
244.233180	9468.000000
246.738579	9725.000000
249.239103	9514.000000
251.743150	9557.000000
254.240227	9896.000000
256.740826	9731.000000
259.238654	9609.000000
261.735809	9600.000000
264.232291	9757.000000
266.723911	9449.000000
269.219049	9774.000000
271.711422	9461.000000
274.203124	9564.000000
276.692063	9569.000000
279.182425	9509.000000
281.670026	9302.000000
284.154867	9461.000000
286.643222	9181.000000
289.124639	9457.000000
291.609569	9303.000000
294.089653	9439.000000
296.573250	9481.000000
299.052005	9423.000000
301.532182	9239.000000
304.009608	9488.000000
306.486370	9356.000000
308.962468	9333.000000
311.435818	9380.000000
313.908507	9564.000000
316.380534	9405.000000
318.851899	9658.000000
321.320521	9579.000000
323.788483	9428.000000
326.257868	9575.000000
328.722430	9653.000000
331.190495	9354.000000
333.653741	9648.000000
336.116330	9619.000000
338.578261	9372.000000
341.039536	9695.000000
343.498077	9489.000000
345.958040	9477.000000
348.415271	9450.000000
350.871847	9343.000000
353.327768	9404.000000
355.780961	9187.000000
358.235576	9413.000000
360.685389	9260.000000
363.138698	9398.000000
365.587208	9357.000000
368.035068	9178.000000
370.484349	9135.000000
372.928837	9276.000000
375.374747	9174.000000
377.820008	9253.000000
380.262550	9276.000000
382.704444	9418.000000
385.145690	9223.000000
387.584221	9119.000000
390.024174	9101.000000
392.461413	9136.000000
394.895940	9146.000000
397.333955	9146.000000
399.767193	9020.000000
402.201853	9137.000000
404.631740	9237.000000
407.065112	9253.000000
409.493713	9068.000000
411.921674	9186.000000
414.351055	9045.000000
416.775672	9441.000000
419.201709	9219.000000
421.627107	9240.000000
424.051864	9208.000000
426.471862	9261.000000
428.893282	9193.000000
431.312005	9150.000000
433.732149	9269.000000
436.149598	9322.000000
438.568467	9369.000000
440.984643	9173.000000
443.396072	9138.000000
445.810977	9271.000000
448.223192	9282.000000
450.634773	9263.000000
453.045720	9157.000000
455.453981	9529.000000
457.861610	9074.000000
460.268606	9359.000000
462.674970	9278.000000
465.078653	9311.000000
467.481705	9311.000000
469.884127	9255.000000
472.285919	9124.000000
474.685033	9065.000000
477.085567	9314.000000
479.485472	8970.000000
481.880654	9116.000000
484.279303	9120.000000
486.673232	9271.000000
489.066535	9091.000000
491.459212	9102.000000
493.851264	9168.000000
496.244735	9157.000000
498.633493	9218.000000
501.019585	9132.000000
503.407097	9051.000000
505.793985	8921.000000
508.178210	9313.000000
510.563854	8938.000000
512.946835	9038.000000
515.327156	9120.000000
517.708896	9143.000000
520.087977	9067.000000
522.468477	9023.000000
524.846319	8928.000000
527.221506	8974.000000
529.596075	9070.000000
531.972063	9032.000000
534.345397	9258.000000
536.720150	9024.000000
539.090216	9184.000000
541.459667	8849.000000
543.830537	9071.000000
546.196725	8975.000000
548.564332	9157.000000
550.929293	9106.000000
553.293641	8993.000000
555.657377	9182.000000
558.022530	9018.000000
560.383011	9055.000000
562.744909	9082.000000
565.104168	9215.000000
567.460788	8918.000000
569.820854	8943.000000
572.174228	8860.000000
574.531047	8921.000000
576.885231	8848.000000
579.238806	8905.000000
581.591773	8926.000000
583.942109	8746.000000
586.293861	8937.000000
588.638937	8816.000000
590.989477	8753.000000
593.333344	8793.000000
595.682672	8678.000000
598.027351	8789.000000
600.369406	8959.000000
602.712878	8885.000000
605.053727	8861.000000
607.393973	8875.000000
609.731599	8769.000000
612.072660	8822.000000
614.409084	8833.000000
616.746924	8923.000000
619.082146	8834.000000
621.414753	8823.000000
623.748777	8940.000000
626.080186	8689.000000
628.410997	8940.000000
630.741210	8855.000000
633.070826	9196.000000
635.395818	8856.000000
637.726252	8927.000000
640.052064	8828.000000
642.375270	8826.000000
644.699892	8708.000000
647.021908	8847.000000
649.343330	8988.000000
651.662149	8989.000000
653.982384	8793.000000
656.302026	8735.000000
658.619067	8916.000000
660.935517	9043.000000
663.249368	8995.000000
665.564634	8801.000000
667.877304	8570.000000
670.191389	8733.000000
672.500875	9006.000000
674.811775	8936.000000
677.120083	8837.000000
679.427803	8848.000000
681.736938	8809.000000
684.041480	8594.000000
686.345436	8810.000000
688.648805	8563.000000
690.953589	8826.000000
693.253787	8771.000000
695.555400	8763.000000
697.856427	8742.000000
700.152873	8660.000000
702.450733	8720.000000
704.748011	8742.000000
707.044704	8582.000000
709.336822	8633.000000
711.632351	8597.000000
713.923307	8592.000000
716.215677	8744.000000
718.505471	8713.000000
720.794686	8641.000000
723.083320	8491.000000
725.369383	8683.000000
727.656859	8644.000000
729.941765	8539.000000
732.226092	8895.000000
734.507852	8788.000000
736.791025	8736.000000
739.073621	8569.000000
741.351661	8714.000000
743.631115	8820.000000
745.909994	8760.000000
748.188297	8789.000000
750.462051	8855.000000
752.737219	8792.000000
755.011813	8734.000000
757.283848	8543.000000
759.557296	8739.000000
761.828186	8726.000000
764.096519	8652.000000
766.366267	8682.000000
768.633459	8824.000000
770.900081	8828.000000
773.166134	8745.000000
775.429635	8845.000000
777.694548	8865.000000
779.958893	8747.000000
782.218707	8620.000000
784.479935	8629.000000
786.740595	8847.000000
788.998708	8829.000000
791.254277	8528.000000
793.513237	8645.000000
795.765698	8589.000000
798.023526	8634.000000
800.276835	8845.000000
802.527603	8701.000000
804.779784	8583.000000
807.029427	8759.000000
809.280481	8833.000000
811.527024	8445.000000
813.774980	8611.000000
816.020400	8734.000000
818.267233	8592.000000
820.513503	8593.000000
822.755270	8521.000000
825.000419	8544.000000
827.239096	8719.000000
829.481156	8705.000000
831.718717	8609.000000
833.957689	8595.000000
836.194135	8464.000000
838.431993	8644.000000
840.667325	8449.000000
842.900133	8445.000000
845.134353	8412.000000
847.366051	8507.000000
849.597194	8556.000000
851.827782	8719.000000
854.057816	8551.000000
856.287295	8689.000000
858.512294	8708.000000
860.740666	8645.000000
862.964560	8624.000000
865.189864	8572.000000
867.410693	8745.000000
869.634894	8553.000000
871.854622	8593.000000
874.075761	8553.000000
876.296349	8694.000000
878.514428	8427.000000
880.733916	8687.000000
882.948938	8415.000000
885.163412	8637.000000
887.377339	8634.000000
889.590718	8634.000000
891.803551	8604.000000
894.015836	8350.000000
896.225620	8497.000000
898.434858	8345.000000
900.643550	8418.000000
902.849744	8508.000000
905.057347	8648.000000
907.262453	8343.000000
909.467015	8421.000000
911.669082	8493.000000
913.872558	8573.000000
916.073540	8584.000000
918.273980	8392.000000
920.475829	8767.000000
922.671287	8551.000000
924.870103	8495.000000
927.064482	8493.000000
929.262218	8466.000000
931.455518	8588.000000
933.650226	8490.000000
935.842449	8410.000000
938.034134	8533.000000
940.225281	8530.000000
942.413945	8722.000000
944.602072	8614.000000
946.787719	8531.000000
948.976718	8473.000000
951.161294	8689.000000
953.345335	8466.000000
955.532726	8655.000000
957.711814	8720.000000
959.894251	8643.000000
962.076155	8661.000000
964.255585	8589.000000
966.432542	8834.000000
968.610907	8706.000000
970.790678	8626.000000
972.964101	8645.000000
975.140870	8617.000000
977.313233	8589.000000
979.487003	8736.000000
981.656369	8771.000000
983.829079	8789.000000
985.999323	8775.000000
988.169039	8729.000000
990.338226	8830.000000
992.503016	8764.000000
994.671148	8591.000000
996.834884	8670.000000
999.000028	8937.000000
1001.162712	8726.000000
1003.324871	8670.000000
1005.484572	8818.000000
1007.643750	8923.000000
1009.804334	8541.000000
1011.962463	8743.000000
1014.120068	8742.000000
1016.277150	8587.000000
1018.433709	8712.000000
1020.585888	8709.000000
1022.739474	8462.000000
1024.892537	8469.000000
1027.043153	8706.000000
1029.195174	8538.000000
1031.342822	8507.000000
1033.493802	8429.000000
1035.640412	8529.000000
1037.786502	8499.000000
1039.932074	8660.000000
1042.079050	8714.000000
1044.219739	8509.000000
1046.363756	8655.000000
1048.505334	8566.000000
1050.646394	8726.000000
1052.788859	8568.000000
1054.925045	8467.000000
1057.064557	8306.000000
1059.199713	8623.000000
1061.338194	8530.000000
1063.472322	8558.000000
1065.605936	8576.000000
1067.740954	8741.000000
1069.871623	8726.000000
1072.003698	8743.000000
1074.133342	8436.000000
1076.262475	8686.000000
1078.391097	8637.000000
1080.519207	8729.000000
1082.644891	8606.000000
1084.770065	8500.000000
1086.896642	8598.000000
1089.018883	8727.000000
1091.142528	8761.000000
1093.261838	8661.000000
1095.386377	8697.000000
1097.504672	8827.000000
1099.624370	8416.000000
1101.741650	8747.000000
1103.858424	8717.000000
1105.974691	8733.000000
1108.088543	8878.000000
1110.203798	8686.000000
1112.314731	8852.000000
1114.428975	8629.000000
1116.538900	8677.000000
1118.650227	8605.000000
1120.761051	8914.000000
1122.867558	8790.000000
1124.977374	8821.000000
1127.082876	8915.000000
1129.189782	8633.000000
1131.290471	8677.000000
1133.396373	8904.000000
1135.497966	8771.000000
1137.600962	8604.000000
1139.703457	8669.000000
1141.799746	8553.000000
1143.901241	8770.000000
1145.998434	8654.000000
1148.095128	8850.000000
1150.191325	8621.000000
1152.287023	8735.000000
1154.382224	8770.000000
1156.475028	8615.000000
1158.569234	8734.000000
1160.657249	8609.000000
1162.750462	8586.000000
1164.837487	8891.000000
1166.927812	8704.000000
1169.013848	8863.000000
1171.103182	8863.000000
1173.186335	8671.000000
1175.270891	8846.000000
1177.356847	8756.000000
1179.438522	8692.000000
1181.521599	8710.000000
1183.602290	8682.000000
1185.682490	9111.000000
1187.762198	8801.000000
1189.841414	8676.000000
1191.918249	8916.000000
1193.992703	8847.000000
1196.070449	8990.000000
1198.143924	8611.000000
1200.218801	9133.000000
1202.289410	8946.000000
1204.361420	8798.000000
1206.431054	8921.000000
1208.502089	8886.000000
1210.572636	8959.000000
1212.638922	9082.000000
1214.706609	9223.000000
1216.771924	9119.000000
1218.838639	9241.000000
1220.901098	9130.000000
1222.966843	9023.000000
1225.028333	9060.000000
1227.091223	9106.000000
1229.151746	9187.000000
1231.211786	8913.000000
1233.271342	9074.000000
1235.328534	9220.000000
1237.385243	9288.000000
1239.439590	9218.000000
1241.497217	9219.000000
1243.552482	9117.000000
1245.603506	9349.000000
1247.655930	9466.000000
1249.707875	9418.000000
1251.757461	9448.000000
1253.806568	9209.000000
1255.855196	9639.000000
1257.903346	9592.000000
1259.951018	9603.000000
1261.994459	9551.000000
1264.041175	9345.000000
1266.085539	9594.000000
1268.129425	9824.000000
1270.170961	9838.000000
1272.210147	9962.000000
1274.252605	9979.000000
1276.290842	10151.000000
1278.330476	10365.000000
1280.369636	9943.000000
1282.404578	10214.000000
1284.440918	10218.000000
1286.474913	10294.000000
1288.510307	10339.000000
1290.541487	10714.000000
1292.574066	10917.000000
1294.606172	11348.000000
1296.635938	11641.000000
1298.667102	11890.000000
1300.694058	12059.000000
1302.722412	12581.000000
1304.746562	13438.000000
1306.773977	14559.000000
1308.797189	15131.000000
1310.821799	16714.000000
1312.844074	18343.000000
1314.867747	20900.000000
1316.889087	24858.000000
1318.909960	31254.000000
1320.930365	41731.000000
1322.946576	58634.000000
1324.964186	64563.000000
1326.979467	64558.000000
1328.998007	64563.000000
1331.012357	64558.000000
1333.024382	64563.000000
1335.039665	64558.000000
1337.050762	64563.000000
1339.063255	64558.000000
1341.071566	54537.000000
1343.083133	33556.000000
1345.088661	24981.000000
1347.097443	20423.000000
1349.102049	17426.000000
1351.109908	15895.000000
1353.117304	14014.000000
1355.118670	13025.000000
1357.121433	12396.000000
1359.123736	11680.000000
1361.125578	11330.000000
1363.126962	10762.000000
1365.126031	10653.000000
1367.124642	10377.000000
1369.122795	10268.000000
1371.120490	10150.000000
1373.114021	10051.000000
1375.108949	9635.000000
1377.103420	9667.000000
1379.097434	9781.000000
1381.089141	9621.000000
1383.080392	9700.000000
1385.069338	9392.000000
1387.059679	9222.000000
1389.049565	9275.000000
1391.037148	9361.000000
1393.024277	9168.000000
1395.009104	9381.000000
1396.995326	9269.000000
1398.979247	9134.000000
1400.962716	9243.000000
1402.945733	9251.000000
1404.926452	9291.000000
1406.908565	9251.000000
1408.888381	9263.000000
1410.867747	9418.000000
1412.842974	9180.000000
1414.821439	9136.000000
1416.797611	9298.000000
1418.773333	9426.000000
1420.748606	9255.000000
1422.721588	9597.000000
1424.694123	9518.000000
1426.666209	9368.000000
1428.637847	9485.000000
1430.605358	9444.000000
1432.577942	9641.000000
1434.542720	9524.000000
1436.512571	9580.000000
1438.478297	9637.000000
1440.445417	9604.000000
1442.410253	9515.000000
1444.370969	9406.000000
1446.336753	9525.000000
1448.296582	9307.000000
1450.257804	9631.000000
1452.220419	9468.000000
1454.178919	9438.000000
1456.136977	9407.000000
1458.094592	9308.000000
1460.051766	9122.000000
1462.006664	9391.000000
1463.962954	9305.000000
1465.916970	9122.000000
1467.870546	9302.000000
1469.821849	9340.000000
1471.774544	9204.000000
1473.724968	9095.000000
1475.674953	9191.000000
1477.624498	9090.000000
1479.571775	8998.000000
1481.516785	9035.000000
1483.463187	9298.000000
1485.409151	9154.000000
1487.354677	9131.000000
1489.297939	8988.000000
1491.240764	9116.000000
1493.181326	8972.000000
1495.123279	8861.000000
1497.062971	8918.000000
1499.002227	8848.000000
1500.941049	9177.000000
1502.877611	9258.000000
1504.815563	9115.000000
1506.751258	9275.000000
1508.686519	8993.000000
1510.619523	8825.000000
1512.552095	8866.000000
1514.484235	9296.000000
1516.415943	9148.000000
1518.345398	8897.000000
1520.276242	9083.000000
1522.206656	9017.000000
1524.132997	9119.000000
1526.060728	9062.000000
1527.986209	9105.000000
1529.911261	9156.000000
1531.835884	9151.000000
1533.760078	9048.000000
1535.682025	9080.000000
1537.605361	9163.000000
1539.526452	9175.000000
1541.445298	9178.000000
1543.365534	9039.000000
1545.283526	9162.000000
1547.201092	9074.000000
1549.116416	8894.000000
1551.033130	9058.000000
1552.945789	8998.000000
1554.861652	9098.000000
1556.775276	8921.000000
1558.686661	9034.000000
1560.599435	8881.000000
1562.508160	8890.000000
1564.418275	8799.000000
1566.327966	8841.000000
1568.237233	8821.000000
1570.144267	8743.000000
1572.049068	9055.000000
1573.955258	8608.000000
1575.859216	8841.000000
1577.762754	8801.000000
1579.665870	8804.000000
1581.566758	8786.000000
1583.469034	8664.000000
1585.369081	8863.000000
1587.270517	8797.000000
1589.167918	8645.000000
1591.064902	8665.000000
1592.961467	8761.000000
1594.859419	8526.000000
1596.751537	8921.000000
1598.646849	8889.000000
1600.541742	8549.000000
1602.434414	8625.000000
1604.326670	8640.000000
1606.216706	8595.000000
1608.106326	8539.000000
1609.995531	8765.000000
1611.884320	8723.000000
1613.770893	8666.000000
1615.658852	8802.000000
1617.542796	8570.000000
1619.428126	8837.000000
1621.313043	8710.000000
1623.195746	8516.000000
1625.079835	8733.000000
1626.959914	8606.000000
1628.841379	8693.000000
1630.720634	8716.000000
1632.601275	8622.000000
1634.476112	8763.000000
1636.355931	8771.000000
1638.231744	8627.000000
1640.107148	8576.000000
1641.983937	8854.000000
1643.854929	8708.000000
1645.729103	8522.000000
1647.599279	8750.000000
1649.472635	8581.000000
1651.343788	8459.000000
1653.212739	8579.000000
1655.083076	8501.000000
1656.949419	8768.000000
1658.817149	8553.000000
1660.682679	8474.000000
1662.549594	8346.000000
1664.412521	8507.000000
1666.276833	8488.000000
1668.138950	8469.000000
1670.000661	8551.000000
1671.863757	8542.000000
1673.724659	8574.000000
1675.583367	8473.000000
1677.441672	8541.000000
1679.301362	8528.000000
1681.155285	8643.000000
1683.012380	8542.000000
1684.869073	8399.000000
1686.721790	8707.000000
1688.577678	8450.000000
1690.429592	8488.000000
1692.281105	8275.000000
1694.132217	8572.000000
1695.982928	8440.000000
1697.833239	8476.000000
1699.681366	8566.000000
1701.530876	8640.000000
1703.374638	8484.000000
1705.223350	8453.000000
1707.066315	8552.000000
1708.912446	8522.000000
1710.754616	8488.000000
1712.599950	8679.000000
1714.439544	8527.000000
1716.280522	8605.000000
1718.122883	8745.000000
1719.961288	8599.000000
1721.801076	8630.000000
1723.638689	8616.000000
1725.475906	8709.000000
1727.310950	8619.000000
1729.147377	8414.000000
1730.981632	8616.000000
1732.815493	8400.000000
1734.648959	8603.000000
1736.478479	8558.000000
1738.311158	8544.000000
1740.139893	8668.000000
1741.971786	8537.000000
1743.799736	8606.000000
1745.627294	8606.000000
1747.454461	8674.000000
1749.281235	8751.000000
1751.107619	8517.000000
1752.930066	8726.000000
1754.755667	8563.000000
1756.577334	8748.000000
1758.400383	8530.000000
1760.221271	8455.000000
1762.041769	8555.000000
1763.863649	8774.000000
1765.679829	8690.000000
1767.499161	8596.000000
1769.314566	8540.000000
1771.133122	8642.000000
1772.947752	8695.000000
1774.761995	8744.000000
1776.575852	8600.000000
1778.389322	8705.000000
1780.200638	8739.000000
1782.013336	8822.000000
1783.825647	8760.000000
1785.634041	8467.000000
1787.443816	8571.000000
1789.249675	8784.000000
1791.058681	8597.000000
1792.863773	8929.000000
1794.670245	8860.000000
1796.476334	8818.000000
1798.278513	8746.000000
1800.083835	8747.000000
1801.885249	8785.000000
1803.688043	8725.000000
1805.486932	8945.000000
1807.287200	8932.000000
1809.087088	8808.000000
1810.884833	8665.000000
1812.682198	8773.000000
1814.479182	8797.000000
1816.275786	8688.000000
1818.070251	8609.000000
1819.866096	8757.000000
1821.656285	9171.000000
1823.451371	8817.000000
1825.240804	8955.000000
1827.033375	8743.000000
1828.823810	8585.000000
1830.612110	8626.000000
1832.403546	8929.000000
1834.189336	8890.000000
1835.976506	8884.000000
1837.761544	8883.000000
1839.549716	9002.000000
1841.334002	9017.000000
1843.116159	8906.000000
1844.899694	8794.000000
1846.681102	8690.000000
1848.463887	9069.000000
1850.242793	9011.000000
1852.023077	9063.000000
1853.801236	8792.000000
1855.580772	8929.000000
1857.358184	8895.000000
1859.133472	8900.000000
1860.910139	9222.000000
1862.684683	9092.000000
1864.460604	8885.000000
1866.230906	9052.000000
1868.004335	9055.000000
1869.775644	9041.000000
1871.546582	8961.000000
1873.318897	8979.000000
1875.085600	8923.000000
1876.855427	9086.000000
1878.621391	9221.000000
1880.390479	9195.000000
1882.155705	9106.000000
1883.920563	9014.000000
1885.686797	9240.000000
1887.449173	8901.000000
1889.211182	9112.000000
1890.972824	8927.000000
1892.734098	8942.000000
1894.495006	9206.000000
1896.255546	9087.000000
1898.013977	9082.000000
1899.772043	9188.000000
1901.528001	9227.000000
1903.285335	9228.000000
1905.042303	9236.000000
1906.797166	9070.000000
1908.549923	9144.000000
1910.302317	9080.000000
1912.056087	9024.000000
1913.807753	9065.000000
1915.557316	9135.000000
1917.308256	9197.000000
1919.058832	9204.000000
1920.805570	9309.000000
1922.553683	9215.000000
1924.299697	9052.000000
1926.047087	9221.000000
1927.792378	9283.000000
1929.535572	9341.000000
1931.280142	9400.000000
1933.022615	9156.000000
1934.764728	9283.000000
1936.506482	9430.000000
1938.247875	9231.000000
1939.987175	9520.000000
1941.726116	9415.000000
1943.464698	9330.000000
1945.201188	9490.000000
1946.937321	9497.500000
1948.674828	9505.000000
1950.408514	9704.000000
1952.143574	9380.000000
1953.876545	9549.000000
1955.609160	9412.000000
1957.341418	9449.000000
1959.073320	9725.000000
1960.803136	9578.000000
1962.530868	9621.000000
1964.259973	9544.000000
1965.988724	9539.000000
1967.715391	9691.000000
1969.441704	9738.000000
1971.169390	9511.000000
1972.891540	9481.000000
1974.616792	9596.000000
1976.338236	9826.000000
1978.062780	9735.000000
1979.785245	9740.000000
1981.503906	9701.000000
1983.225666	9807.000000
1984.943624	10073.000000
1986.662956	9694.000000
1988.378487	9976.000000
1990.098840	9759.000000
1991.815393	9796.000000
1993.528151	9897.000000
1995.244004	9959.000000
1996.957785	10091.000000
1998.671215	9952.000000
2000.382575	9723.000000
2002.095308	10121.000000
2003.804249	10088.000000
2005.516284	10106.000000
2007.222809	9963.000000
2008.932427	10016.000000
2010.639977	9901.000000
2012.347180	10220.000000
2014.052317	9886.000000
2015.757107	10266.000000
2017.463269	10053.000000
2019.165649	10061.000000
2020.869401	9983.000000
2022.571090	10179.000000
2024.272433	10152.000000
2025.973431	10223.000000
2027.672369	10173.000000
2029.372678	10168.000000
2031.069211	10136.000000
2032.767116	10176.000000
2034.462963	10306.000000
2036.161895	10189.000000
2037.855341	10115.000000
2039.550158	10170.000000
2041.244632	10185.000000
2042.935338	10373.000000
2044.629128	10245.000000
2046.319151	10374.000000
2048.010545	10170.000000
2049.699886	10179.000000
2051.390597	10215.000000
2053.077546	10319.000000
2054.764154	10148.000000
2056.452133	10237.000000
2058.136352	10152.000000
2059.821941	10230.000000
2061.507191	10302.000000
2063.190393	10152.000000
2064.874965	10401.000000
2066.554073	10094.000000
2068.237967	10168.000000
2069.916401	10061.000000
2071.597912	10047.000000
2073.275671	10259.000000
2074.953094	10114.000000
2076.631886	10130.000000
2078.308635	10195.000000
2079.983343	10178.000000
2081.659420	10114.000000
2083.333457	10239.000000
2085.007158	10200.000000
2086.680524	10174.000000
2088.351852	10168.000000
2090.022845	10335.000000
2091.693504	10400.000000
2093.363829	10250.000000
2095.033819	10424.000000
2096.701774	10404.000000
2098.369396	10284.000000
2100.034984	10190.000000
2101.701940	10298.000000
2103.366863	10514.000000
2105.031453	10569.000000
2106.694012	10348.000000
2108.357940	10532.000000
2110.019836	10757.000000
2111.681401	10548.000000
2113.342636	10489.000000
2115.001841	10687.000000
2116.660717	10498.000000
2118.319262	10609.000000
2119.977478	10764.000000
2121.631971	10747.000000
2123.289528	10750.000000
2124.946755	10832.000000
2126.600262	10669.000000
2128.255136	11023.000000
2129.906291	10792.000000
2131.560509	10776.000000
2133.211009	10794.000000
2134.862877	10679.000000
2136.509336	10672.000000
2138.160549	10843.000000
2139.808049	10844.000000
2141.456917	10970.000000
2143.103765	10776.000000
2144.750287	10867.000000
2146.396485	10860.000000
2148.038973	10889.000000
2149.684520	10743.000000
2151.326360	10849.000000
2152.971257	11112.000000
2154.612449	11123.000000
2156.253317	10947.000000
2157.893862	10912.000000
2159.532394	10839.000000
2161.172292	11153.000000
2162.808490	10934.000000
2164.446054	11092.000000
2166.083296	11102.000000
2167.718528	10990.000000
2169.353438	11529.000000
2170.988027	11106.000000
2172.622295	11170.000000
2174.252869	10992.000000
2175.886494	11431.000000
2177.516428	11327.000000
2179.147727	10935.000000
2180.777022	11314.000000
2182.405996	11176.000000
2184.034652	11308.000000
2185.662988	11224.000000
2187.289321	11208.000000
2188.915336	11169.000000
2190.539350	11163.000000
2192.164729	11330.000000
2193.788107	11257.000000
2195.412850	11248.000000
2197.033911	11225.000000
2198.654657	11248.000000
2200.276766	11208.000000
2201.896878	11287.000000
2203.514994	11441.000000
2205.132794	11099.000000
2206.750278	11165.000000
2208.367447	11458.000000
2209.984301	11302.000000
2211.600840	11703.000000
2213.215385	11496.000000
2214.827938	11589.000000
2216.441856	11466.000000
2218.053781	11367.000000
2219.667071	11600.000000
2221.278369	11808.000000
2222.887679	11353.000000
2224.498351	11619.000000
2226.107035	11602.000000
2227.715407	11484.000000
2229.321791	11591.000000
2230.929539	11523.000000
2232.535300	11758.000000
2234.140750	11781.000000
2235.744216	11793.000000
2237.349044	11882.000000
2238.951888	11980.000000
2240.552749	12065.000000
2242.154973	12013.000000
2243.755214	11999.000000
2245.356819	11746.000000
2246.954770	12146.000000
2248.554084	12123.000000
2250.151418	12109.000000
2251.748444	12126.000000
2253.346831	12317.000000
2254.941570	12318.000000
2256.534333	12220.000000
2258.128457	12381.000000
2259.723943	12137.000000
2261.315785	12183.000000
2262.907320	12289.000000
2264.500216	12091.000000
2266.087803	12231.000000
2267.680087	12443.000000
2269.267063	12354.000000
2270.857068	12269.000000
2272.441768	12058.000000
2274.031162	12466.000000
2275.615253	12292.000000
2277.200706	12330.000000
2278.784190	12289.000000
2280.370699	12212.000000
2281.953575	12299.000000
2283.536147	12427.000000
2285.118417	12489.000000
2286.697056	12289.000000
2288.278719	12418.000000
2289.856755	12296.000000
2291.437813	12584.000000
2293.015244	12544.500000
2294.590712	12505.000000
2296.169202	12370.000000
2297.744067	12616.000000
2299.318632	12525.000000
2300.892897	12600.000000
2302.466861	12553.000000
2304.040525	12593.000000
2305.613888	12745.000000
2307.183633	12441.000000
2308.753079	12729.000000
2310.325544	12761.000000
2311.892734	12669.000000
2313.462941	12817.000000
2315.029534	12825.000000
2316.597487	13139.000000
2318.163485	12909.000000
2319.729185	12959.000000
2321.294587	12961.000000
2322.858036	13125.000000
2324.422844	12962.000000
2325.984043	13009.000000
2327.548257	13236.000000
2329.107210	13511.000000
2330.669176	13207.000000
2332.229192	13359.000000
2333.788912	13447.000000
2335.346683	13392.000000
2336.904160	13080.000000
2338.461341	13792.000000
2340.016576	13412.000000
2341.571516	13596.000000
2343.126163	13583.000000
2344.680516	13584.000000
2346.234575	13419.000000
2347.788341	13764.000000
2349.340162	13667.000000
2350.890040	13478.000000
2352.442926	13459.000000
2353.990570	13718.000000
2355.541221	13913.000000
2357.088282	13548.000000
2358.636700	13890.000000
2360.184826	13880.000000
2361.729365	13722.000000
2363.275261	13963.000000
2364.819218	13849.000000
2366.364533	13781.000000
2367.906263	14099.000000
2369.449351	14011.000000
2370.990502	14108.000000
2372.531364	14075.000000
2374.071937	14305.000000
2375.612221	14098.000000
2377.152216	14270.000000
2378.688632	14394.000000
2380.228050	14318.000000
2381.763891	14375.000000
2383.301088	14290.000000
2384.834711	14213.000000
2386.371333	14274.000000
2387.906024	14449.000000
2389.438786	14154.000000
2390.971262	14295.000000
2392.501809	14469.000000
2394.035354	14761.000000
2395.563688	14863.000000
2397.093378	14971.000000
2398.622783	14716.000000
2400.151903	14929.000000
2401.680737	14843.000000
2403.204367	14930.000000
2404.732632	15118.000000
2406.255694	15324.000000
2407.783391	14821.000000
2409.304247	15028.000000
2410.829737	14926.000000
2412.351667	15323.000000
2413.874951	15417.000000
2415.396315	15363.000000
2416.915759	15473.000000
2418.436558	15433.000000
2419.955438	15414.000000
2421.474036	15097.000000
2422.990717	15352.000000
2424.508753	15471.000000
2426.026507	15599.000000
2427.540709	15657.000000
2429.054631	15603.000000
2430.568274	15782.000000
2432.083270	16034.000000
2433.594718	15926.000000
2435.107521	16107.000000
2436.618411	15916.000000
2438.129021	16120.000000
2439.637720	16319.000000
2441.149406	16422.000000
2442.657548	16200.000000
2444.165411	16303.000000
2445.672997	16482.000000
2447.177043	16412.000000
2448.684073	16195.000000
2450.189195	16285.000000
2451.694040	16596.000000
2453.196978	16730.000000
2454.699639	16900.000000
2456.202024	17026.000000
2457.702504	17019.000000
2459.204337	17157.000000
2460.704266	16983.000000
2462.203919	16887.000000
2463.703297	16941.000000
2465.200772	17288.000000
2466.696345	17189.000000
2468.194898	16760.000000
2469.689923	16760.000000
2471.186300	17171.000000
2472.679151	17124.000000
2474.173354	16999.000000
2475.667284	16846.000000
2477.157691	16927.000000
2478.651075	16906.000000
2480.142560	16905.000000
2481.632149	17040.000000
2483.121467	16918.000000
2484.608888	17026.000000
2486.099285	16918.000000
2487.586163	16901.000000
2489.074393	16991.000000
2490.559107	17227.000000
2492.043550	16896.000000
2493.529345	17059.000000
2495.013247	16863.000000
2496.498501	16584.000000
2497.978621	16704.000000
2499.461713	16958.000000
2500.942915	17254.000000
2502.423848	16878.000000
2503.902892	17225.000000
2505.381668	16698.000000
2506.860175	16370.000000
2508.338413	16657.000000
2509.816383	16722.000000
2511.290849	16841.000000
2512.768283	16746.000000
2514.242214	16635.000000
2515.717496	16637.000000
2517.192510	16627.000000
2518.664023	16571.000000
2520.136887	16601.000000
2521.607868	16552.000000
2523.080198	16519.000000
2524.547416	16274.000000
2526.017600	16360.000000
2527.485902	16167.000000
2528.953940	16186.000000
2530.421713	16264.000000
2531.889221	16285.000000
2533.356464	16367.000000
2534.820216	16456.000000
2536.285317	16342.000000
2537.748541	16330.000000
2539.213114	16345.000000
2540.674198	16524.000000
2542.136633	16553.000000
2543.598804	16205.000000
2545.057488	16224.000000
2546.520745	16571.000000
2547.978905	16807.000000
2549.438414	16675.000000
2550.892830	16655.000000
2552.351816	16240.000000
2553.808929	16640.000000
2555.264172	16632.000000
2556.719154	16504.000000
2558.172266	16650.000000
2559.626727	16715.000000
2561.079319	16634.000000
2562.531651	16877.000000
2563.982115	16778.000000
2565.435535	16728.000000
2566.883873	16590.000000
2568.335167	16824.000000
2569.784594	16829.000000
2571.230550	16968.000000
2572.679460	16844.000000
2574.124899	16802.000000
2575.571687	17052.000000
2577.016611	16385.000000
2578.461278	16946.000000
2579.907292	16989.000000
2581.349839	16929.000000
2582.793734	17083.000000
2584.234164	16891.000000
2585.675942	16924.000000
2587.115860	16951.000000
2588.557125	16905.000000
2589.994928	17100.000000
2591.435681	17334.000000
2592.871371	17300.000000
2594.310011	17358.000000
2595.746794	17289.000000
2597.181720	17559.000000
2598.619595	17079.000000
2600.052412	17187.000000
2601.486576	17499.000000
2602.918885	17407.000000
2604.352541	17682.000000
2605.784344	17552.000000
2607.215894	17674.000000
2608.647190	17484.000000
2610.076635	17366.000000
2611.505827	17420.000000
2612.933168	17612.000000
2614.361856	17620.000000
2615.790291	17578.000000
2617.215280	17498.000000
2618.641614	17668.000000
2620.066100	18061.000000
2621.491932	17810.000000
2622.914320	17950.000000
2624.338054	17657.000000
2625.759942	17835.000000
2627.181579	17737.000000
2628.601371	17854.000000
2630.022509	17755.000000
2631.443397	17593.000000
2632.860847	17880.000000
2634.281236	17863.000000
2635.698188	17837.000000
2637.114892	17884.000000
2638.531347	17677.000000
2639.947554	17811.000000
2641.363512	17548.000000
2642.777630	17879.000000
2644.191501	17642.000000
2645.603532	17823.000000
2647.016908	17868.000000
2648.426854	17991.000000
2649.839736	18050.000000
2651.249189	17902.000000
2652.658396	18218.000000
2654.065767	18195.000000
2655.476072	17896.000000
2656.884541	17932.000000
2658.291175	18373.000000
2659.697564	18116.000000
2661.102119	18216.000000
2662.508018	18543.000000
2663.912084	18504.000000
2665.315906	18491.000000
2666.719483	18460.000000
2668.121228	18837.000000
2669.524317	18730.000000
2670.923989	18525.000000
2672.325004	18370.000000
2673.722602	18069.000000
2675.123131	17781.000000
2676.520245	18318.000000
2677.918702	17987.000000
2679.315331	17888.000000
2680.711719	17753.000000
2682.107864	17759.000000
2683.502183	17869.000000
2684.897845	17736.000000
2686.290097	17728.000000
2687.683693	17667.000000
2689.075464	17810.000000
2690.468577	17629.000000
2691.859867	17790.000000
2693.249334	17729.000000
2694.638562	17698.000000
2696.027549	17746.000000
2697.417879	17731.000000
2698.803224	17784.000000
2700.191494	17877.000000
2701.577943	18040.000000
2702.964153	17747.000000
2704.350124	17838.000000
2705.732697	17952.000000
2707.116611	18153.000000
2708.500288	17786.000000
2709.883727	17890.000000
2711.263770	17969.000000
2712.645155	18163.000000
2714.024724	18119.000000
2715.405635	17918.000000
2716.784731	18107.000000
2718.162012	18241.000000
2719.540635	18216.000000
2720.917445	18416.000000
2722.294019	18557.000000
2723.670357	18338.000000
2725.044883	17959.000000
2726.420750	18397.000000
2727.793230	18494.000000
2729.168627	18759.000000
2730.539062	18533.000000
2731.910839	18660.000000
2733.282382	18373.000000
2734.652116	18476.000000
2736.023190	18542.000000
2737.392457	18517.000000
2738.761490	18658.000000
2740.128716	18619.000000
2741.495710	18732.000000
2742.862471	18512.000000
2744.228999	18747.000000
2745.593723	19104.000000
2746.958214	19012.000000
2748.322473	19145.000000
2749.686501	18608.000000
2751.050296	18772.000000
2752.410718	18968.000000
2753.774051	18855.000000
2755.132441	19033.000000
2756.493741	18955.000000
2757.851670	18970.000000
2759.212509	19099.000000
2760.571547	19016.000000
2761.927217	19191.000000
2763.285796	18930.000000
2764.641007	19342.000000
2765.995989	19468.000000
2767.349174	19179.000000
2768.705266	19528.000000
2770.057994	19608.000000
2771.410493	19285.000000
2772.762764	19263.000000
2774.116374	19344.000000
2775.466622	19269.000000
2776.815077	19470.000000
2778.166436	19345.000000
2779.514436	19322.000000
2780.863775	19273.000000
2782.211321	19817.000000
2783.558640	19698.000000
2784.905733	19399.000000
2786.251035	19494.000000
2787.596111	19577.000000
2788.940961	19665.000000
2790.285585	19603.000000
2791.626856	19704.000000
2792.969466	19801.000000
2794.311851	19863.000000
2795.654010	20195.000000
2796.992820	20008.000000
2798.334530	19880.000000
2799.672891	20053.000000
2801.012590	19930.000000
2802.350503	20014.000000
2803.686632	20030.000000
2805.022538	20119.000000
2806.359780	20101.000000
2807.695239	20488.000000
2809.030475	20535.000000
2810.363929	20526.000000
2811.698719	20256.000000
2813.030168	20257.000000
2814.364513	20442.000000
2815.693960	20828.000000
2817.024744	20817.000000
2818.355306	20825.000000
2819.684089	20511.000000
2821.014209	20854.000000
2822.342549	20832.000000
2823.670669	20663.000000
2824.997012	20881.000000
2826.324690	20618.000000
2827.649036	21139.000000
2828.974717	20933.000000
2830.298624	21076.000000
2831.622310	21079.000000
2832.947332	21151.000000
2834.269025	20784.000000
2835.590498	21373.000000
2836.911753	20963.000000
2838.232789	20960.000000
2839.552053	21152.000000
2840.872652	21214.000000
2842.191479	21145.000000
2843.510088	21366.000000
2844.826927	20841.000000
2846.143548	21220.000000
2847.459951	21142.000000
2848.774586	21297.000000
2850.090555	21304.000000
2851.403204	21433.000000
2852.717189	21443.000000
2854.030957	21357.000000
2855.344508	21227.000000
2856.656292	21704.000000
2857.966311	21379.000000
2859.277664	21280.000000
2860.585701	21391.000000
2861.895074	21754.000000
2863.204231	21773.000000
2864.513173	21462.000000
2865.820352	21739.000000
2867.125767	21702.000000
2868.432517	21918.000000
2869.737504	22173.000000
2871.042278	21736.000000
2872.345290	21912.000000
2873.651184	21938.000000
2874.952223	22065.000000
2876.254595	22085.000000
2877.555208	22096.000000
2878.857155	21997.000000
2880.158889	22093.000000
2881.457319	22305.000000
2882.757082	22235.000000
2884.055088	22161.000000
2885.352882	22167.000000
2886.648919	22145.000000
2887.946290	22299.000000
2889.241905	22214.000000
2890.537310	22317.000000
2891.832503	22512.000000
2893.124398	22389.000000
2894.419170	22192.000000
2895.710646	22047.000000
2897.003454	22173.000000
2898.296052	22374.000000
2899.585355	22311.000000
2900.875991	22060.000000
2902.164877	22412.000000
2903.455094	22495.000000
2904.742020	22264.000000
2906.030278	22680.000000
2907.316787	22623.000000
2908.603087	22604.000000
2909.889179	22616.000000
2911.173523	22318.000000
2912.460739	22491.000000
2913.743128	22446.000000
2915.026849	22437.000000
2916.308823	22718.000000
2917.590591	22542.000000
2918.870613	22724.000000
2920.153505	22992.000000
2921.434652	22501.000000
2922.712517	22694.000000
2923.993251	22901.000000
2925.270704	22603.000000
2926.547952	22424.000000
2927.823457	22703.000000
2929.101830	22465.000000
2930.375388	22591.000000
2931.651814	22872.000000
2932.926499	22701.000000
2934.199444	22610.000000
2935.473719	22555.000000
2936.746255	22662.000000
2938.018587	22961.000000
2939.287646	22725.000000
2940.559570	22746.000000
2941.829756	22808.000000
2943.099738	22654.000000
2944.369517	22993.000000
2945.637559	22993.000000
2946.903866	22849.000000
2948.169970	22699.000000
2949.437405	23061.000000
2950.703104	23099.000000
2951.968601	23271.000000
2953.233896	22657.000000
2954.495927	22988.000000
2955.759287	22993.000000
2957.022446	23054.000000
2958.283872	23198.000000
2959.546628	22843.000000
2960.807653	22923.000000
2962.066947	23169.000000
2963.326040	23198.000000
2964.584933	23427.000000
2965.843626	23490.000000
2967.102119	23206.000000
2968.358883	23181.000000
2969.615448	23473.000000
2970.870284	23112.000000
2972.126450	23509.000000
2973.379360	23516.000000
2974.633600	23005.000000
2975.887641	23873.000000
2977.139956	23120.000000
2978.392073	23313.000000
2979.642465	23536.000000
2980.895712	23547.000000
2982.144182	23311.000000
2983.395506	23665.000000
2984.643582	23907.000000
2985.891460	23451.000000
2987.139141	23586.000000
2988.386626	23620.000000
2989.632389	23729.000000
2990.877955	23954.000000
2992.124850	23728.000000
2993.368499	23516.000000
2994.613477	23790.000000
2995.855212	23801.000000
2997.099798	23909.000000
2998.342665	23791.000000
2999.582290	24120.000000
3000.824767	23606.000000
3002.064003	23899.000000
3003.304567	23859.000000
3004.543414	24282.000000
3005.782067	24135.000000
3007.019004	23929.000000
3008.257268	23882.000000
3009.493818	24322.000000
3010.730174	24252.000000
3011.966336	24128.000000
3013.200784	24131.000000
3014.435039	24215.000000
3015.669101	23948.000000
3016.901451	24202.000000
3018.132089	24393.000000
3019.365573	24530.000000
3020.597346	24226.000000
3021.827407	24470.000000
3023.057277	24968.000000
3024.285437	24515.000000
3025.514924	24628.000000
3026.742701	24921.000000
3027.970287	24872.000000
3029.199199	24540.000000
3030.423369	24842.000000
3031.650382	24786.000000
3032.874172	24855.000000
3034.099287	24686.000000
3035.322696	24701.000000
3036.545916	24817.000000
3037.767430	24846.000000
3038.991785	24764.000000
3040.211405	25024.000000
3041.432351	25025.000000
3042.653107	24937.000000
3043.872160	25029.000000
3045.092539	24897.000000
3046.309701	24912.000000
3047.528188	24717.000000
3048.744974	25243.000000
3049.961571	25175.000000
3051.177981	25359.000000
3052.391177	24867.000000
3053.607211	25071.000000
3054.820033	25048.000000
3056.035692	25154.000000
3057.246628	25300.000000
3058.458890	25040.000000
3059.670964	25094.000000
3060.882852	25190.000000
3062.093042	25282.000000
3063.303047	25402.000000
3064.512865	25461.000000
3065.720987	25633.000000
3066.928923	25274.000000
3068.135165	25361.000000
3069.342731	25700.000000
3070.548602	25659.500000
3071.754288	25619.000000
3072.959790	25725.000000
3074.163598	25455.000000
3075.368730	25830.000000
3076.572169	25894.000000
3077.773916	25786.000000
3078.975480	25651.000000
3080.176860	25932.000000
3081.378056	25932.000000
3082.577562	25741.000000
3083.776884	26028.000000
3084.977530	25610.000000
3086.176487	25501.000000
3087.372248	26028.000000
3088.570839	25823.000000
3089.766236	25642.000000
3090.962957	26006.000000
3092.156485	25605.000000
3093.352841	25917.000000
3094.547510	26004.000000
3095.738989	26070.000000
3096.934799	25811.000000
3098.125916	26041.000000
3099.318356	25799.000000
3100.507607	26195.000000
3101.699685	25769.000000
3102.890079	26052.000000
3104.077286	26193.000000
3105.265817	26188.000000
3106.455670	26256.000000
3107.642338	26107.000000
3108.828827	26282.000000
3110.015136	26285.000000
3111.202768	25832.000000
3112.387217	25867.000000
3113.569986	26074.000000
3114.755579	25868.000000
3115.939491	26071.000000
3117.121725	25999.000000
3118.303781	25734.000000
3119.485658	26090.000000
3120.667357	25944.000000
3121.847379	26112.000000
3123.025723	26294.000000
3124.206889	25964.000000
3125.384879	26003.000000
3126.562692	26067.000000
3127.740328	26180.000000
3128.916289	26080.000000
3130.092074	26374.000000
3131.269179	25874.000000
3132.444611	26478.000000
3133.618369	26125.000000
3134.790454	26744.000000
3135.963860	26428.000000
3137.137091	25911.000000
3138.308649	26248.000000
3139.481529	26503.000000
3140.651241	26337.000000
3141.822274	26796.000000
3142.991636	26924.000000
3144.159329	26612.000000
3145.329837	26854.000000
3146.495686	26807.000000
3147.665845	26327.000000
3148.831346	26550.000000
3149.996674	26361.000000
3151.161828	26465.000000
3152.326809	26472.000000
3153.493109	26538.000000
3154.654756	26164.000000
3155.817724	26269.000000
3156.980518	26195.000000
3158.143140	26316.000000
3159.304097	26058.000000
3160.464881	26024.000000
3161.625494	26047.000000
3162.784442	25870.000000
3163.943218	25661.000000
3165.101823	25817.000000
3166.260256	25661.000000
3167.418517	25778.000000
3168.575116	25900.000000
3169.730054	26157.000000
3170.886311	25631.000000
3172.040908	26065.000000
3173.195333	25898.000000
3174.348099	26110.000000
3175.500695	25965.000000
3176.653121	25878.000000
3177.805376	26087.000000
3178.957462	26287.000000
3180.106401	26422.000000
3181.258147	26699.000000
3182.408236	26332.000000
3183.556667	26494.000000
3184.704930	26500.000000
3185.853024	26503.000000
3187.000948	26698.000000
3188.147218	26654.000000
3189.293319	27152.000000
3190.437766	27098.000000
3191.582044	27038.000000
3192.726155	27163.000000
3193.871584	26842.000000
3195.013874	27208.000000
3196.155996	27164.000000
3197.297952	27507.000000
3198.439740	27200.000000
3199.581361	26929.000000
3200.719846	27287.000000
3201.859650	27198.000000
3203.000770	27356.000000
3204.138756	27290.000000
3205.275093	27181.000000
3206.411264	27404.000000
3207.548753	27320.000000
3208.684593	27322.000000
3209.821749	27544.000000
3210.954294	27449.000000
3212.091119	27669.000000
3213.223333	27228.000000
3214.356865	27512.000000
3215.490231	27362.000000
3216.620470	27249.000000
3217.753508	27393.000000
3218.883418	27249.000000
3220.014646	27004.000000
3221.142748	26772.000000
3222.273648	27023.000000
3223.402903	26785.000000
3224.530514	26947.000000
3225.655004	26755.000000
3226.783769	27220.000000
3227.909412	26970.000000
3229.034892	27065.000000
3230.158731	27034.000000
3231.285365	27010.000000
3232.407400	27455.000000
3233.530752	27223.000000
3234.653942	27101.000000
3235.776970	27259.000000
3236.898358	26978.000000
3238.019585	27038.000000
3239.139173	27190.000000
3240.258600	27031.000000
3241.376390	27348.000000
3242.496971	27415.000000
3243.614439	27370.000000
3244.731746	27713.000000
3245.848892	27782.000000
3246.964403	27598.000000
3248.081229	28060.000000
3249.194944	27965.000000
3250.311450	28655.000000
3251.426320	28365.000000
3252.538082	28270.000000
3253.649685	28326.000000
3254.762603	28455.000000
3255.875361	28342.000000
3256.985013	28557.000000
3258.095980	28679.000000
3259.206788	28190.000000
3260.315964	28464.000000
3261.423509	28666.000000
3262.532369	28251.000000
3263.641070	28626.000000
3264.746669	28491.000000
3265.853583	28335.000000
3266.958867	28327.000000
3268.065465	28930.000000
3269.168963	28431.000000
3270.273775	29026.000000
3271.378430	28534.000000
3272.479987	28458.000000
3273.581387	29165.000000
3274.684101	28888.000000
3275.786658	28903.000000
3276.886120	29092.000000
3277.988364	28813.000000
3279.087514	28773.000000
3280.185038	28906.000000
3281.282407	28838.000000
3282.382559	28980.000000
3283.479617	29025.000000
3284.576521	29209.000000
3285.673269	29022.000000
3286.765458	29099.000000
3287.861897	29067.000000
3288.956713	29095.000000
3290.051374	29639.000000
3291.144414	28691.000000
3292.237300	29166.000000
3293.328565	28948.000000
3294.421143	28850.000000
3295.512101	29262.000000
3296.601439	29006.000000
3297.690624	28809.000000
3298.781121	29259.000000
3299.868534	29015.000000
3300.955795	29194.000000
3302.044368	29083.000000
3303.132788	28925.000000
3304.216661	28888.000000
3305.304776	29072.000000
3306.389810	29485.000000
3307.473228	29558.000000
3308.557958	29529.000000
3309.641072	29483.000000
3310.725498	29550.000000
3311.806846	29293.000000
3312.889506	29463.000000
3313.970552	29167.000000
3315.051447	29680.000000
3316.130729	29770.000000
3317.209860	29691.000000
3318.290303	29878.000000
3319.367671	29546.000000
3320.446351	29715.000000
3321.523419	29929.000000
3322.600337	29976.000000
3323.675645	29619.000000
3324.750803	29700.000000
3325.827272	29888.000000
3326.900670	29945.000000
3327.973920	29752.000000
3329.048481	29700.000000
3330.121432	30000.000000
3331.192776	29847.000000
3332.265430	29755.000000
3333.335017	29601.000000
3334.405915	29650.000000
3335.475206	29623.000000
3336.545808	29612.000000
3337.614803	29680.000000
3338.682192	29753.000000
3339.747976	29674.000000
3340.817986	29844.000000
3341.884933	29799.000000
3342.948818	29694.000000
3344.015471	29643.000000
3345.080520	29793.000000
3346.143965	30039.000000
3347.207263	29720.000000
3348.270416	29670.000000
3349.333422	29414.000000
3350.396281	29353.000000
3351.457539	29886.000000
3352.515740	29549.000000
3353.578162	29677.000000
3354.637527	29526.000000
3355.696748	29821.000000
3356.757277	30056.000000
3357.813297	30037.000000
3358.872082	30159.000000
3359.926359	29621.000000
3360.983400	30099.000000
3362.038842	30466.000000
3363.095593	30087.000000
3364.150747	30190.000000
3365.204303	29989.000000
3366.256262	29966.000000
3367.310983	30330.000000
3368.362656	29782.000000
3369.414184	30076.000000
3370.467022	29967.000000
3371.516812	30356.000000
3372.567911	30137.000000
3373.615963	29940.000000
3374.666776	30554.000000
3375.714543	30490.000000
3376.762168	29940.000000
3377.809651	29913.000000
3378.855540	30468.000000
3379.902739	30074.000000
3380.946894	30009.000000
3381.993808	30381.000000
3383.039130	29927.000000
3384.081412	30129.000000
3385.123552	30469.000000
3386.167001	30393.000000
3387.210308	30149.000000
3388.252025	30154.000000
3389.293601	30741.000000
3390.335037	29913.000000
3391.374884	30191.000000
3392.413142	30463.000000
3393.452708	30371.000000
3394.492134	30359.000000
3395.529972	30355.000000
3396.566223	30616.000000
3397.602334	30280.000000
3398.639753	30524.000000
3399.674139	30686.000000
3400.709833	30134.000000
3401.745387	30508.000000
3402.777909	30519.000000
3403.813185	30468.000000
3404.845430	30396.000000
3405.877537	30747.000000
3406.908060	30707.000000
3407.939891	30572.000000
3408.971583	30425.000000
3410.000247	30588.000000
3411.028774	30712.000000
3412.058607	31120.000000
3413.088303	30627.000000
3414.114972	30803.000000
3415.142949	30593.000000
3416.167901	31074.000000
3417.195603	30639.000000
3418.220282	30912.000000
3419.246267	31100.000000
3420.270673	30979.000000
3421.294941	30788.000000
3422.317631	31252.000000
3423.340186	30487.000000
3424.364045	31158.000000
3425.384885	31140.000000
3426.405590	30172.000000
3427.427600	30681.000000
3428.446592	30176.000000
3429.465449	30486.000000
3430.485612	30258.000000
3431.502757	30805.000000
