-118.702670	7.800000
-116.033069	12.200000
-113.366404	11.600000
-110.700491	4.000000
-108.037511	-7.800000
-105.373100	17.800000
-102.711620	12.400000
-100.048711	11.400000
-97.390908	14.200000
-94.731676	-0.400000
-92.073192	27.200000
-89.417633	0.800000
-86.760644	29.400000
-84.108754	11.600000
-81.455434	13.400000
-78.805033	17.600000
-76.153204	-0.600000
-73.506465	8.800000
-70.858296	4.800000
-68.210870	8.400000
-65.566359	17.600000
-62.920418	1.800000
-60.279559	-1.600000
-57.637271	9.200000
-54.997892	-3.200000
-52.357084	3.600000
-49.717015	15.600000
-47.082020	14.800000
-44.445595	14.000000
-41.812073	5.400000
-39.177123	51.200000
-36.547239	15.400000
-33.913761	17.000000
-31.285346	-6.400000
-28.657665	26.600000
-26.028555	24.600000
-23.404503	27.400000
-20.776860	16.800000
-18.154272	30.200000
-15.532414	41.600000
-12.911287	61.600000
-10.290891	155.600000
-7.673382	556.400000
-5.054445	2245.600000
-2.438394	5637.600000
0.176930	8955.000000
2.791525	5234.600000
5.403239	926.200000
8.016381	80.800000
10.624489	42.200000
13.236178	34.800000
15.842837	5.200000
18.450925	35.600000
21.058287	17.200000
23.660625	12.800000
26.266542	11.800000
28.867436	17.600000
31.469758	-1.000000
34.067062	20.200000
36.667943	-2.400000
39.263808	17.600000
41.861101	-10.000000
44.457675	0.800000
47.049240	11.200000
49.642234	44.000000
52.232366	-7.400000
54.823925	16.000000
57.412626	4.000000
60.002753	9.400000
62.587881	12.800000
65.174437	6.200000
67.760278	15.400000
70.343266	15.800000
72.927681	12.200000
75.504967	3.400000
78.085818	3.000000
80.663822	9.600000
83.241114	-26.800000
85.819834	-1.200000
88.393571	2.000000
90.968735	10.400000
93.541056	25.000000
96.112670	11.000000
98.681443	-8.800000
101.251643	16.800000
103.819004	-3.400000
106.387792	-22.800000
108.953743	-13.200000
111.516859	5.200000
114.083531	4.200000
116.640981	-5.200000
119.204117	21.800000
121.762294	13.000000
124.324025	4.200000
126.880799	28.600000
129.438999	12.200000
131.992247	40.000000
134.544797	69.800000
137.100897	69.400000
139.652049	84.400000
142.202504	91.800000
144.752261	84.600000
147.299199	93.600000
149.845442	101.200000
152.393110	89.800000
154.940082	95.800000
157.482118	103.800000
160.023462	111.800000
162.564112	116.800000
165.106187	113.800000
167.645452	127.400000
170.181907	132.000000
172.717672	124.800000
175.254862	123.600000
177.791361	103.200000
180.325054	124.000000
182.855943	126.000000
185.386144	112.200000
187.917771	139.800000
190.446596	97.400000
192.972622	130.000000
195.497962	118.200000
198.024727	106.400000
200.548696	96.200000
203.071979	107.200000
205.594578	116.800000
208.114384	106.400000
210.633507	113.600000
213.151947	99.800000
215.671812	119.000000
218.184674	101.400000
220.701068	101.400000
223.216781	104.000000
225.727603	92.600000
228.239850	118.600000
230.749314	141.200000
233.258100	141.600000
235.766208	96.200000
238.275740	130.000000
240.780391	103.600000
243.284366	136.600000
245.789765	102.800000
248.290289	116.200000
250.794336	117.800000
253.291413	117.400000
255.792012	137.200000
258.289840	143.800000
260.786995	109.000000
263.283478	97.400000
265.775097	102.600000
268.270236	117.800000
270.762608	119.600000
273.254310	163.000000
275.743249	110.600000
278.233611	144.600000
280.721212	123.400000
283.206053	134.000000
285.694409	128.600000
288.175825	131.800000
290.660755	134.200000
293.140839	127.600000
295.624436	123.800000
298.103191	160.000000
300.583368	117.400000
303.060794	121.800000
305.537556	128.200000
308.013654	170.200000
310.487004	131.200000
312.959693	176.400000
315.431720	155.400000
317.903085	168.600000
320.371707	141.800000
322.839669	193.600000
325.309054	174.000000
327.773616	164.800000
330.241682	110.200000
332.704927	154.600000
335.167516	113.000000
337.629448	132.600000
340.090723	124.200000
342.549263	135.200000
345.009226	155.200000
347.466457	175.800000
349.923033	132.600000
352.378955	131.000000
354.832147	136.800000
357.286762	143.200000
359.736575	130.000000
362.189884	138.400000
364.638394	149.200000
367.086254	138.600000
369.535536	147.400000
371.980023	131.000000
374.425933	132.000000
376.871194	135.800000
379.313736	130.400000
381.755630	149.800000
384.196876	130.800000
386.635408	141.000000
389.075360	119.200000
391.512599	156.800000
393.947127	135.000000
396.385141	161.800000
398.818380	122.400000
401.253039	161.200000
403.682926	120.000000
406.116298	123.400000
408.544900	124.800000
410.972860	120.200000
413.402241	157.200000
415.826858	133.200000
418.252895	126.200000
420.678293	154.200000
423.103050	128.000000
425.523048	140.200000
427.944468	129.600000
430.363192	153.200000
432.783335	133.200000
435.200784	141.000000
437.619654	151.200000
440.035829	146.600000
442.447258	138.400000
444.862163	147.600000
447.274378	160.200000
449.685960	145.000000
452.096907	131.000000
454.505167	145.800000
456.912796	149.200000
459.319792	135.400000
461.726157	137.400000
464.129839	149.000000
466.532891	142.400000
468.935313	144.000000
471.337105	114.600000
473.736219	156.200000
476.136753	115.400000
478.536658	146.000000
480.931841	113.200000
483.330489	140.800000
485.724418	137.600000
488.117721	138.200000
490.510399	123.800000
492.902451	135.800000
495.295921	140.000000
497.684679	113.600000
500.070771	133.800000
502.458283	111.000000
504.845172	95.600000
507.229396	108.000000
509.615040	89.200000
511.998022	116.000000
514.378342	93.400000
516.760083	86.200000
519.139164	103.200000
521.519663	116.200000
523.897506	73.800000
526.272692	74.200000
528.647261	73.200000
531.023249	95.800000
533.396584	113.200000
535.771336	75.800000
538.141402	64.200000
540.510854	59.800000
542.881723	62.400000
545.247911	72.200000
547.615518	93.600000
549.980479	83.800000
552.344828	81.400000
554.708563	91.000000
557.073716	55.800000
559.434197	85.400000
561.796095	77.600000
564.155354	68.000000
566.511974	78.800000
568.872040	86.200000
571.225414	74.200000
573.582233	96.800000
575.936417	65.800000
578.289992	75.800000
580.642960	61.600000
582.993295	80.800000
585.345048	50.400000
587.690124	79.400000
590.040663	61.000000
592.384530	91.000000
594.733858	53.200000
597.078537	93.600000
599.420592	58.400000
601.764064	77.800000
604.104913	49.400000
606.445159	53.800000
608.782785	50.600000
611.123846	71.200000
613.460270	85.200000
615.798110	77.800000
618.133333	46.800000
620.465939	91.400000
622.799963	67.200000
625.131372	80.000000
627.462183	58.200000
629.792396	53.600000
632.122012	44.200000
634.447004	91.000000
636.777438	61.200000
639.103251	79.400000
641.426456	62.800000
643.751078	55.800000
646.073094	63.200000
648.394516	65.800000
650.713335	52.800000
653.033571	74.200000
655.353212	45.200000
657.670254	70.600000
659.986703	70.600000
662.300554	88.200000
664.615821	59.200000
666.928491	69.600000
669.242576	55.000000
671.552061	59.800000
673.862962	42.000000
676.171270	70.800000
678.478989	55.000000
680.788124	62.400000
683.092666	70.000000
685.396622	62.000000
687.699991	31.800000
690.004776	53.200000
692.304973	82.000000
694.606586	62.200000
696.907613	73.600000
699.204059	93.400000
701.501920	57.200000
703.799197	34.600000
706.095891	72.800000
708.388009	83.400000
710.683538	64.200000
712.974493	58.200000
715.266863	43.600000
717.556657	67.000000
719.845872	43.800000
722.134507	61.400000
724.420569	67.800000
726.708045	59.800000
728.992951	68.600000
731.277279	60.800000
733.559038	67.400000
735.842211	75.000000
738.124807	38.000000
740.402847	61.200000
742.682301	71.800000
744.961180	86.800000
747.239484	22.200000
749.513237	61.800000
751.788405	70.400000
754.062999	69.400000
756.335034	42.800000
758.608482	69.800000
760.879372	61.000000
763.147706	81.400000
765.417453	90.800000
767.684645	72.800000
769.951268	45.800000
772.217320	54.600000
774.480821	77.800000
776.745734	82.800000
779.010079	54.200000
781.269893	92.600000
783.531121	62.200000
785.791781	84.000000
788.049895	70.600000
790.305464	91.000000
792.564423	77.000000
794.816884	79.600000
797.074712	72.000000
799.328021	86.800000
801.578790	69.800000
803.830971	110.400000
806.080613	64.800000
808.331667	84.200000
810.578210	83.000000
812.826166	57.400000
815.071586	70.400000
817.318419	70.200000
819.564689	62.200000
821.806456	96.200000
824.051605	60.800000
826.290283	66.200000
828.532342	76.200000
830.769903	67.600000
833.008876	47.200000
835.245322	79.400000
837.483179	40.600000
839.718511	24.000000
841.951320	64.800000
844.185539	65.400000
846.417237	54.800000
848.648380	75.400000
850.878968	63.600000
853.109002	39.200000
855.338481	54.200000
857.563480	64.400000
859.791852	59.600000
862.015746	60.600000
864.241051	45.600000
866.461880	43.600000
868.686081	63.400000
870.905809	49.000000
873.126947	55.200000
875.347535	51.600000
877.565614	51.000000
879.785102	69.200000
882.000124	49.600000
884.214598	81.600000
886.428525	51.200000
888.641904	59.600000
890.854737	68.400000
893.067022	64.000000
895.276806	88.600000
897.486044	67.000000
899.694737	74.400000
901.900930	72.800000
904.108533	55.800000
906.313639	57.200000
908.518201	98.200000
910.720268	89.200000
912.923744	49.800000
915.124726	60.000000
917.325166	71.400000
919.527015	74.600000
921.722473	50.600000
923.921289	66.600000
926.115668	84.200000
928.313404	77.200000
930.506704	59.400000
932.701413	56.200000
934.893635	71.800000
937.085320	66.000000
939.276467	61.000000
941.465131	59.600000
943.653259	78.400000
945.838905	56.600000
948.027905	63.000000
950.212480	76.600000
952.396521	63.800000
954.583913	80.000000
956.763000	92.800000
958.945438	69.400000
961.127342	74.800000
963.306771	88.200000
965.483728	83.600000
967.662093	87.600000
969.841865	69.200000
972.015288	71.200000
974.192057	90.600000
976.364419	73.000000
978.538189	77.400000
980.707555	78.000000
982.880265	66.400000
985.050510	73.800000
987.220225	83.000000
989.389412	89.800000
991.554202	87.000000
993.722334	88.800000
995.886070	69.200000
998.051214	88.600000
1000.213898	97.000000
1002.376057	70.200000
1004.535759	104.800000
1006.694936	103.200000
1008.855520	81.800000
1011.013649	92.200000
1013.171255	84.000000
1015.328337	122.400000
1017.484895	72.800000
1019.637074	107.200000
1021.790660	99.200000
1023.943724	104.200000
1026.094339	87.600000
1028.246360	110.600000
1030.394009	91.600000
1032.544989	90.800000
1034.691598	76.800000
1036.837688	97.400000
1038.983260	107.800000
1041.130237	121.000000
1043.270925	100.000000
1045.414942	82.000000
1047.556520	94.800000
1049.697580	91.400000
1051.840046	74.400000
1053.976231	95.000000
1056.115743	106.600000
1058.250899	99.800000
1060.389380	105.000000
1062.523508	103.400000
1064.657122	112.000000
1066.792140	115.600000
1068.922810	99.000000
1071.054884	91.000000
1073.184528	100.200000
1075.313661	95.400000
1077.442283	102.800000
1079.570393	116.400000
1081.696077	99.600000
1083.821251	88.600000
1085.947829	124.000000
1088.070069	89.400000
1090.193714	91.200000
1092.313024	94.600000
1094.437563	102.400000
1096.555858	84.200000
1098.675556	68.200000
1100.792837	77.000000
1102.909610	81.800000
1105.025877	77.800000
1107.139729	86.600000
1109.254984	78.800000
1111.365917	71.200000
1113.480162	63.400000
1115.590086	82.600000
1117.701413	101.000000
1119.812237	72.400000
1121.918744	77.200000
1124.028560	70.000000
1126.134062	57.400000
1128.240968	95.600000
1130.341658	62.200000
1132.447560	69.400000
1134.549153	83.000000
1136.652148	65.200000
1138.754644	70.600000
1140.850932	63.200000
1142.952427	88.200000
1145.049620	60.200000
1147.146314	65.000000
1149.242511	67.000000
1151.338209	56.000000
1153.433410	71.400000
1155.526214	57.800000
1157.620420	71.600000
1159.708435	63.600000
1161.801648	74.000000
1163.888674	89.000000
1165.978998	57.200000
1168.065034	81.000000
1170.154368	38.400000
1172.237521	52.600000
1174.322077	57.400000
1176.408034	71.400000
1178.489709	51.400000
1180.572785	56.600000
1182.653476	55.200000
1184.733676	72.400000
1186.813384	66.400000
1188.892601	73.400000
1190.969435	69.400000
1193.043889	77.000000
1195.121635	52.600000
1197.195110	56.200000
1199.269987	88.200000
1201.340596	84.000000
1203.412606	88.200000
1205.482240	71.800000
1207.553275	61.600000
1209.623822	60.200000
1211.690109	82.600000
1213.757796	64.600000
1215.823110	75.200000
1217.889825	53.800000
1219.952284	82.600000
1222.018029	43.800000
1224.079519	58.200000
1226.142410	59.600000
1228.202932	61.200000
1230.262972	51.800000
1232.322528	56.000000
1234.379720	82.200000
1236.436429	77.200000
1238.490776	59.800000
1240.548403	58.600000
1242.603668	44.800000
1244.654693	57.800000
1246.707117	42.200000
1248.759061	59.800000
1250.808647	68.800000
1252.857754	80.600000
1254.906382	62.000000
1256.954532	63.400000
1259.002204	80.200000
1261.045645	55.200000
1263.092362	32.800000
1265.136725	59.000000
1267.180611	69.800000
1269.222147	61.800000
1271.261333	85.400000
1273.303792	55.200000
1275.342028	54.000000
1277.381663	72.200000
1279.420822	65.000000
1281.455764	65.600000
1283.492104	60.200000
1285.526100	69.800000
1287.561493	79.600000
1289.592673	62.600000
1291.625252	67.600000
1293.657359	53.200000
1295.687125	69.800000
1297.718288	37.800000
1299.745244	69.000000
1301.773599	55.600000
1303.797748	74.800000
1305.825163	70.200000
1307.848375	65.800000
1309.872985	71.000000
1311.895260	31.000000
1313.918933	63.600000
1315.940273	66.000000
1317.961146	52.000000
1319.981551	45.000000
1321.997763	36.600000
1324.015372	53.000000
1326.030653	34.600000
1328.049193	46.000000
1330.063543	67.400000
1332.075568	64.000000
1334.090851	45.000000
1336.101948	51.400000
1338.114441	56.200000
1340.122752	64.000000
1342.134319	51.600000
1344.139847	61.000000
1346.148630	37.200000
1348.153235	60.200000
1350.161094	24.600000
1352.168491	81.800000
1354.169857	40.800000
1356.172619	72.000000
1358.174922	56.400000
1360.176765	66.200000
1362.178148	46.800000
1364.177217	64.600000
1366.175828	53.200000
1368.173981	60.600000
1370.171676	59.000000
1372.165208	50.600000
1374.160135	42.600000
1376.154606	49.800000
1378.148620	56.000000
1380.140327	83.200000
1382.131578	76.400000
1384.120524	61.800000
1386.110865	66.400000
1388.100752	50.000000
1390.088334	39.000000
1392.075463	43.000000
1394.060290	73.800000
1396.046512	39.800000
1398.030433	29.200000
1400.013902	50.600000
1401.996919	60.400000
1403.977638	67.400000
1405.959751	71.000000
1407.939567	64.200000
1409.918933	68.400000
1411.894160	50.600000
1413.872625	46.200000
1415.848797	55.000000
1417.824519	28.600000
1419.799792	78.400000
1421.772775	67.200000
1423.745309	75.400000
1425.717395	38.000000
1427.689034	61.400000
1429.656544	81.400000
1431.629128	66.800000
1433.593906	59.400000
1435.563757	55.000000
1437.529483	50.800000
1439.496603	82.800000
1441.461439	61.200000
1443.422155	62.400000
1445.387939	49.200000
1447.347768	45.000000
1449.308991	43.000000
1451.271605	60.200000
1453.230105	68.000000
1455.188163	99.600000
1457.145779	56.200000
1459.102952	82.200000
1461.057850	69.000000
1463.014141	75.400000
1464.968157	23.200000
1466.921732	51.200000
1468.873035	62.200000
1470.825730	71.800000
1472.776154	73.400000
1474.726139	61.600000
1476.675685	55.800000
1478.622962	63.600000
1480.567971	67.400000
1482.514373	75.000000
1484.460337	57.600000
1486.405864	52.800000
1488.349125	72.200000
1490.291950	72.600000
1492.232512	59.200000
1494.174466	53.000000
1496.114157	46.800000
1498.053413	77.400000
1499.992235	65.400000
1501.928797	52.200000
1503.866750	72.800000
1505.802444	77.600000
1507.737705	58.000000
1509.670709	48.600000
1511.603281	84.200000
1513.535421	80.600000
1515.467129	76.800000
1517.396584	67.000000
1519.327429	41.800000
1521.257842	46.200000
1523.184183	50.400000
1525.111914	80.400000
1527.037396	76.200000
1528.962448	59.400000
1530.887070	79.800000
1532.811264	56.600000
1534.733211	59.400000
1536.656548	84.800000
1538.577638	76.000000
1540.496484	78.600000
1542.416720	54.600000
1544.334712	92.600000
1546.252278	66.800000
1548.167603	95.000000
1550.084317	86.800000
1551.996975	87.400000
1553.912838	103.600000
1555.826462	116.600000
1557.737847	92.800000
1559.650622	116.800000
1561.559347	109.400000
1563.469461	127.400000
1565.379152	159.600000
1567.288420	163.800000
1569.195453	199.000000
1571.100254	223.000000
1573.006444	267.200000
1574.910403	358.800000
1576.813940	442.200000
1578.717057	471.000000
1580.617944	465.600000
1582.520220	431.200000
1584.420267	352.400000
1586.321703	298.200000
1588.219104	244.400000
1590.116088	174.000000
1592.012653	156.800000
1593.910605	136.600000
1595.802723	123.600000
1597.698035	103.000000
1599.592928	113.200000
1601.485601	92.800000
1603.377856	71.800000
1605.267892	92.200000
1607.157512	81.400000
1609.046717	92.400000
1610.935506	76.200000
1612.822079	115.400000
1614.710039	77.200000
1616.593982	71.000000
1618.479312	78.600000
1620.364229	95.800000
1622.246932	90.200000
1624.131022	88.600000
1626.011100	62.000000
1627.892566	73.400000
1629.771820	81.800000
1631.652462	99.600000
1633.527299	92.000000
1635.407117	71.400000
1637.282930	55.000000
1639.158334	83.800000
1641.035123	84.800000
1642.906115	61.600000
1644.780290	78.200000
1646.650465	70.200000
1648.523821	53.600000
1650.394974	87.000000
1652.263925	55.800000
1654.134262	73.600000
1656.000606	67.800000
1657.868335	59.200000
1659.733865	39.800000
1661.600781	68.600000
1663.463707	55.400000
1665.328020	52.000000
1667.190136	66.000000
1669.051847	95.600000
1670.914943	39.000000
1672.775845	74.800000
1674.634554	47.600000
1676.492859	60.400000
1678.352548	76.000000
1680.206471	79.400000
1682.063567	42.000000
1683.920259	67.000000
1685.772976	31.400000
1687.628864	64.200000
1689.480778	62.600000
1691.332291	58.400000
1693.183403	65.400000
1695.034114	64.000000
1696.884425	43.400000
1698.732552	35.000000
1700.582063	51.200000
1702.425824	52.400000
1704.274536	62.800000
1706.117501	65.400000
1707.963632	60.800000
1709.805802	53.800000
1711.651137	47.600000
1713.490730	66.000000
1715.331709	74.200000
1717.174070	62.600000
1719.012474	56.200000
1720.852262	70.200000
1722.689875	57.400000
1724.527093	44.600000
1726.362137	85.800000
1728.198564	49.000000
1730.032818	70.200000
1731.866679	68.600000
1733.700145	84.600000
1735.529665	62.600000
1737.362345	65.200000
1739.191079	61.600000
1741.022972	62.200000
1742.850922	50.200000
1744.678480	65.600000
1746.505647	57.400000
1748.332422	77.800000
1750.158805	68.600000
1751.981252	68.400000
1753.806854	104.000000
1755.628520	53.800000
1757.451569	69.800000
1759.272457	44.800000
1761.092955	85.200000
1762.914835	58.600000
1764.731015	65.600000
1766.550347	79.000000
1768.365752	63.200000
1770.184308	50.600000
1771.998938	50.000000
1773.813181	57.000000
1775.627038	57.600000
1777.440508	74.400000
1779.251824	50.200000
1781.064522	62.200000
1782.876834	65.400000
1784.685227	57.400000
1786.495002	69.600000
1788.300861	40.200000
1790.109867	81.000000
1791.914959	58.800000
1793.721432	53.000000
1795.527520	47.400000
1797.329699	53.400000
1799.135021	52.600000
1800.936435	64.200000
1802.739230	78.600000
1804.538118	64.000000
1806.338387	59.200000
1808.138274	68.200000
1809.936019	46.000000
1811.733384	76.200000
1813.530368	54.000000
1815.326972	64.200000
1817.121437	46.600000
1818.917282	70.400000
1820.707471	53.600000
1822.502557	54.200000
1824.291990	68.600000
1826.084561	64.600000
1827.874996	52.600000
1829.663296	42.800000
1831.454732	76.600000
1833.240523	86.000000
1835.027692	44.600000
1836.812731	57.400000
1838.600902	19.400000
1840.385188	63.200000
1842.167345	81.400000
1843.950881	64.200000
1845.732288	54.800000
1847.515073	63.600000
1849.293979	32.600000
1851.074263	58.600000
1852.852422	42.800000
1854.631958	70.200000
1856.409370	76.600000
1858.184659	75.600000
1859.961325	70.000000
1861.735869	43.600000
1863.511790	38.800000
1865.282092	45.800000
1867.055521	45.400000
1868.826830	61.800000
1870.597768	75.000000
1872.370084	70.200000
1874.136786	74.400000
1875.906613	78.800000
1877.672577	61.200000
1879.441665	67.800000
1881.206891	55.000000
1882.971749	72.400000
1884.737983	88.600000
1886.500359	44.600000
1888.262368	46.200000
1890.024010	51.400000
1891.785284	38.200000
1893.546192	36.400000
1895.306732	57.400000
1897.065164	54.400000
1898.823229	58.400000
1900.579187	42.600000
1902.336521	59.800000
1904.093490	67.000000
1905.848352	62.400000
1907.601109	59.000000
1909.353503	55.800000
1911.107273	59.600000
1912.858939	38.000000
1914.608502	70.600000
1916.359442	54.400000
1918.110018	47.800000
1919.856756	61.600000
1921.604869	49.600000
1923.350883	66.200000
1925.098273	69.600000
1926.843564	81.200000
1928.586758	72.400000
1930.331328	41.000000
1932.073801	63.000000
1933.815914	69.400000
1935.557668	73.000000
1937.299061	44.600000
1939.038361	56.800000
1940.777302	53.600000
1942.515884	36.200000
1944.252375	53.600000
1945.988507	46.500000
1947.726015	39.400000
1949.459700	58.400000
1951.194760	66.000000
1952.927731	50.400000
1954.660346	53.800000
1956.392604	65.400000
1958.124506	67.600000
1959.854323	65.600000
1961.582054	55.800000
1963.311160	75.600000
1965.039910	82.600000
1966.766577	40.600000
1968.492890	26.400000
1970.220577	76.600000
1971.942727	59.600000
1973.667978	77.600000
1975.389422	73.400000
1977.113966	41.400000
1978.836431	51.200000
1980.555092	53.200000
1982.276852	67.400000
1983.994811	74.000000
1985.714142	65.400000
1987.429674	57.600000
1989.150026	70.600000
1990.866580	66.600000
1992.579337	62.800000
1994.295190	52.600000
1996.008971	43.800000
1997.722402	78.200000
1999.433762	59.400000
2001.146494	74.000000
2002.855435	50.400000
2004.567470	68.000000
2006.273995	81.800000
2007.983613	49.200000
2009.691163	71.200000
2011.398366	20.400000
2013.103503	70.600000
2014.808293	61.800000
2016.514456	46.600000
2018.216835	73.000000
2019.920587	64.200000
2021.622276	74.800000
2023.323619	72.400000
2025.024618	59.000000
2026.723555	64.000000
2028.423864	44.800000
2030.120397	58.200000
2031.818302	82.400000
2033.514149	79.800000
2035.213081	60.600000
2036.906527	63.400000
2038.601344	76.600000
2040.295818	46.400000
2041.986525	66.200000
2043.680314	49.600000
2045.370338	48.800000
2047.061731	59.400000
2048.751072	65.000000
2050.441784	47.200000
2052.128732	38.600000
2053.815340	71.600000
2055.503319	56.000000
2057.187538	54.200000
2058.873127	55.800000
2060.558377	47.200000
2062.241579	52.400000
2063.926151	45.400000
2065.605259	76.400000
2067.289154	81.400000
2068.967587	75.600000
2070.649098	59.600000
2072.326857	42.000000
2074.004280	61.600000
2075.683072	56.000000
2077.359821	49.200000
2079.034529	42.800000
2080.710607	38.000000
2082.384643	56.400000
2084.058345	59.000000
2085.731711	59.000000
2087.403038	61.000000
2089.074031	70.800000
2090.744690	49.600000
2092.415015	88.400000
2094.085006	37.000000
2095.752960	74.600000
2097.420582	74.600000
2099.086170	73.000000
2100.753126	37.800000
2102.418049	54.000000
2104.082640	53.200000
2105.745199	48.200000
2107.409126	73.000000
2109.071022	68.600000
2110.732587	58.200000
2112.393822	66.000000
2114.053027	55.800000
2115.711903	72.800000
2117.370448	49.400000
2119.028664	61.600000
2120.683157	74.400000
2122.340714	73.800000
2123.997941	52.400000
2125.651448	51.800000
2127.306322	51.600000
2128.957477	64.600000
2130.611695	56.400000
2132.262195	78.200000
2133.914063	54.800000
2135.560522	61.600000
2137.211735	54.200000
2138.859236	44.200000
2140.508103	51.600000
2142.154951	58.800000
2143.801474	14.000000
2145.447671	73.000000
2147.090159	41.400000
2148.735706	71.400000
2150.377546	64.600000
2152.022443	62.600000
2153.663635	48.400000
2155.304503	66.200000
2156.945048	32.200000
2158.583580	81.200000
2160.223478	43.800000
2161.859676	72.600000
2163.497240	74.400000
2165.134482	56.600000
2166.769714	60.000000
2168.404624	41.400000
2170.039213	60.000000
2171.673481	84.400000
2173.304055	56.200000
2174.937681	68.200000
2176.567614	51.800000
2178.198914	63.000000
2179.828208	60.800000
2181.457183	57.800000
2183.085838	54.800000
2184.714174	75.400000
2186.340507	44.200000
2187.966522	49.200000
2189.590536	58.800000
2191.215915	102.800000
2192.839293	60.200000
2194.464036	44.800000
2196.085098	68.600000
2197.705843	44.000000
2199.327952	65.000000
2200.948064	60.400000
2202.566180	72.000000
2204.183980	69.800000
2205.801464	68.800000
2207.418634	35.600000
2209.035487	68.200000
2210.652026	51.800000
2212.266571	48.400000
2213.879125	63.600000
2215.493042	60.400000
2217.104968	45.200000
2218.718257	38.000000
2220.329555	83.400000
2221.938865	72.600000
2223.549537	60.800000
2225.158221	37.600000
2226.766593	48.600000
2228.372978	80.000000
2229.980725	62.400000
2231.586487	53.600000
2233.191937	53.800000
2234.795402	71.600000
2236.400230	55.800000
2238.003074	58.200000
2239.603935	54.800000
2241.206159	57.400000
2242.806401	39.600000
2244.408005	54.200000
2246.005956	49.800000
2247.605270	45.400000
2249.202604	51.400000
2250.799630	56.000000
2252.398017	58.800000
2253.992757	54.600000
2255.585519	67.400000
2257.179644	55.600000
2258.775130	43.200000
2260.366971	38.000000
2261.958506	32.800000
2263.551402	50.600000
2265.138990	57.200000
2266.731273	57.200000
2268.318249	43.000000
2269.908254	33.000000
2271.492954	70.200000
2273.082348	35.400000
2274.666439	56.400000
2276.251892	35.400000
2277.835376	37.800000
2279.421885	46.000000
2281.004761	36.400000
2282.587334	54.800000
2284.169603	70.000000
2285.748242	23.200000
2287.329906	43.000000
2288.907941	71.800000
2290.488999	56.200000
2292.066430	76.600000
2293.641898	97.000000
2295.220388	62.000000
2296.795254	56.800000
2298.369819	55.200000
2299.944083	51.600000
2301.518047	69.000000
2303.091711	61.600000
2304.665075	73.600000
2306.234820	45.000000
2307.804266	46.600000
2309.376730	54.200000
2310.943920	73.400000
2312.514127	50.400000
2314.080721	37.000000
2315.648673	73.400000
2317.214671	44.400000
2318.780371	46.400000
2320.345773	56.200000
2321.909222	63.000000
2323.474030	40.000000
2325.035229	66.200000
2326.599443	42.200000
2328.158396	72.000000
2329.720362	85.600000
2331.280378	73.800000
2332.840098	58.400000
2334.397870	60.000000
2335.955346	67.600000
2337.512528	62.800000
2339.067762	59.800000
2340.622702	50.800000
2342.177349	54.400000
2343.731702	44.200000
2345.285761	64.600000
2346.839527	60.200000
2348.391348	63.800000
2349.941226	61.600000
2351.494113	64.200000
2353.041756	63.000000
2354.592407	50.200000
2356.139468	62.600000
2357.687886	55.000000
2359.236013	82.000000
2360.780551	43.000000
2362.326447	56.000000
2363.870404	55.600000
2365.415719	58.400000
2366.957449	41.400000
2368.500537	53.200000
2370.041688	40.400000
2371.582550	36.800000
2373.123123	40.800000
2374.663407	31.200000
2376.203402	41.400000
2377.739818	55.200000
2379.279236	36.800000
2380.815077	67.000000
2382.352275	28.600000
2383.885897	70.200000
2385.422519	67.800000
2386.957211	38.400000
2388.489972	43.600000
2390.022448	40.800000
2391.552995	65.800000
2393.086540	63.400000
2394.614874	35.800000
2396.144564	70.600000
2397.673969	42.600000
2399.203089	73.000000
2400.731923	45.600000
2402.255553	62.400000
2403.783818	63.000000
2405.306880	57.000000
2406.834577	44.600000
2408.355434	70.800000
2409.880923	42.000000
2411.402853	46.400000
2412.926137	33.800000
2414.447501	60.000000
2415.966945	37.600000
2417.487744	65.000000
2419.006624	65.800000
2420.525223	76.200000
2422.041903	60.400000
2423.559939	70.200000
2425.077693	40.000000
2426.591895	60.200000
2428.105818	54.800000
2429.619460	56.400000
2431.134456	72.600000
2432.645905	70.800000
2434.158707	50.000000
2435.669597	62.200000
2437.180208	69.000000
2438.688907	91.400000
2440.200592	59.600000
2441.708734	67.000000
2443.216598	46.800000
2444.724183	77.400000
2446.228229	49.600000
2447.735259	60.000000
2449.240381	63.800000
2450.745226	68.800000
2452.248164	55.600000
2453.750825	65.400000
2455.253211	71.600000
2456.753690	77.200000
2458.255524	55.200000
2459.755452	64.200000
2461.255105	63.600000
2462.754483	44.800000
2464.251958	63.000000
2465.747531	70.000000
2467.246084	50.600000
2468.741109	59.600000
2470.237486	77.600000
2471.730337	62.600000
2473.224541	76.000000
2474.718471	54.800000
2476.208877	56.400000
2477.702261	47.400000
2479.193747	51.200000
2480.683336	55.600000
2482.172653	43.000000
2483.660074	65.600000
2485.150471	52.200000
2486.637350	55.600000
2488.125580	51.800000
2489.610293	28.400000
2491.094736	57.200000
2492.580531	62.200000
2494.064434	53.000000
2495.549687	42.400000
2497.029807	62.600000
2498.512899	71.200000
2499.994102	82.400000
2501.475035	81.800000
2502.954078	59.800000
2504.432854	60.000000
2505.911361	58.600000
2507.389599	59.600000
2508.867570	64.800000
2510.342035	59.400000
2511.819470	45.800000
2513.293400	60.400000
2514.768682	52.200000
2516.243696	62.400000
2517.715209	68.800000
2519.188073	82.200000
2520.659054	58.800000
2522.131385	58.200000
2523.598602	93.400000
2525.068786	49.600000
2526.537089	48.800000
2528.005126	74.000000
2529.472899	50.600000
2530.940407	53.000000
2532.407651	52.600000
2533.871402	43.600000
2535.336503	40.400000
2536.799727	65.600000
2538.264300	61.400000
2539.725385	57.000000
2541.187819	49.000000
2542.649990	82.800000
2544.108674	57.600000
2545.571931	51.200000
2547.030091	62.600000
2548.489601	54.600000
2549.944016	35.000000
2551.403002	66.400000
2552.860116	58.200000
2554.315358	31.800000
2555.770340	73.000000
2557.223452	52.800000
2558.677913	68.800000
2560.130505	61.800000
2561.582837	63.200000
2563.033301	42.600000
2564.486722	61.200000
2565.935060	67.400000
2567.386353	58.800000
2568.835780	68.200000
2570.281736	68.000000
2571.730646	62.600000
2573.176085	68.000000
2574.622873	72.200000
2576.067797	38.800000
2577.512464	50.600000
2578.958478	87.600000
2580.401025	44.200000
2581.844920	48.400000
2583.285350	79.800000
2584.727128	72.200000
2586.167046	59.200000
2587.608311	60.800000
2589.046114	52.200000
2590.486867	54.800000
2591.922558	60.000000
2593.361197	48.600000
2594.797980	59.800000
2596.232907	26.000000
2597.670781	33.000000
2599.103598	54.800000
2600.537762	61.800000
2601.970071	78.000000
2603.403728	57.800000
2604.835530	51.600000
2606.267080	75.000000
2607.698376	42.800000
2609.127821	68.600000
2610.557013	61.600000
2611.984354	73.000000
2613.413042	66.400000
2614.841477	41.400000
2616.266466	79.400000
2617.692800	66.000000
2619.117287	62.000000
2620.543118	59.600000
2621.965507	55.800000
2623.389240	84.400000
2624.811128	61.000000
2626.232765	71.400000
2627.652558	46.600000
2629.073696	76.000000
2630.494584	52.000000
2631.912033	55.800000
2633.332422	70.800000
2634.749374	60.600000
2636.166078	66.800000
2637.582533	82.200000
2638.998740	55.200000
2640.414699	48.200000
2641.828817	66.400000
2643.242687	90.200000
2644.654718	71.200000
2646.068094	86.600000
2647.478040	89.800000
2648.890922	66.400000
2650.300375	63.200000
2651.709582	89.000000
2653.116953	92.800000
2654.527258	81.600000
2655.935727	86.000000
2657.342362	80.400000
2658.748750	78.800000
2660.153306	83.400000
2661.559205	75.600000
2662.963270	101.200000
2664.367092	116.200000
2665.770669	107.800000
2667.172415	84.400000
2668.575504	104.600000
2669.975175	103.600000
2671.376190	105.000000
2672.773789	82.800000
2674.174317	113.800000
2675.571431	95.600000
2676.969888	119.000000
2678.366517	81.800000
2679.762905	127.600000
2681.159050	111.200000
2682.553369	112.000000
2683.949031	107.400000
2685.341284	111.600000
2686.734879	94.800000
2688.126650	121.600000
2689.519764	98.200000
2690.911053	139.400000
2692.300521	108.600000
2693.689748	129.200000
2695.078735	97.400000
2696.469065	118.200000
2697.854411	111.800000
2699.242680	134.000000
2700.629129	126.800000
2702.015339	141.800000
2703.401310	114.800000
2704.783883	127.800000
2706.167798	148.400000
2707.551474	148.600000
2708.934913	134.600000
2710.314956	168.800000
2711.696341	169.200000
2713.075910	183.400000
2714.456821	166.000000
2715.835917	146.800000
2717.213199	163.000000
2718.591822	177.400000
2719.968631	160.000000
2721.345205	160.600000
2722.721543	138.800000
2724.096069	143.400000
2725.471936	133.400000
2726.844416	148.800000
2728.219813	138.000000
2729.590249	121.800000
2730.962025	102.000000
2732.333568	104.000000
2733.703302	73.000000
2735.074376	123.400000
2736.443643	84.800000
2737.812676	111.800000
2739.179903	115.800000
2740.546896	84.400000
2741.913657	88.400000
2743.280185	94.400000
2744.644909	69.800000
2746.009400	87.200000
2747.373659	67.800000
2748.737687	84.200000
2750.101482	83.800000
2751.461905	63.600000
2752.825237	51.600000
2754.183627	53.400000
2755.544927	51.800000
2756.902857	46.000000
2758.263695	87.200000
2759.622733	66.800000
2760.978403	63.000000
2762.336982	84.800000
2763.692193	54.200000
2765.047175	68.600000
2766.400360	55.400000
2767.756452	79.200000
2769.109180	48.200000
2770.461679	57.600000
2771.813951	48.800000
2773.167560	65.400000
2774.517808	92.400000
2775.866263	54.800000
2777.217622	47.200000
2778.565622	38.400000
2779.914961	50.800000
2781.262507	70.600000
2782.609827	70.000000
2783.956919	65.600000
2785.302221	67.200000
2786.647297	72.400000
2787.992147	30.800000
2789.336771	67.000000
2790.678043	43.200000
2792.020652	76.000000
2793.363037	42.400000
2794.705196	54.000000
2796.044006	58.000000
2797.385716	64.600000
2798.724077	47.800000
2800.063776	74.200000
2801.401689	43.000000
2802.737818	56.400000
2804.073724	55.800000
2805.410967	37.600000
2806.746425	36.400000
2808.081661	50.000000
2809.415115	31.400000
2810.749905	52.200000
2812.081354	53.800000
2813.415699	65.600000
2814.745146	29.600000
2816.075930	78.000000
2817.406492	46.600000
2818.735275	65.000000
2820.065395	49.400000
2821.393736	41.600000
2822.721855	51.200000
2824.048198	45.600000
2825.375876	35.400000
2826.700222	56.600000
2828.025904	61.600000
2829.349810	45.800000
2830.673496	47.400000
2831.998518	55.800000
2833.320211	23.800000
2834.641685	42.600000
2835.962939	48.600000
2837.283975	49.800000
2838.603239	25.600000
2839.923838	55.400000
2841.242665	58.000000
2842.561274	43.000000
2843.878113	66.000000
2845.194734	55.000000
2846.511138	48.400000
2847.825772	60.600000
2849.141741	32.800000
2850.454391	66.600000
2851.768375	34.400000
2853.082143	36.600000
2854.395694	52.400000
2855.707479	48.600000
2857.017497	44.200000
2858.328850	48.000000
2859.636888	43.000000
2860.946260	56.600000
2862.255417	52.200000
2863.564359	51.200000
2864.871538	53.800000
2866.176953	32.800000
2867.483703	36.400000
2868.788691	49.200000
2870.093464	31.600000
2871.396477	50.200000
2872.702370	56.000000
2874.003409	49.400000
2875.305781	57.600000
2876.606395	75.800000
2877.908341	49.600000
2879.210075	59.800000
2880.508505	40.000000
2881.808268	25.000000
2883.106274	48.000000
2884.404068	40.600000
2885.700105	41.800000
2886.997476	64.800000
2888.293092	46.600000
2889.588496	42.400000
2890.883689	63.200000
2892.175585	35.400000
2893.470356	59.400000
2894.761832	49.800000
2896.054640	33.000000
2897.347238	40.600000
2898.636541	30.200000
2899.927178	67.400000
2901.216063	15.400000
2902.506280	42.200000
2903.793206	30.800000
2905.081464	40.600000
2906.367973	60.800000
2907.654273	59.000000
2908.940365	47.600000
2910.224709	59.800000
2911.511925	46.000000
2912.794314	56.600000
2914.078035	26.200000
2915.360009	91.600000
2916.641777	39.400000
2917.921799	42.200000
2919.204691	43.400000
2920.485838	38.400000
2921.763703	48.400000
2923.044437	57.000000
2924.321890	35.000000
2925.599138	42.000000
2926.874643	35.800000
2928.153016	29.200000
2929.426575	31.000000
2930.703001	24.400000
2931.977685	31.600000
2933.250630	48.000000
2934.524906	17.200000
2935.797441	33.400000
2937.069773	52.000000
2938.338832	47.000000
2939.610756	31.600000
2940.880942	43.000000
2942.150924	27.000000
2943.420703	39.200000
2944.688746	27.800000
2945.955052	50.400000
2947.221156	25.600000
2948.488591	37.000000
2949.754290	29.600000
2951.019788	32.000000
2952.285083	46.800000
2953.547113	34.000000
2954.810473	44.200000
2956.073632	39.400000
2957.335058	56.000000
2958.597815	47.800000
2959.858839	32.600000
2961.118133	58.600000
2962.377226	43.800000
2963.636120	38.600000
2964.894812	39.800000
2966.153305	48.600000
2967.410069	24.000000
2968.666634	41.800000
2969.921470	38.200000
2971.177636	62.400000
2972.430547	74.600000
2973.684786	51.800000
2974.938827	44.600000
2976.191142	58.800000
2977.443259	50.200000
2978.693651	33.200000
2979.946898	48.400000
2981.195368	62.000000
2982.446693	24.800000
2983.694768	31.000000
2984.942646	5.400000
2986.190328	50.800000
2987.437812	35.800000
2988.683575	21.400000
2989.929141	44.600000
2991.176036	53.200000
2992.419686	23.400000
2993.664663	42.400000
2994.906398	17.200000
2996.150984	50.000000
2997.393851	30.600000
2998.633477	58.000000
2999.875953	36.600000
3001.115189	40.400000
3002.355753	61.600000
3003.594600	34.200000
3004.833253	75.800000
3006.070190	35.800000
3007.308455	26.600000
3008.545004	70.200000
3009.781360	27.400000
3011.017522	65.000000
3012.251970	61.200000
3013.486225	63.200000
3014.720287	30.600000
3015.952637	58.400000
3017.183275	11.600000
3018.416759	37.000000
3019.648532	48.200000
3020.878593	24.600000
3022.108463	23.400000
3023.336623	69.800000
3024.566110	44.000000
3025.793887	57.600000
3027.021473	47.600000
3028.250385	33.800000
3029.474555	69.400000
3030.701568	67.200000
3031.925358	50.400000
3033.150473	58.600000
3034.373883	48.600000
3035.597102	54.400000
3036.818616	47.400000
3038.042971	46.000000
3039.262591	69.200000
3040.483537	49.000000
3041.704293	45.000000
3042.923347	38.800000
3044.143725	35.400000
3045.360887	40.000000
3046.579374	12.400000
3047.796160	86.200000
3049.012757	50.200000
3050.229167	58.400000
3051.442363	55.200000
3052.658397	55.800000
3053.871219	14.400000
3055.086878	47.000000
3056.297814	57.200000
3057.510076	36.800000
3058.722150	18.800000
3059.934038	25.600000
3061.144229	43.600000
3062.354233	31.200000
3063.564051	41.000000
3064.772173	48.600000
3065.980110	46.200000
3067.186351	35.200000
3068.393917	19.600000
3069.599788	27.900000
3070.805474	36.200000
3072.010976	49.400000
3073.214784	25.000000
3074.419916	28.000000
3075.623355	20.400000
3076.825102	44.400000
3078.026666	26.400000
3079.228046	47.600000
3080.429242	21.000000
3081.628748	28.200000
3082.828071	34.400000
3084.028717	52.000000
3085.227673	12.400000
3086.423434	42.000000
3087.622025	34.200000
3088.817422	44.400000
3090.014143	38.800000
3091.207671	26.200000
3092.404027	58.000000
3093.598696	33.400000
3094.790175	24.400000
3095.985986	52.200000
3097.177102	51.200000
3098.369542	35.400000
3099.558793	30.400000
3100.750871	43.800000
3101.941265	58.400000
3103.128473	7.800000
3104.317003	37.800000
3105.506856	42.800000
3106.693524	14.800000
3107.880013	27.800000
3109.066323	43.000000
3110.253954	45.000000
3111.438403	36.800000
3112.621173	17.200000
3113.806765	42.000000
3114.990678	22.400000
3116.172911	31.400000
3117.354967	69.600000
3118.536844	47.800000
3119.718543	37.800000
3120.898565	49.600000
3122.076910	48.600000
3123.258075	30.000000
3124.436065	46.200000
3125.613878	14.800000
3126.791514	18.600000
3127.967475	13.600000
3129.143260	36.200000
3130.320365	22.200000
3131.495797	73.200000
3132.669555	29.200000
3133.841640	50.800000
3135.015046	15.200000
3136.188277	28.200000
3137.359836	38.400000
3138.532715	38.600000
3139.702427	28.800000
3140.873460	31.200000
3142.042822	28.400000
3143.210515	50.000000
3144.381023	9.200000
3145.546872	37.200000
3146.717031	32.200000
3147.882532	28.400000
3149.047860	30.800000
3150.213014	43.000000
3151.377995	24.800000
3152.544295	36.200000
3153.705942	37.600000
3154.868910	49.000000
3156.031705	23.000000
3157.194326	57.600000
3158.355283	24.000000
3159.516068	48.200000
3160.676680	69.400000
3161.835628	58.200000
3162.994405	38.200000
3164.153009	39.400000
3165.311442	26.400000
3166.469703	27.200000
3167.626303	42.400000
3168.781241	42.000000
3169.937498	30.200000
3171.092094	59.600000
3172.246520	29.200000
3173.399285	43.200000
3174.551881	39.400000
3175.704307	60.800000
3176.856562	31.800000
3178.008648	29.800000
3179.157587	65.200000
3180.309333	46.600000
3181.459422	37.400000
3182.607853	39.600000
3183.756116	13.200000
3184.904210	37.600000
3186.052135	36.400000
3187.198404	49.800000
3188.344505	17.400000
3189.488952	63.200000
3190.633230	21.200000
3191.777341	49.000000
3192.922770	15.200000
3194.065060	10.400000
3195.207182	17.200000
3196.349138	41.600000
3197.490926	30.200000
3198.632547	39.400000
3199.771033	34.000000
3200.910836	30.000000
3202.051956	21.600000
3203.189943	46.800000
3204.326279	27.800000
3205.462451	56.800000
3206.599939	61.000000
3207.735779	15.200000
3208.872936	35.200000
3210.005480	37.400000
3211.142305	42.200000
3212.274520	27.000000
3213.408051	-2.400000
3214.541417	28.000000
3215.671657	59.200000
3216.804694	33.200000
3217.934605	59.800000
3219.065832	36.800000
3220.193934	21.200000
3221.324834	47.200000
3222.454089	25.600000
3223.581701	39.400000
3224.706190	30.200000
3225.834955	50.200000
3226.960598	45.200000
3228.086078	42.400000
3229.209917	24.000000
3230.336551	39.200000
3231.458587	28.400000
3232.581939	48.200000
3233.705128	31.000000
3234.828156	34.800000
3235.949544	41.200000
3237.070771	46.200000
3238.190359	25.600000
3239.309786	39.800000
3240.427576	35.600000
3241.548157	48.400000
3242.665625	24.800000
3243.782932	56.800000
3244.900079	41.400000
3246.015589	55.000000
3247.132415	38.600000
3248.246130	24.200000
3249.362636	58.400000
3250.477506	29.800000
3251.589268	50.800000
3252.700871	9.400000
3253.813789	11.600000
3254.926547	47.600000
3256.036199	40.600000
3257.147166	27.800000
3258.257974	35.200000
3259.367150	21.600000
3260.474695	11.600000
3261.583555	45.600000
3262.692256	33.000000
3263.797855	36.200000
3264.904769	25.600000
3266.010053	31.600000
3267.116651	41.200000
3268.220149	34.000000
3269.324961	18.400000
3270.429616	18.600000
3271.531173	27.200000
3272.632573	53.600000
3273.735287	37.200000
3274.837845	46.800000
3275.937306	20.400000
3277.039551	37.800000
3278.138700	23.600000
3279.236224	5.200000
3280.333594	58.600000
3281.433745	29.800000
3282.530804	18.200000
3283.627707	24.600000
3284.724455	23.600000
3285.816644	30.400000
3286.913083	38.400000
3288.007899	64.600000
3289.102560	33.400000
3290.195600	22.600000
3291.288486	45.600000
3292.379751	34.400000
3293.472329	19.000000
3294.563287	29.000000
3295.652625	45.000000
3296.741810	39.600000
3297.832307	30.800000
3298.919721	44.400000
3300.006981	9.400000
3301.095554	33.000000
3302.183974	47.000000
3303.267848	52.400000
3304.355963	31.000000
3305.440996	42.600000
3306.524414	1.600000
3307.609144	48.000000
3308.692258	35.200000
3309.776684	23.400000
3310.858033	34.800000
3311.940693	31.800000
3313.021738	35.200000
3314.102633	29.400000
3315.181915	31.200000
3316.261046	33.000000
3317.341489	21.400000
3318.418857	34.200000
3319.497537	29.200000
3320.574605	30.200000
3321.651523	20.400000
3322.726831	31.000000
3323.801989	7.200000
3324.878458	56.200000
3325.951857	26.400000
3327.025106	42.200000
3328.099667	20.200000
3329.172619	52.400000
3330.243962	5.400000
3331.316616	49.800000
3332.386203	34.400000
3333.457101	29.000000
3334.526393	33.400000
3335.596994	28.600000
3336.665989	28.800000
3337.733379	37.800000
3338.799163	30.400000
3339.869173	43.000000
3340.936120	40.200000
3342.000005	73.800000
3343.066657	31.600000
3344.131706	53.200000
3345.195151	34.000000
3346.258450	52.600000
3347.321602	11.600000
3348.384608	36.600000
3349.447468	40.000000
3350.508725	40.600000
3351.566926	41.400000
3352.629348	20.400000
3353.688714	29.800000
3354.747934	15.600000
3355.808463	24.600000
3356.864484	41.600000
3357.923268	28.200000
3358.977545	40.200000
3360.034586	48.800000
3361.090028	24.000000
3362.146780	17.600000
3363.201933	49.000000
3364.255489	43.800000
3365.307448	22.600000
3366.362170	27.600000
3367.413842	17.000000
3368.465370	41.600000
3369.518208	23.800000
3370.567998	29.000000
3371.619097	41.400000
3372.667149	23.600000
3373.717962	9.000000
3374.765729	18.200000
3375.813354	37.200000
3376.860837	24.200000
3377.906727	31.000000
3378.953925	28.000000
3379.998080	21.400000
3381.044995	23.600000
3382.090317	26.400000
3383.132598	42.200000
3384.174738	35.000000
3385.218187	32.800000
3386.261494	29.400000
3387.303211	23.600000
3388.344788	39.000000
3389.386223	18.000000
3390.426070	41.200000
3391.464328	47.200000
3392.503894	37.400000
3393.543320	45.400000
3394.581158	30.200000
3395.617409	8.800000
3396.653520	20.800000
3397.690939	18.600000
3398.725325	35.200000
3399.761019	45.000000
3400.796573	27.200000
3401.829095	28.600000
3402.864371	9.200000
3403.896617	43.200000
3404.928723	40.800000
3405.959247	40.200000
3406.991077	20.600000
3408.022769	29.000000
3409.051433	54.800000
3410.079960	30.800000
3411.109793	39.800000
3412.139489	22.800000
3413.166159	38.800000
3414.194135	-6.000000
3415.219087	50.200000
3416.246790	40.000000
3417.271468	49.400000
3418.297453	24.000000
3419.321859	21.000000
3420.346128	7.800000
3421.368818	34.800000
3422.391372	14.800000
3423.415232	17.400000
3424.436072	23.600000
3425.456776	67.400000
3426.478786	27.800000
3427.497778	49.400000
3428.516635	41.200000
3429.536798	37.000000
3430.553944	24.000000
