-117.932748	0.936000
-115.263147	0.788000
-112.596482	0.291000
-109.930570	-0.264000
-107.267589	-0.089000
-104.603178	1.199000
-101.941698	2.533000
-99.278789	1.403000
-96.620987	-0.939000
-93.961754	0.181000
-91.303270	1.069000
-88.647711	0.433000
-85.990723	1.248000
-83.338832	-0.166000
-80.685512	0.158000
-78.035112	2.074000
-75.383282	1.543000
-72.736543	-0.713000
-70.088374	3.331000
-67.440949	-0.381000
-64.796437	1.982000
-62.150497	2.069000
-59.509638	0.613000
-56.867349	1.899000
-54.227970	-0.611000
-51.587162	-1.565000
-48.947093	1.154000
-46.312098	0.105000
-43.675673	0.760000
-41.042152	2.029000
-38.407202	0.755000
-35.777317	0.785000
-33.143839	0.447000
-30.515424	0.365000
-27.887743	0.350000
-25.258634	-0.140000
-22.634581	1.724000
-20.006939	-0.161000
-17.384350	1.076000
-14.762492	0.552000
-12.141365	1.798000
-9.520969	1.697000
-6.903460	4.004000
-4.284523	8.697000
-1.668472	21.527000
0.946851	22.460000
3.561447	12.603000
6.173161	1.929000
8.786302	-1.054000
11.394410	0.337000
14.006100	0.324000
16.612759	-2.194000
19.220846	0.821000
21.828209	0.058000
24.430547	2.191000
27.036463	-0.351000
29.637358	1.324000
32.239680	1.256000
34.836984	0.090000
37.437864	0.904000
40.033730	1.227000
42.631023	0.603000
45.227597	1.176000
47.819162	1.028000
50.412155	1.149000
53.002287	1.746000
55.593847	1.531000
58.182547	1.329000
60.772675	0.219000
63.357803	0.187000
65.944359	1.971000
68.530200	0.253000
71.113188	1.768000
73.697603	0.471000
76.274888	2.325000
78.855740	-0.301000
81.433743	1.496000
84.011036	0.787000
86.589755	2.051000
89.163493	0.888000
91.738657	0.408000
94.310978	0.541000
96.882592	2.624000
99.451365	1.650000
102.021565	0.697000
104.588926	1.146000
107.157714	2.531000
109.723664	1.137000
112.286780	2.582000
114.853453	2.487000
117.410903	3.590000
119.974039	2.743000
122.532216	4.425000
125.093946	5.015000
127.650721	8.210000
130.208921	11.077000
132.762169	15.941000
135.314718	26.634000
137.870819	36.234000
140.421971	48.077000
142.972425	62.847000
145.522183	70.623000
148.069121	80.988000
150.615363	87.147000
153.163032	89.865000
155.710004	89.375000
158.252040	91.555000
160.793383	92.799000
163.334034	93.212000
165.876109	92.033000
168.415374	92.161000
170.951829	91.307000
173.487594	92.042000
176.024784	93.340000
178.561282	93.831000
181.094975	92.274000
183.625865	92.716000
186.156066	91.415000
188.687692	92.437000
191.216517	92.303000
193.742544	94.122000
196.267884	92.187000
198.794649	92.378000
201.318618	92.674000
203.841901	91.790000
206.364500	91.619000
208.884306	92.035000
211.403429	91.958000
213.921869	92.059000
216.441733	92.337000
218.954596	91.226000
221.470990	91.407000
223.986703	92.677000
226.497525	93.000000
229.009772	91.140000
231.519236	93.758000
234.028022	93.857000
236.536130	91.391000
239.045662	91.623000
241.550313	93.019000
244.054288	91.086000
246.559687	92.322000
249.060211	92.458000
251.564258	94.041000
254.061335	92.838000
256.561934	92.551000
259.059762	93.490000
261.556917	93.026000
264.053399	90.010000
266.545019	91.941000
269.040157	93.153000
271.532530	93.555000
274.024232	92.945000
276.513171	92.453000
279.003533	93.049000
281.491134	92.637000
283.975975	92.628000
286.464330	92.702000
288.945746	91.868000
291.430677	91.676000
293.910761	92.942000
296.394358	90.855000
298.873113	93.098000
301.353290	91.052000
303.830716	92.582000
306.307478	92.310000
308.783576	90.535000
311.256926	90.514000
313.729615	91.484000
316.201641	92.085000
318.673007	92.346000
321.141629	92.194000
323.609591	94.058000
326.078976	93.014000
328.543538	94.097000
331.011603	93.661000
333.474849	92.865000
335.937438	91.033000
338.399369	93.460000
340.860644	93.430000
343.319185	93.026000
345.779148	92.525000
348.236379	92.907000
350.692955	92.600000
353.148876	94.171000
355.602069	91.961000
358.056684	93.674000
360.506497	92.755000
362.959806	91.348000
365.408316	89.711000
367.856176	91.329000
370.305457	91.757000
372.749945	91.569000
375.195855	90.295000
377.641116	91.478000
380.083658	91.153000
382.525552	90.888000
384.966798	90.026000
387.405329	90.732000
389.845282	89.741000
392.282521	90.906000
394.717048	91.390000
397.155063	92.218000
399.588301	90.534000
402.022961	91.296000
404.452847	90.641000
406.886220	92.555000
409.314821	91.319000
411.742782	90.513000
414.172163	91.973000
416.596780	92.312000
419.022817	91.704000
421.448215	92.021000
423.872972	92.140000
426.292970	93.255000
428.714390	92.415000
431.133113	94.624000
433.553257	93.211000
435.970706	92.942000
438.389575	94.061000
440.805751	92.818000
443.217180	92.490000
445.632085	93.479000
448.044300	92.669000
450.455881	93.340000
452.866828	93.627000
455.275089	93.209000
457.682718	93.642000
460.089714	93.288000
462.496078	93.220000
464.899761	94.571000
467.302813	91.231000
469.705235	92.948000
472.107027	92.788000
474.506141	93.055000
476.906675	94.233000
479.306580	95.244000
481.701762	92.995000
484.100411	93.709000
486.494340	92.541000
488.887643	92.264000
491.280320	92.284000
493.672372	93.534000
496.065843	91.565000
498.454601	94.953000
500.840693	92.658000
503.228205	90.593000
505.615093	93.349000
507.999318	92.275000
510.384962	92.571000
512.767943	92.562000
515.148264	90.586000
517.530004	93.528000
519.909085	92.160000
522.289585	92.183000
524.667427	92.828000
527.042614	93.129000
529.417183	92.780000
531.793171	93.229000
534.166505	92.879000
536.541258	92.475000
538.911324	93.256000
541.280775	92.604000
543.651645	91.744000
546.017833	92.364000
548.385440	92.000000
550.750401	92.674000
553.114749	93.539000
555.478485	92.369000
557.843638	94.057000
560.204119	93.610000
562.566017	91.991000
564.925276	93.340000
567.281896	93.734000
569.641962	95.300000
571.995336	91.941000
574.352155	94.708000
576.706339	93.669000
579.059914	92.172000
581.412881	91.698000
583.763217	91.026000
586.114969	90.601000
588.460045	91.478000
590.810585	92.042000
593.154452	93.760000
595.503780	91.736000
597.848459	94.383000
600.190514	92.999000
602.533986	91.409000
604.874835	91.492000
607.215081	93.118000
609.552707	92.702000
611.893768	91.048000
614.230192	92.569000
616.568032	92.390000
618.903254	91.817000
621.235861	91.488000
623.569885	91.462000
625.901294	92.549000
628.232105	91.944000
630.562318	92.388000
632.891933	92.225000
635.216926	91.682000
637.547360	93.154000
639.873172	93.921000
642.196378	93.803000
644.521000	92.738000
646.843016	94.793000
649.164438	92.936000
651.483257	94.068000
653.803492	91.550000
656.123134	92.478000
658.440175	92.396000
660.756625	93.326000
663.070476	94.635000
665.385742	93.978000
667.698412	92.699000
670.012497	92.336000
672.321983	93.820000
674.632883	94.353000
676.941191	92.917000
679.248911	92.177000
681.558046	94.483000
683.862588	92.731000
686.166544	92.861000
688.469913	92.285000
690.774697	93.083000
693.074895	90.794000
695.376508	91.845000
697.677535	91.687000
699.973981	93.074000
702.271841	92.475000
704.569118	90.442000
706.865812	91.665000
709.157930	92.609000
711.453459	91.997000
713.744415	93.634000
716.036785	93.817000
718.326579	92.216000
720.615794	94.692000
722.904428	94.675000
725.190491	92.373000
727.477967	93.010000
729.762873	92.924000
732.047200	93.713000
734.328960	94.355000
736.612133	93.233000
738.894729	92.969000
741.172769	93.391000
743.452223	94.468000
745.731102	94.947000
748.009405	93.877000
750.283159	94.509000
752.558327	94.735000
754.832921	95.042000
757.104956	94.200000
759.378404	96.839000
761.649294	93.966000
763.917627	94.212000
766.187375	93.515000
768.454567	92.466000
770.721189	96.345000
772.987242	94.435000
775.250743	92.346000
777.515656	94.671000
779.780001	93.702000
782.039815	92.415000
784.301043	94.348000
786.561703	94.044000
788.819816	94.627000
791.075385	94.565000
793.334345	94.300000
795.586806	93.671000
797.844634	96.215000
800.097943	94.824000
802.348711	94.155000
804.600892	94.688000
806.850535	94.910000
809.101589	93.941000
811.348132	93.153000
813.596088	93.007000
815.841508	93.781000
818.088341	91.919000
820.334611	92.720000
822.576378	95.325000
824.821527	93.035000
827.060204	93.581000
829.302264	94.034000
831.539825	95.338000
833.778797	93.158000
836.015243	96.077000
838.253101	93.901000
840.488433	93.330000
842.721241	94.395000
844.955461	93.993000
847.187159	95.329000
849.418302	94.931000
851.648890	94.591000
853.878924	96.726000
856.108403	95.339000
858.333402	95.273000
860.561774	95.884000
862.785668	96.766000
865.010972	96.467000
867.231801	94.479000
869.456002	93.416000
871.675730	94.393000
873.896869	96.401000
876.117457	95.742000
878.335536	96.628000
880.555024	96.324000
882.770046	93.466000
884.984520	95.460000
887.198447	93.514000
889.411826	94.115000
891.624659	94.291000
893.836944	92.815000
896.046728	97.004000
898.255966	93.307000
900.464658	92.911000
902.670852	95.120000
904.878455	94.401000
907.083561	93.267000
909.288123	93.057000
911.490189	96.962000
913.693666	94.179000
915.894648	95.052000
918.095088	95.269000
920.296937	95.481000
922.492394	94.821000
924.691211	96.831000
926.885590	93.868000
929.083326	93.730000
931.276626	94.031000
933.471334	97.197000
935.663557	94.171000
937.855242	95.540000
940.046389	97.908000
942.235053	95.290000
944.423180	97.352000
946.608827	95.451000
948.797826	97.483000
950.982402	97.891000
953.166443	97.755000
955.353834	97.033000
957.532922	97.868000
959.715359	98.518000
961.897263	96.637000
964.076693	97.482000
966.253650	97.520000
968.432015	98.037000
970.611786	99.172000
972.785209	98.503000
974.961978	98.528000
977.134341	98.266000
979.308110	97.437000
981.477477	98.544000
983.650187	98.532000
985.820431	98.594000
987.990147	96.548000
990.159334	98.924000
992.324124	98.905000
994.492255	99.524000
996.655992	98.840000
998.821136	98.608000
1000.983820	97.577000
1003.145979	98.427000
1005.305680	101.994000
1007.464858	97.928000
1009.625442	95.991000
1011.783571	97.733000
1013.941176	98.845000
1016.098258	96.919000
1018.254817	98.659000
1020.406996	98.872000
1022.560582	97.702000
1024.713645	98.801000
1026.864261	96.735000
1029.016282	97.809000
1031.163930	97.277000
1033.314910	98.400000
1035.461520	97.853000
1037.607610	99.283000
1039.753182	97.948000
1041.900158	98.687000
1044.040847	97.269000
1046.184864	97.910000
1048.326441	97.682000
1050.467502	97.596000
1052.609967	98.921000
1054.746153	99.084000
1056.885665	99.295000
1059.020821	97.660000
1061.159302	100.316000
1063.293430	100.007000
1065.427044	99.379000
1067.562062	98.856000
1069.692731	99.994000
1071.824806	100.737000
1073.954450	99.684000
1076.083583	100.066000
1078.212205	101.087000
1080.340315	100.780000
1082.465999	100.897000
1084.591173	101.809000
1086.717750	101.533000
1088.839991	100.753000
1090.963636	102.373000
1093.082946	101.269000
1095.207485	100.516000
1097.325780	101.636000
1099.445478	100.232000
1101.562758	101.097000
1103.679532	102.642000
1105.795799	102.490000
1107.909651	101.617000
1110.024906	101.883000
1112.135839	103.170000
1114.250083	102.045000
1116.360008	102.964000
1118.471335	102.059000
1120.582159	100.107000
1122.688666	102.607000
1124.798482	103.213000
1126.903984	102.325000
1129.010890	101.130000
1131.111579	102.409000
1133.217481	103.410000
1135.319074	103.255000
1137.422070	105.209000
1139.524565	103.271000
1141.620854	100.706000
1143.722349	101.156000
1145.819542	101.656000
1147.916236	100.814000
1150.012433	101.753000
1152.108131	102.689000
1154.203332	100.881000
1156.296136	100.702000
1158.390342	102.645000
1160.478357	103.059000
1162.571570	101.046000
1164.658595	101.924000
1166.748920	101.325000
1168.834956	103.322000
1170.924290	102.629000
1173.007443	101.297000
1175.091999	102.256000
1177.177955	103.471000
1179.259630	102.890000
1181.342707	104.044000
1183.423398	103.801000
1185.503597	102.750000
1187.583306	104.200000
1189.662522	104.226000
1191.739357	102.194000
1193.813811	105.101000
1195.891557	104.780000
1197.965032	103.288000
1200.039909	102.724000
1202.110518	105.866000
1204.182528	102.879000
1206.252162	103.395000
1208.323197	103.091000
1210.393744	105.078000
1212.460030	103.167000
1214.527717	103.475000
1216.593032	104.850000
1218.659747	103.631000
1220.722206	105.983000
1222.787950	105.707000
1224.849441	106.988000
1226.912331	106.721000
1228.972854	107.671000
1231.032894	106.713000
1233.092450	103.035000
1235.149642	104.750000
1237.206351	106.985000
1239.260698	105.908000
1241.318325	105.381000
1243.373590	106.555000
1245.424614	107.288000
1247.477038	106.773000
1249.528983	107.600000
1251.578569	107.898000
1253.627676	105.340000
1255.676304	108.798000
1257.724454	108.677000
1259.772126	108.037000
1261.815567	107.577000
1263.862283	109.005000
1265.906647	108.199000
1267.950533	109.640000
1269.992069	110.142000
1272.031255	110.001000
1274.073713	110.651000
1276.111950	112.312000
1278.151584	112.177000
1280.190744	113.038000
1282.225686	112.205000
1284.262026	112.230000
1286.296021	114.720000
1288.331415	114.243000
1290.362595	113.777000
1292.395174	115.851000
1294.427280	115.960000
1296.457046	118.389000
1298.488210	118.696000
1300.515166	118.803000
1302.543520	121.164000
1304.567670	124.834000
1306.595085	126.088000
1308.618297	129.441000
1310.642906	135.753000
1312.665182	139.582000
1314.688855	147.722000
1316.710195	159.823000
1318.731067	176.966000
1320.751473	214.121000
1322.767684	276.955000
1324.785294	417.264000
1326.800575	792.692000
1328.819115	1759.842000
1330.833465	3419.721000
1332.845490	4130.477000
1334.860773	2956.874000
1336.871870	1249.870000
1338.884363	488.318000
1340.892674	284.711000
1342.904241	206.192000
1344.909769	168.470000
1346.918551	149.426000
1348.923157	138.721000
1350.931016	131.364000
1352.938412	126.134000
1354.939778	122.404000
1356.942541	118.955000
1358.944844	118.256000
1360.946686	116.413000
1362.948070	115.411000
1364.947139	114.722000
1366.945750	112.027000
1368.943903	112.261000
1370.941598	113.402000
1372.935129	110.052000
1374.930057	112.482000
1376.924528	110.574000
1378.918542	110.727000
1380.910249	110.480000
1382.901500	110.578000
1384.890446	109.932000
1386.880787	110.125000
1388.870673	109.767000
1390.858256	109.224000
1392.845385	109.366000
1394.830212	109.041000
1396.816434	109.201000
1398.800355	110.318000
1400.783824	108.452000
1402.766841	109.495000
1404.747560	111.126000
1406.729673	108.743000
1408.709489	109.795000
1410.688855	110.465000
1412.664082	111.949000
1414.642547	109.133000
1416.618719	111.690000
1418.594441	111.750000
1420.569714	111.093000
1422.542696	112.860000
1424.515231	113.007000
1426.487317	111.623000
1428.458955	113.174000
1430.426466	113.598000
1432.399050	114.462000
1434.363828	115.429000
1436.333679	116.058000
1438.299405	116.423000
1440.266525	115.706000
1442.231361	113.479000
1444.192077	115.378000
1446.157861	116.163000
1448.117690	117.345000
1450.078912	115.024000
1452.041527	116.855000
1454.000027	116.596000
1455.958085	114.019000
1457.915700	116.861000
1459.872874	114.846000
1461.827772	115.676000
1463.784062	115.339000
1465.738078	112.433000
1467.691654	114.668000
1469.642957	114.007000
1471.595652	114.353000
1473.546076	112.392000
1475.496061	110.502000
1477.445606	112.298000
1479.392883	114.669000
1481.337893	111.216000
1483.284295	112.198000
1485.230259	111.690000
1487.175785	112.674000
1489.119047	110.580000
1491.061872	112.735000
1493.002434	110.347000
1494.944387	112.155000
1496.884079	110.434000
1498.823335	112.116000
1500.762157	112.209000
1502.698719	112.351000
1504.636671	110.864000
1506.572366	111.227000
1508.507627	112.936000
1510.440631	112.371000
1512.373203	112.699000
1514.305343	111.111000
1516.237051	113.579000
1518.166506	113.786000
1520.097350	112.134000
1522.027764	114.822000
1523.954105	113.927000
1525.881836	114.741000
1527.807317	113.322000
1529.732369	113.925000
1531.656992	114.367000
1533.581186	112.624000
1535.503133	113.968000
1537.426469	113.744000
1539.347560	114.074000
1541.266406	115.908000
1543.186642	114.799000
1545.104634	114.672000
1547.022200	115.729000
1548.937524	114.757000
1550.854238	115.538000
1552.766897	116.692000
1554.682760	116.157000
1556.596384	116.364000
1558.507769	113.907000
1560.420543	113.268000
1562.329268	115.694000
1564.239383	115.736000
1566.149074	114.474000
1568.058341	115.276000
1569.965375	114.215000
1571.870176	114.821000
1573.776366	114.253000
1575.680324	115.621000
1577.583862	114.092000
1579.486978	115.306000
1581.387866	114.581000
1583.290142	114.341000
1585.190189	113.690000
1587.091625	114.533000
1588.989026	114.596000
1590.886010	115.995000
1592.782575	114.057000
1594.680527	115.620000
1596.572645	114.941000
1598.467957	116.209000
1600.362850	116.212000
1602.255522	114.632000
1604.147778	115.323000
1606.037814	115.456000
1607.927434	115.497000
1609.816639	114.419000
1611.705428	114.002000
1613.592001	116.132000
1615.479960	114.056000
1617.363904	115.615000
1619.249234	115.334000
1621.134150	116.188000
1623.016854	115.447000
1624.900943	115.668000
1626.781022	114.285000
1628.662487	116.387000
1630.541742	114.914000
1632.422383	115.958000
1634.297220	116.591000
1636.177039	116.425000
1638.052852	115.321000
1639.928256	118.953000
1641.805045	115.657000
1643.676037	117.472000
1645.550211	117.587000
1647.420387	118.373000
1649.293743	117.484000
1651.164896	117.557000
1653.033847	116.851000
1654.904184	119.194000
1656.770527	117.548000
1658.638256	119.094000
1660.503787	117.499000
1662.370702	118.573000
1664.233629	119.649000
1666.097941	117.469000
1667.960058	117.880000
1669.821769	117.841000
1671.684865	115.837000
1673.545767	117.228000
1675.404475	118.013000
1677.262780	117.486000
1679.122470	117.656000
1680.976393	117.829000
1682.833488	117.917000
1684.690181	118.236000
1686.542898	117.599000
1688.398786	118.903000
1690.250700	119.227000
1692.102212	117.955000
1693.953325	116.801000
1695.804036	118.189000
1697.654347	115.900000
1699.502474	118.358000
1701.351984	119.508000
1703.195746	117.862000
1705.044458	117.924000
1706.887423	119.127000
1708.733554	117.214000
1710.575724	118.019000
1712.421058	120.985000
1714.260652	118.203000
1716.101630	119.125000
1717.943991	118.376000
1719.782396	117.575000
1721.622184	118.697000
1723.459797	118.538000
1725.297014	119.753000
1727.132058	119.031000
1728.968485	119.953000
1730.802740	117.658000
1732.636601	118.465000
1734.470067	118.757000
1736.299587	118.137000
1738.132266	118.764000
1739.961001	119.576000
1741.792894	118.406000
1743.620844	119.081000
1745.448402	117.293000
1747.275569	117.418000
1749.102343	119.865000
1750.928727	119.380000
1752.751174	120.725000
1754.576775	119.390000
1756.398442	118.921000
1758.221491	121.614000
1760.042379	118.821000
1761.862877	119.291000
1763.684757	117.945000
1765.500937	119.607000
1767.320269	117.681000
1769.135674	119.878000
1770.954229	119.774000
1772.768860	120.729000
1774.583103	121.331000
1776.396960	119.216000
1778.210430	120.940000
1780.021746	119.208000
1781.834444	119.390000
1783.646755	120.660000
1785.455149	120.752000
1787.264924	120.533000
1789.070783	120.675000
1790.879789	119.882000
1792.684881	119.776000
1794.491353	121.614000
1796.297442	122.720000
1798.099621	122.022000
1799.904943	120.430000
1801.706357	121.229000
1803.509151	120.054000
1805.308040	121.925000
1807.108308	120.497000
1808.908196	123.134000
1810.705941	120.654000
1812.503306	121.111000
1814.300290	120.424000
1816.096894	122.147000
1817.891359	121.338000
1819.687204	121.570000
1821.477393	123.521000
1823.272479	122.907000
1825.061912	122.741000
1826.854483	122.174000
1828.644918	122.790000
1830.433218	123.477000
1832.224654	122.068000
1834.010444	124.512000
1835.797614	123.291000
1837.582652	124.375000
1839.370824	123.041000
1841.155110	122.038000
1842.937267	123.277000
1844.720802	123.626000
1846.502210	124.077000
1848.284995	126.349000
1850.063901	126.978000
1851.844185	124.609000
1853.622344	124.497000
1855.401880	125.624000
1857.179292	124.714000
1858.954580	125.709000
1860.731247	126.215000
1862.505791	127.144000
1864.281712	126.260000
1866.052014	126.526000
1867.825443	126.872000
1869.596752	124.901000
1871.367690	128.471000
1873.140005	126.185000
1874.906708	127.825000
1876.676535	127.818000
1878.442499	127.678000
1880.211587	129.080000
1881.976813	128.183000
1883.741671	127.722000
1885.507905	128.816000
1887.270281	127.483000
1889.032290	127.451000
1890.793932	126.557000
1892.555206	126.707000
1894.316114	128.829000
1896.076654	129.078000
1897.835085	130.031000
1899.593151	127.188000
1901.349109	130.087000
1903.106443	129.064000
1904.863411	130.046000
1906.618274	129.045000
1908.371031	131.274000
1910.123425	132.154000
1911.877194	129.284000
1913.628861	133.063000
1915.378424	131.696000
1917.129364	131.048000
1918.879940	131.998000
1920.626678	132.256000
1922.374791	133.467000
1924.120805	132.057000
1925.868195	132.595000
1927.613486	131.026000
1929.356680	133.620000
1931.101250	135.307000
1932.843723	134.731000
1934.585836	133.744000
1936.327590	135.635000
1938.068983	135.710000
1939.808283	136.012000
1941.547224	135.954000
1943.285806	134.913000
1945.022296	135.761000
1946.758429	136.666000
1948.495936	137.571000
1950.229622	139.354000
1951.964682	138.310000
1953.697653	140.799000
1955.430268	138.755000
1957.162526	139.314000
1958.894428	139.561000
1960.624244	139.556000
1962.351976	139.684000
1964.081081	142.190000
1965.809832	140.916000
1967.536499	141.392000
1969.262812	142.661000
1970.990498	142.442000
1972.712648	143.819000
1974.437900	143.817000
1976.159344	143.072000
1977.883888	142.957000
1979.606353	143.048000
1981.325014	144.254000
1983.046774	143.560000
1984.764732	145.558000
1986.484064	144.955000
1988.199595	148.456000
1989.919948	147.388000
1991.636501	147.627000
1993.349259	147.072000
1995.065112	148.109000
1996.778892	147.847000
1998.492323	148.374000
2000.203683	148.743000
2001.916416	151.222000
2003.625357	149.945000
2005.337392	151.781000
2007.043917	152.820000
2008.753535	151.735000
2010.461085	153.130000
2012.168288	151.903000
2013.873425	151.335000
2015.578215	153.655000
2017.284377	152.136000
2018.986757	153.765000
2020.690509	153.648000
2022.392198	152.627000
2024.093541	153.552000
2025.794539	154.183000
2027.493477	154.035000
2029.193786	155.259000
2030.890319	153.163000
2032.588224	156.596000
2034.284071	155.371000
2035.983003	157.095000
2037.676448	156.539000
2039.371266	155.880000
2041.065740	157.442000
2042.756446	158.025000
2044.450236	156.617000
2046.140259	155.983000
2047.831653	157.010000
2049.520994	157.724000
2051.211705	156.595000
2052.898654	157.744000
2054.585262	156.296000
2056.273241	158.455000
2057.957460	157.480000
2059.643049	158.438000
2061.328299	156.786000
2063.011501	157.488000
2064.696073	156.901000
2066.375181	157.104000
2068.059075	156.557000
2069.737509	157.834000
2071.419020	158.597000
2073.096779	160.173000
2074.774202	157.180000
2076.452994	157.382000
2078.129743	158.172000
2079.804451	160.117000
2081.480528	159.174000
2083.154565	161.004000
2084.828266	157.914000
2086.501632	161.096000
2088.172960	159.981000
2089.843953	160.197000
2091.514612	160.725000
2093.184937	160.395000
2094.854927	159.353000
2096.522882	160.911000
2098.190504	161.468000
2099.856092	163.183000
2101.523048	160.494000
2103.187971	164.005000
2104.852561	163.930000
2106.515120	163.716000
2108.179048	165.054000
2109.840944	165.231000
2111.502509	165.271000
2113.163744	166.508000
2114.822949	166.692000
2116.481825	167.124000
2118.140370	167.209000
2119.798586	168.531000
2121.453078	167.816000
2123.110636	167.211000
2124.767863	169.152000
2126.421370	169.244000
2128.076244	168.672000
2129.727399	169.813000
2131.381617	170.649000
2133.032117	168.007000
2134.683985	170.706000
2136.330444	169.899000
2137.981657	170.966000
2139.629157	172.150000
2141.278025	171.534000
2142.924873	172.419000
2144.571395	172.988000
2146.217592	174.908000
2147.860081	173.476000
2149.505628	174.769000
2151.147468	173.764000
2152.792365	177.112000
2154.433557	173.154000
2156.074425	174.320000
2157.714970	174.719000
2159.353502	174.941000
2160.993400	174.944000
2162.629598	175.133000
2164.267162	174.958000
2165.904404	176.538000
2167.539636	175.282000
2169.174546	176.654000
2170.809135	176.966000
2172.443403	175.867000
2174.073977	175.898000
2175.707602	177.287000
2177.337536	177.950000
2178.968835	177.758000
2180.598130	179.313000
2182.227104	178.797000
2183.855760	179.390000
2185.484096	180.760000
2187.110429	180.409000
2188.736444	179.227000
2190.360458	179.524000
2191.985837	180.345000
2193.609215	178.770000
2195.233958	178.836000
2196.855019	179.603000
2198.475765	179.353000
2200.097874	181.644000
2201.717986	180.905000
2203.336102	179.378000
2204.953902	182.213000
2206.571386	180.767000
2208.188555	181.030000
2209.805409	183.079000
2211.421948	182.930000
2213.036493	183.134000
2214.649046	186.103000
2216.262964	183.815000
2217.874889	182.490000
2219.488179	182.553000
2221.099477	183.602000
2222.708787	184.083000
2224.319459	185.450000
2225.928143	184.807000
2227.536515	185.631000
2229.142899	186.280000
2230.750647	186.833000
2232.356408	185.731000
2233.961858	188.756000
2235.565324	187.733000
2237.170152	187.869000
2238.772996	187.384000
2240.373857	191.402000
2241.976081	190.305000
2243.576322	190.755000
2245.177927	191.679000
2246.775878	192.388000
2248.375192	192.839000
2249.972526	192.347000
2251.569552	193.266000
2253.167939	194.579000
2254.762678	193.771000
2256.355441	193.660000
2257.949565	192.634000
2259.545051	194.752000
2261.136893	192.126000
2262.728428	193.989000
2264.321324	194.075000
2265.908911	196.887000
2267.501195	196.369000
2269.088171	195.541000
2270.678176	193.501000
2272.262876	197.065000
2273.852270	195.643000
2275.436361	193.356000
2277.021814	194.445000
2278.605298	195.042000
2280.191807	193.772000
2281.774683	196.374000
2283.357255	193.003000
2284.939525	195.699000
2286.518164	196.241000
2288.099827	195.699000
2289.677862	197.971000
2291.258921	196.997000
2292.836352	197.945500
2294.411820	198.894000
2295.990310	195.899000
2297.565175	194.824000
2299.139740	196.960000
2300.714005	199.492000
2302.287969	195.859000
2303.861633	197.679000
2305.434996	199.267000
2307.004741	197.419000
2308.574187	197.461000
2310.146652	198.554000
2311.713842	199.351000
2313.284049	199.228000
2314.850642	200.513000
2316.418595	200.848000
2317.984593	201.176000
2319.550293	203.100000
2321.115695	203.388000
2322.679144	203.769000
2324.243952	204.429000
2325.805151	203.297000
2327.369365	205.132000
2328.928318	202.972000
2330.490284	206.013000
2332.050300	204.767000
2333.610020	203.175000
2335.167791	209.602000
2336.725268	207.060000
2338.282449	207.576000
2339.837684	207.188000
2341.392624	208.837000
2342.947271	210.757000
2344.501624	210.128000
2346.055683	208.691000
2347.609449	209.230000
2349.161270	208.842000
2350.711148	210.458000
2352.264034	211.115000
2353.811678	210.454000
2355.362329	211.459000
2356.909390	212.138000
2358.457808	210.160000
2360.005934	211.224000
2361.550473	210.914000
2363.096369	213.192000
2364.640326	214.869000
2366.185641	214.770000
2367.727371	213.580000
2369.270459	216.538000
2370.811610	215.172000
2372.352472	214.406000
2373.893045	215.141000
2375.433329	215.994000
2376.973324	217.006000
2378.509740	217.015000
2380.049158	217.589000
2381.584999	218.130000
2383.122196	215.973000
2384.655819	217.756000
2386.192441	217.364000
2387.727132	219.253000
2389.259894	219.184000
2390.792370	221.308000
2392.322917	221.353000
2393.856462	222.396000
2395.384796	222.843000
2396.914486	222.787000
2398.443891	221.494000
2399.973011	221.521000
2401.501845	223.841000
2403.025475	227.260000
2404.553740	226.965000
2406.076802	228.635000
2407.604499	225.644000
2409.125355	226.863000
2410.650845	227.973000
2412.172774	229.523000
2413.696059	227.300000
2415.217423	230.065000
2416.736867	229.275000
2418.257666	230.314000
2419.776546	233.013000
2421.295144	231.859000
2422.811825	230.993000
2424.329861	234.099000
2425.847615	231.221000
2427.361817	231.897000
2428.875739	234.452000
2430.389382	235.837000
2431.904378	234.763000
2433.415826	234.975000
2434.928629	234.691000
2436.439519	236.685000
2437.950129	235.531000
2439.458828	240.053000
2440.970514	236.059000
2442.478656	239.729000
2443.986519	240.415000
2445.494105	238.540000
2446.998151	241.020000
2448.505181	241.777000
2450.010303	241.797000
2451.515148	245.065000
2453.018086	243.975000
2454.520747	244.177000
2456.023132	244.666000
2457.523612	244.965000
2459.025445	244.515000
2460.525374	245.583000
2462.025027	247.022000
2463.524405	249.221000
2465.021880	248.921000
2466.517453	250.736000
2468.016006	250.891000
2469.511030	251.461000
2471.007408	249.527000
2472.500259	253.383000
2473.994462	250.607000
2475.488392	252.447000
2476.978799	253.669000
2478.472183	255.098000
2479.963668	252.714000
2481.453257	256.557000
2482.942574	251.872000
2484.429996	254.482000
2485.920393	254.015000
2487.407271	255.297000
2488.895501	254.704000
2490.380215	254.359000
2491.864658	253.283000
2493.350453	255.674000
2494.834355	254.442000
2496.319609	254.667000
2497.799729	253.259000
2499.282821	252.809000
2500.764023	251.135000
2502.244956	251.779000
2503.724000	252.356000
2505.202776	252.037000
2506.681283	250.393000
2508.159521	250.771000
2509.637491	251.085000
2511.111957	250.416000
2512.589391	248.542000
2514.063322	250.779000
2515.538604	249.207000
2517.013618	249.935000
2518.485131	247.521000
2519.957995	249.362000
2521.428975	247.391000
2522.901306	249.387000
2524.368524	249.545000
2525.838708	246.807000
2527.307010	248.068000
2528.775048	248.703000
2530.242821	248.480000
2531.710329	249.068000
2533.177572	249.575000
2534.641324	251.299000
2536.106425	247.776000
2537.569649	250.437000
2539.034222	250.581000
2540.495306	251.280000
2541.957741	251.391000
2543.419912	253.100000
2544.878596	251.538000
2546.341853	251.499000
2547.800013	253.528000
2549.259522	252.362000
2550.713938	254.175000
2552.172924	254.646000
2553.630037	254.845000
2555.085280	255.751000
2556.540262	252.750000
2557.993374	257.937000
2559.447835	255.184000
2560.900427	255.457000
2562.352759	255.278000
2563.803223	254.767000
2565.256643	258.425000
2566.704981	257.044000
2568.156275	255.603000
2569.605702	259.687000
2571.051658	259.189000
2572.500568	260.373000
2573.946007	260.879000
2575.392795	262.148000
2576.837719	260.127000
2578.282386	263.629000
2579.728400	261.723000
2581.170947	261.851000
2582.614842	264.223000
2584.055272	263.601000
2585.497050	262.048000
2586.936968	264.349000
2588.378233	262.229000
2589.816036	263.411000
2591.256789	263.850000
2592.692479	264.252000
2594.131119	266.860000
2595.567902	268.586000
2597.002828	269.065000
2598.440703	268.295000
2599.873520	270.565000
2601.307684	270.175000
2602.739993	270.772000
2604.173649	271.543000
2605.605452	268.097000
2607.037002	273.220000
2608.468298	268.911000
2609.897743	273.997000
2611.326935	271.168000
2612.754276	272.367000
2614.182964	273.593000
2615.611399	273.995000
2617.036388	273.854000
2618.462722	274.325000
2619.887208	275.491000
2621.313040	273.784000
2622.735428	276.162000
2624.159162	275.842000
2625.581050	277.806000
2627.002687	279.451000
2628.422479	274.292000
2629.843617	275.814000
2631.264505	277.356000
2632.681955	275.477000
2634.102344	279.110000
2635.519296	277.965000
2636.936000	278.211000
2638.352455	278.461000
2639.768662	278.515000
2641.184620	277.429000
2642.598738	279.157000
2644.012609	283.093000
2645.424640	279.985000
2646.838016	280.206000
2648.247962	281.320000
2649.660844	281.029000
2651.070297	282.879000
2652.479504	283.673000
2653.886875	283.990000
2655.297180	285.504000
2656.705649	284.257000
2658.112283	285.638000
2659.518672	285.449000
2660.923227	284.651000
2662.329126	286.968000
2663.733192	287.818000
2665.137014	288.565000
2666.540591	289.270000
2667.942336	291.091000
2669.345425	292.690000
2670.745097	289.957000
2672.146112	290.721000
2673.543710	290.141000
2674.944239	290.279000
2676.341353	289.315000
2677.739810	291.136000
2679.136439	291.080000
2680.532827	288.593000
2681.928972	290.274000
2683.323291	289.192000
2684.718953	290.386000
2686.111205	291.828000
2687.504801	289.723000
2688.896572	292.451000
2690.289685	292.432000
2691.680975	291.541000
2693.070442	293.481000
2694.459670	290.880000
2695.848657	292.567000
2697.238987	293.547000
2698.624332	293.972000
2700.012602	293.850000
2701.399050	294.934000
2702.785261	294.755000
2704.171232	295.222000
2705.553805	295.205000
2706.937719	295.511000
2708.321396	297.076000
2709.704835	298.496000
2711.084878	297.681000
2712.466263	300.323000
2713.845832	302.099000
2715.226743	300.286000
2716.605839	302.431000
2717.983120	301.212000
2719.361743	302.718000
2720.738553	305.219000
2722.115127	304.319000
2723.491465	305.633000
2724.865991	305.629000
2726.241858	306.095000
2727.614338	303.721000
2728.989735	308.095000
2730.360170	308.834000
2731.731947	309.676000
2733.103490	305.726000
2734.473224	308.431000
2735.844298	309.966000
2737.213565	311.591000
2738.582598	309.097000
2739.949824	311.606000
2741.316818	311.663000
2742.683579	312.002000
2744.050107	312.658000
2745.414830	315.392000
2746.779322	315.357000
2748.143581	314.152000
2749.507609	317.751000
2750.871404	316.571000
2752.231826	319.120000
2753.595159	319.828000
2754.953549	319.759000
2756.314849	318.663000
2757.672778	321.095000
2759.033617	319.389000
2760.392655	319.804000
2761.748325	322.936000
2763.106903	320.944000
2764.462115	322.444000
2765.817097	320.653000
2767.170282	321.436000
2768.526374	326.181000
2769.879102	323.913000
2771.231601	327.499000
2772.583872	326.190000
2773.937482	327.519000
2775.287730	328.280000
2776.636185	331.562000
2777.987544	327.519000
2779.335544	330.424000
2780.684883	330.545000
2782.032429	333.749000
2783.379748	333.344000
2784.726841	332.737000
2786.072143	328.928000
2787.417219	334.842000
2788.762069	333.981000
2790.106693	333.044000
2791.447964	333.846000
2792.790574	334.690000
2794.132959	335.511000
2795.475118	338.140000
2796.813928	339.005000
2798.155638	339.824000
2799.493999	340.205000
2800.833698	342.214000
2802.171611	342.314000
2803.507740	342.263000
2804.843646	346.740000
2806.180888	344.763000
2807.516347	347.393000
2808.851583	348.361000
2810.185037	348.208000
2811.519827	350.761000
2812.851276	352.173000
2814.185621	350.923000
2815.515068	348.604000
2816.845852	354.715000
2818.176414	350.989000
2819.505197	350.925000
2820.835317	350.119000
2822.163657	353.902000
2823.491777	353.836000
2824.818120	352.023000
2826.145798	354.310000
2827.470144	354.558000
2828.795825	351.270000
2830.119732	354.140000
2831.443418	352.685000
2832.768440	353.611000
2834.090133	352.519000
2835.411606	357.432000
2836.732861	356.759000
2838.053897	356.228000
2839.373161	356.720000
2840.693760	355.857000
2842.012587	354.789000
2843.331196	359.132000
2844.648035	355.642000
2845.964656	356.887000
2847.281059	357.259000
2848.595694	357.720000
2849.911663	358.525000
2851.224312	359.126000
2852.538297	356.358000
2853.852065	362.215000
2855.165616	359.657000
2856.477400	362.125000
2857.787419	361.124000
2859.098772	361.503000
2860.406809	363.026000
2861.716182	362.814000
2863.025339	366.652000
2864.334281	366.180000
2865.641460	367.231000
2866.946875	367.582000
2868.253625	367.637000
2869.558612	368.439000
2870.863386	366.752000
2872.166398	368.589000
2873.472292	370.092000
2874.773331	370.277000
2876.075703	369.708000
2877.376316	371.005000
2878.678263	369.425000
2879.979997	368.748000
2881.278427	372.561000
2882.578190	369.115000
2883.876196	366.870000
2885.173990	370.478000
2886.470027	366.918000
2887.767398	368.215000
2889.063013	367.400000
2890.358418	369.573000
2891.653611	370.242000
2892.945506	372.785000
2894.240278	368.560000
2895.531754	370.451000
2896.824562	369.242000
2898.117160	369.999000
2899.406463	371.925000
2900.697099	371.521000
2901.985985	373.044000
2903.276202	369.042000
2904.563128	372.438000
2905.851386	372.614000
2907.137895	371.743000
2908.424195	372.313000
2909.710287	372.531000
2910.994631	372.067000
2912.281847	371.465000
2913.564236	373.516000
2914.847957	372.856000
2916.129931	372.178000
2917.411699	372.891000
2918.691721	374.222000
2919.974613	374.062000
2921.255760	373.014000
2922.533625	374.536000
2923.814359	374.312000
2925.091812	373.544000
2926.369060	374.028000
2927.644565	373.039000
2928.922938	374.628000
2930.196496	372.338000
2931.472922	374.214000
2932.747607	372.088000
2934.020552	372.389000
2935.294827	373.486000
2936.567363	375.052000
2937.839695	375.586000
2939.108754	374.247000
2940.380678	376.507000
2941.650863	374.938000
2942.920846	371.472000
2944.190625	374.128000
2945.458667	373.498000
2946.724974	371.443000
2947.991078	372.729000
2949.258513	378.280000
2950.524212	374.705000
2951.789709	375.375000
2953.055004	377.147000
2954.317035	374.685000
2955.580395	376.016000
2956.843554	375.119000
2958.104980	378.887000
2959.367736	371.966000
2960.628761	377.469000
2961.888055	377.702000
2963.147148	378.101000
2964.406041	379.109000
2965.664734	379.380000
2966.923227	377.312000
2968.179991	377.122000
2969.436555	381.297000
2970.691392	379.620000
2971.947558	380.854000
2973.200468	383.167000
2974.454708	380.090000
2975.708749	385.300000
2976.961064	381.149000
2978.213181	381.455000
2979.463573	384.605000
2980.716820	385.972000
2981.965290	386.265000
2983.216614	387.368000
2984.464690	388.397000
2985.712568	388.653000
2986.960249	385.989000
2988.207734	387.493000
2989.453497	388.846000
2990.699063	388.024000
2991.945958	391.381000
2993.189607	388.459000
2994.434585	392.264000
2995.676320	393.148000
2996.920906	390.708000
2998.163773	392.683000
2999.403398	393.893000
3000.645875	392.987000
3001.885111	396.889000
3003.125675	393.829000
3004.364522	400.083000
3005.603175	395.680000
3006.840112	397.862000
3008.078376	397.766000
3009.314926	403.087000
3010.551282	396.116000
3011.787444	401.658000
3013.021892	400.675000
3014.256147	399.638000
3015.490209	402.999000
3016.722559	403.852000
3017.953197	403.570000
3019.186681	402.909000
3020.418454	404.872000
3021.648515	407.193000
3022.878385	405.996000
3024.106545	403.270000
3025.336032	407.056000
3026.563809	406.378000
3027.791395	405.988000
3029.020307	406.535000
3030.244477	404.437000
3031.471490	409.481000
3032.695280	408.060000
3033.920395	408.288000
3035.143804	409.824000
3036.367024	407.614000
3037.588538	410.937000
3038.812893	408.377000
3040.032513	413.081000
3041.253459	412.419000
3042.474215	410.186000
3043.693268	412.146000
3044.913647	415.819000
3046.130809	414.315000
3047.349296	414.629000
3048.566082	416.978000
3049.782679	417.558000
3050.999089	415.671000
3052.212285	418.992000
3053.428319	418.551000
3054.641141	416.083000
3055.856800	418.108000
3057.067736	419.410000
3058.279998	419.820000
3059.492072	417.622000
3060.703960	420.576000
3061.914150	420.408000
3063.124155	419.749000
3064.333973	420.988000
3065.542095	422.480000
3066.750031	420.544000
3067.956273	421.483000
3069.163839	423.048000
3070.369710	423.452500
3071.575396	423.857000
3072.780897	424.686000
3073.984706	425.584000
3075.189838	423.820000
3076.393277	431.236000
3077.595024	428.257000
3078.796588	426.099000
3079.997968	428.950000
3081.199164	430.479000
3082.398670	429.491000
3083.597992	430.292000
3084.798638	431.314000
3085.997595	432.319000
3087.193356	432.709000
3088.391947	429.491000
3089.587344	432.760000
3090.784065	432.555000
3091.977593	433.155000
3093.173949	432.664000
3094.368618	434.494000
3095.560097	433.299000
3096.755907	437.859000
3097.947024	434.277000
3099.139464	434.947000
3100.328715	435.683000
3101.520793	436.414000
3102.711187	431.927000
3103.898394	440.932000
3105.086925	438.584000
3106.276778	440.213000
3107.463446	437.473000
3108.649935	438.297000
3109.836244	438.443000
3111.023876	438.074000
3112.208325	437.123000
3113.391094	437.386000
3114.576687	438.174000
3115.760599	439.866000
3116.942833	440.525000
3118.124889	439.097000
3119.306766	437.411000
3120.488465	438.750000
3121.668487	438.361000
3122.846831	439.876000
3124.027997	442.338000
3125.205987	443.239000
3126.383800	442.615000
3127.561436	442.286000
3128.737397	442.951000
3129.913182	441.974000
3131.090287	443.103000
3132.265719	441.773000
3133.439477	441.730000
3134.611562	446.446000
3135.784968	443.193000
3136.958199	446.940000
3138.129757	444.349000
3139.302637	448.668000
3140.472349	447.789000
3141.643382	450.754000
3142.812744	453.508000
3143.980437	453.072000
3145.150945	452.488000
3146.316794	450.986000
3147.486953	447.711000
3148.652454	449.968000
3149.817782	450.867000
3150.982936	451.501000
3152.147917	453.194000
3153.314217	451.381000
3154.475864	450.157000
3155.638832	446.152000
3156.801626	447.358000
3157.964248	445.443000
3159.125205	441.583000
3160.285989	442.208000
3161.446601	441.781000
3162.605550	439.637000
3163.764326	440.784000
3164.922931	443.042000
3166.081364	435.726000
3167.239625	446.900000
3168.396224	442.341000
3169.551162	440.732000
3170.707419	441.249000
3171.862016	440.509000
3173.016441	446.948000
3174.169207	444.637000
3175.321803	442.198000
3176.474229	444.491000
3177.626484	447.565000
3178.778570	446.077000
3179.927509	444.955000
3181.079255	451.301000
3182.229344	444.546000
3183.377775	448.363000
3184.526038	449.778000
3185.674132	453.329000
3186.822056	453.181000
3187.968326	453.733000
3189.114427	457.377000
3190.258874	459.702000
3191.403152	459.916000
3192.547263	460.985000
3193.692692	457.736000
3194.834982	458.899000
3195.977104	457.028000
3197.119060	462.163000
3198.260848	460.461000
3199.402469	460.771000
3200.540954	460.618000
3201.680758	461.196000
3202.821878	460.925000
3203.959864	461.452000
3205.096201	463.037000
3206.232372	462.825000
3207.369861	466.160000
3208.505701	464.525000
3209.642857	465.436000
3210.775401	466.790000
3211.912227	467.137000
3213.044441	466.722000
3214.177973	467.705000
3215.311339	464.382000
3216.441578	465.638000
3217.574615	464.125000
3218.704526	458.289000
3219.835754	462.662000
3220.963856	459.636000
3222.094756	461.880000
3223.224011	461.891000
3224.351622	458.894000
3225.476112	460.154000
3226.604877	464.968000
3227.730520	460.793000
3228.856000	462.847000
3229.979839	461.864000
3231.106473	462.779000
3232.228508	463.517000
3233.351860	465.235000
3234.475050	463.864000
3235.598078	463.329000
3236.719466	464.223000
3237.840693	465.403000
3238.960281	467.362000
3240.079708	463.866000
3241.197497	469.045000
3242.318079	464.831000
3243.435547	470.438000
3244.552854	473.141000
3245.670000	475.552000
3246.785511	475.590000
3247.902337	479.950000
3249.016052	479.173000
3250.132558	482.065000
3251.247428	479.808000
3252.359190	480.358000
3253.470793	483.042000
3254.583711	480.971000
3255.696469	480.501000
3256.806121	479.949000
3257.917088	480.778000
3259.027896	477.994000
3260.137072	481.955000
3261.244617	482.645000
3262.353477	478.902000
3263.462178	482.860000
3264.567777	485.096000
3265.674691	487.917000
3266.779975	486.440000
3267.886573	486.945000
3268.990071	487.153000
3270.094883	489.194000
3271.199538	488.503000
3272.301095	490.850000
3273.402495	489.174000
3274.505209	491.772000
3275.607766	490.177000
3276.707228	491.138000
3277.809472	493.266000
3278.908622	491.016000
3280.006146	491.522000
3281.103515	494.906000
3282.203667	494.076000
3283.300725	497.398000
3284.397629	492.831000
3285.494377	492.620000
3286.586566	495.595000
3287.683005	491.766000
3288.777821	492.948000
3289.872482	496.176000
3290.965522	492.881000
3292.058408	500.380000
3293.149673	496.901000
3294.242251	493.031000
3295.333209	500.583000
3296.422547	495.410000
3297.511732	497.291000
3298.602229	495.780000
3299.689642	500.840000
3300.776903	499.547000
3301.865476	500.827000
3302.953896	499.004000
3304.037769	500.429000
3305.125884	504.085000
3306.210918	505.515000
3307.294336	505.585000
3308.379066	504.924000
3309.462180	507.107000
3310.546606	513.256000
3311.627954	506.456000
3312.710614	513.661000
3313.791660	506.846000
3314.872555	514.008000
3315.951837	509.013000
3317.030968	513.770000
3318.111410	511.667000
3319.188779	514.238000
3320.267459	515.554000
3321.344527	513.657000
3322.421445	516.242000
3323.496753	513.433000
3324.571911	516.355000
3325.648380	517.756000
3326.721778	515.589000
3327.795028	516.735000
3328.869589	517.585000
3329.942540	517.636000
3331.013884	519.835000
3332.086538	521.612000
3333.156125	517.439000
3334.227023	520.328000
3335.296314	518.401000
3336.366916	518.307000
3337.435911	519.165000
3338.503300	514.947000
3339.569084	515.169000
3340.639094	516.791000
3341.706041	514.486000
3342.769926	516.154000
3343.836579	517.831000
3344.901628	514.851000
3345.965073	516.517000
3347.028371	520.008000
3348.091524	517.285000
3349.154530	518.639000
3350.217389	519.205000
3351.278647	517.995000
3352.336848	519.642000
3353.399270	520.392000
3354.458635	518.661000
3355.517856	523.354000
3356.578385	519.782000
3357.634405	524.418000
3358.693190	526.110000
3359.747467	527.099000
3360.804508	527.088000
3361.859950	531.039000
3362.916701	530.045000
3363.971855	529.355000
3365.025411	531.598000
3366.077370	532.144000
3367.132091	532.833000
3368.183764	535.690000
3369.235292	533.094000
3370.288130	533.348000
3371.337920	536.045000
3372.389019	533.647000
3373.437071	536.722000
3374.487884	536.779000
3375.535651	538.844000
3376.583276	538.448000
3377.630759	540.833000
3378.676648	543.083000
3379.723847	542.613000
3380.768002	541.300000
3381.814916	543.835000
3382.860238	542.472000
3383.902520	546.721000
3384.944660	545.690000
3385.988109	547.893000
3387.031416	544.146000
3388.073133	544.898000
3389.114709	549.270000
3390.156145	547.061000
3391.195992	550.471000
3392.234250	547.909000
3393.273816	552.902000
3394.313242	553.776000
3395.351080	552.772000
3396.387331	552.473000
3397.423442	554.783000
3398.460861	552.542000
3399.495247	554.109000
3400.530941	556.711000
3401.566495	556.694000
3402.599017	558.558000
3403.634293	560.298000
3404.666538	554.781000
3405.698645	561.154000
3406.729168	560.618000
3407.760999	562.826000
3408.792691	562.604000
3409.821355	563.168000
3410.849881	563.129000
3411.879715	563.720000
3412.909410	563.144000
3413.936080	564.942000
3414.964057	567.604000
3415.989009	567.330000
3417.016711	569.674000
3418.041390	572.720000
3419.067375	572.680000
3420.091781	573.242000
3421.116049	568.887000
3422.138739	573.849000
3423.161293	569.105000
3424.185153	574.357000
3425.205993	571.474000
3426.226698	570.292000
3427.248708	569.030000
3428.267700	568.567000
3429.286557	569.917000
3430.306719	568.890000
3431.323865	573.271000
