-117.932748	0.843000
-115.263147	0.951000
-112.596482	1.045000
-109.930570	0.376000
-107.267589	1.338000
-104.603178	1.326000
-101.941698	3.849000
-99.278789	0.334000
-96.620987	1.230000
-93.961754	1.073000
-91.303270	1.833000
-88.647711	1.743000
-85.990723	1.588000
-83.338832	0.843000
-80.685512	3.108000
-78.035112	1.436000
-75.383282	1.809000
-72.736543	-0.718000
-70.088374	3.077000
-67.440949	1.459000
-64.796437	2.154000
-62.150497	0.613000
-59.509638	1.770000
-56.867349	2.941000
-54.227970	1.647000
-51.587162	-0.189000
-48.947093	2.425000
-46.312098	2.451000
-43.675673	0.623000
-41.042152	1.220000
-38.407202	1.928000
-35.777317	0.968000
-33.143839	1.193000
-30.515424	1.777000
-27.887743	2.091000
-25.258634	0.404000
-22.634581	2.199000
-20.006939	1.762000
-17.384350	1.898000
-14.762492	1.716000
-12.141365	2.271000
-9.520969	-0.126000
-6.903460	4.194000
-4.284523	6.620000
-1.668472	14.771000
0.946851	13.977000
3.561447	9.666000
6.173161	3.817000
8.786302	1.972000
11.394410	2.804000
14.006100	2.374000
16.612759	1.793000
19.220846	2.157000
21.828209	1.083000
24.430547	1.883000
27.036463	0.657000
29.637358	2.319000
32.239680	0.725000
34.836984	1.656000
37.437864	2.173000
40.033730	3.348000
42.631023	1.757000
45.227597	1.975000
47.819162	1.484000
50.412155	2.088000
53.002287	1.939000
55.593847	3.877000
58.182547	1.889000
60.772675	1.916000
63.357803	1.344000
65.944359	3.385000
68.530200	1.526000
71.113188	4.283000
73.697603	1.611000
76.274888	3.751000
78.855740	2.399000
81.433743	3.098000
84.011036	2.386000
86.589755	3.488000
89.163493	2.468000
91.738657	3.221000
94.310978	2.148000
96.882592	3.273000
99.451365	2.533000
102.021565	3.254000
104.588926	2.206000
107.157714	5.117000
109.723664	3.182000
112.286780	4.203000
114.853453	4.725000
117.410903	6.375000
119.974039	7.319000
122.532216	12.086000
125.093946	14.580000
127.650721	22.087000
130.208921	32.890000
132.762169	50.235000
135.314718	74.886000
137.870819	106.245000
140.421971	141.271000
142.972425	182.913000
145.522183	216.028000
148.069121	243.767000
150.615363	259.348000
153.163032	270.061000
155.710004	275.580000
158.252040	278.146000
160.793383	277.547000
163.334034	280.538000
165.876109	279.560000
168.415374	283.657000
170.951829	281.020000
173.487594	281.553000
176.024784	281.174000
178.561282	284.717000
181.094975	284.203000
183.625865	282.766000
186.156066	283.264000
188.687692	283.567000
191.216517	282.457000
193.742544	285.365000
196.267884	285.120000
198.794649	286.315000
201.318618	286.215000
203.841901	284.464000
206.364500	285.155000
208.884306	285.907000
211.403429	285.375000
213.921869	286.218000
216.441733	285.704000
218.954596	286.072000
221.470990	287.306000
223.986703	285.984000
226.497525	285.872000
229.009772	288.861000
231.519236	289.065000
234.028022	289.237000
236.536130	288.006000
239.045662	288.840000
241.550313	290.645000
244.054288	289.012000
246.559687	288.745000
249.060211	292.827000
251.564258	290.467000
254.061335	293.438000
256.561934	292.876000
259.059762	291.846000
261.556917	291.434000
264.053399	291.340000
266.545019	292.311000
269.040157	292.197000
271.532530	291.359000
274.024232	291.291000
276.513171	291.548000
279.003533	292.388000
281.491134	290.608000
283.975975	292.897000
286.464330	291.981000
288.945746	290.429000
291.430677	289.531000
293.910761	291.983000
296.394358	289.422000
298.873113	294.482000
301.353290	290.667000
303.830716	293.414000
306.307478	293.825000
308.783576	292.785000
311.256926	290.523000
313.729615	294.207000
316.201641	292.998000
318.673007	297.718000
321.141629	295.323000
323.609591	299.593000
326.078976	296.561000
328.543538	297.740000
331.011603	297.413000
333.474849	298.367000
335.937438	297.811000
338.399369	299.301000
340.860644	298.637000
343.319185	299.911000
345.779148	299.376000
348.236379	298.576000
350.692955	299.543000
353.148876	300.465000
355.602069	297.626000
358.056684	300.062000
360.506497	298.933000
362.959806	300.798000
365.408316	296.233000
367.856176	297.778000
370.305457	300.087000
372.749945	300.085000
375.195855	295.842000
377.641116	297.917000
380.083658	297.937000
382.525552	300.033000
384.966798	298.888000
387.405329	299.532000
389.845282	298.213000
392.282521	299.882000
394.717048	299.070000
397.155063	303.972000
399.588301	299.543000
402.022961	300.909000
404.452847	299.548000
406.886220	300.241000
409.314821	302.012000
411.742782	300.407000
414.172163	301.702000
416.596780	304.660000
419.022817	303.067000
421.448215	302.755000
423.872972	304.037000
426.292970	305.842000
428.714390	307.570000
431.133113	307.610000
433.553257	305.924000
435.970706	307.585000
438.389575	305.659000
440.805751	307.631000
443.217180	307.024000
445.632085	307.774000
448.044300	307.544000
450.455881	310.759000
452.866828	310.171000
455.275089	311.175000
457.682718	309.370000
460.089714	312.008000
462.496078	309.029000
464.899761	311.631000
467.302813	309.647000
469.705235	312.898000
472.107027	310.790000
474.506141	310.573000
476.906675	311.219000
479.306580	311.909000
481.701762	308.901000
484.100411	311.681000
486.494340	308.522000
488.887643	309.895000
491.280320	309.637000
493.672372	310.435000
496.065843	309.065000
498.454601	311.631000
500.840693	311.807000
503.228205	310.647000
505.615093	310.369000
507.999318	311.419000
510.384962	310.421000
512.767943	311.059000
515.148264	308.650000
517.530004	314.973000
519.909085	311.345000
522.289585	313.467000
524.667427	313.161000
527.042614	315.130000
529.417183	313.253000
531.793171	315.245000
534.166505	315.150000
536.541258	314.994000
538.911324	315.733000
541.280775	316.690000
543.651645	314.828000
546.017833	314.309000
548.385440	315.424000
550.750401	315.820000
553.114749	316.770000
555.478485	317.852000
557.843638	319.008000
560.204119	319.824000
562.566017	315.824000
564.925276	318.222000
567.281896	315.395000
569.641962	319.116000
571.995336	314.274000
574.352155	318.971000
576.706339	316.408000
579.059914	318.043000
581.412881	315.414000
583.763217	315.004000
586.114969	316.350000
588.460045	315.907000
590.810585	314.218000
593.154452	316.678000
595.503780	316.340000
597.848459	316.450000
600.190514	317.384000
602.533986	314.964000
604.874835	314.751000
607.215081	317.556000
609.552707	318.516000
611.893768	314.292000
614.230192	318.580000
616.568032	317.076000
618.903254	316.037000
621.235861	317.142000
623.569885	318.438000
625.901294	318.342000
628.232105	313.760000
630.562318	317.501000
632.891933	317.031000
635.216926	316.958000
637.547360	319.057000
639.873172	320.403000
642.196378	321.872000
644.521000	319.490000
646.843016	319.003000
649.164438	320.102000
651.483257	320.218000
653.803492	319.040000
656.123134	318.003000
658.440175	320.382000
660.756625	319.414000
663.070476	320.269000
665.385742	319.252000
667.698412	322.748000
670.012497	318.619000
672.321983	322.052000
674.632883	320.224000
676.941191	319.749000
679.248911	320.014000
681.558046	321.381000
683.862588	320.591000
686.166544	319.154000
688.469913	319.556000
690.774697	322.126000
693.074895	317.600000
695.376508	320.073000
697.677535	318.322000
699.973981	322.188000
702.271841	318.034000
704.569118	318.617000
706.865812	318.051000
709.157930	319.044000
711.453459	317.836000
713.744415	322.970000
716.036785	320.338000
718.326579	320.112000
720.615794	319.370000
722.904428	321.224000
725.190491	320.848000
727.477967	322.782000
729.762873	321.400000
732.047200	322.219000
734.328960	322.918000
736.612133	320.122000
738.894729	321.041000
741.172769	322.923000
743.452223	323.660000
745.731102	324.551000
748.009405	323.482000
750.283159	327.956000
752.558327	328.361000
754.832921	328.051000
757.104956	327.239000
759.378404	327.912000
761.649294	327.281000
763.917627	327.513000
766.187375	326.100000
768.454567	326.018000
770.721189	328.954000
772.987242	327.380000
775.250743	323.346000
777.515656	327.602000
779.780001	326.292000
782.039815	325.171000
784.301043	325.276000
786.561703	326.364000
788.819816	326.586000
791.075385	327.111000
793.334345	328.058000
795.586806	327.232000
797.844634	327.445000
800.097943	327.230000
802.348711	327.052000
804.600892	325.449000
806.850535	327.291000
809.101589	327.045000
811.348132	324.422000
813.596088	326.450000
815.841508	326.450000
818.088341	325.639000
820.334611	324.847000
822.576378	325.362000
824.821527	325.880000
827.060204	327.452000
829.302264	324.666000
831.539825	327.357000
833.778797	326.026000
836.015243	327.274000
838.253101	325.091000
840.488433	326.019000
842.721241	330.392000
844.955461	328.002000
847.187159	327.886000
849.418302	329.448000
851.648890	329.084000
853.878924	333.116000
856.108403	330.743000
858.333402	330.933000
860.561774	330.137000
862.785668	330.397000
865.010972	331.541000
867.231801	331.229000
869.456002	329.291000
871.675730	328.778000
873.896869	331.193000
876.117457	332.847000
878.335536	331.612000
880.555024	333.029000
882.770046	328.692000
884.984520	329.704000
887.198447	330.240000
889.411826	330.017000
891.624659	328.102000
893.836944	328.397000
896.046728	329.443000
898.255966	326.918000
900.464658	326.454000
902.670852	329.466000
904.878455	325.419000
907.083561	326.589000
909.288123	328.849000
911.490189	332.132000
913.693666	327.940000
915.894648	328.296000
918.095088	329.206000
920.296937	331.217000
922.492394	329.180000
924.691211	333.924000
926.885590	329.774000
929.083326	330.406000
931.276626	327.391000
933.471334	333.070000
935.663557	329.039000
937.855242	331.281000
940.046389	332.880000
942.235053	333.239000
944.423180	333.534000
946.608827	330.996000
948.797826	333.975000
950.982402	334.585000
953.166443	334.553000
955.353834	333.671000
957.532922	336.083000
959.715359	336.295000
961.897263	335.889000
964.076693	335.969000
966.253650	338.926000
968.432015	340.201000
970.611786	340.722000
972.785209	340.602000
974.961978	338.913000
977.134341	341.914000
979.308110	340.111000
981.477477	339.880000
983.650187	340.601000
985.820431	339.832000
987.990147	339.434000
990.159334	340.108000
992.324124	339.381000
994.492255	341.736000
996.655992	340.010000
998.821136	340.355000
1000.983820	340.111000
1003.145979	340.896000
1005.305680	346.108000
1007.464858	342.248000
1009.625442	339.794000
1011.783571	341.168000
1013.941176	341.873000
1016.098258	339.352000
1018.254817	340.915000
1020.406996	342.308000
1022.560582	337.702000
1024.713645	342.636000
1026.864261	338.093000
1029.016282	343.193000
1031.163930	345.159000
1033.314910	345.503000
1035.461520	344.728000
1037.607610	347.703000
1039.753182	347.901000
1041.900158	349.810000
1044.040847	349.878000
1046.184864	349.604000
1048.326441	352.111000
1050.467502	355.748000
1052.609967	355.977000
1054.746153	358.687000
1056.885665	359.884000
1059.020821	359.038000
1061.159302	361.209000
1063.293430	361.186000
1065.427044	363.153000
1067.562062	361.145000
1069.692731	365.060000
1071.824806	367.385000
1073.954450	365.753000
1076.083583	369.115000
1078.212205	366.193000
1080.340315	367.526000
1082.465999	366.225000
1084.591173	370.258000
1086.717750	365.156000
1088.839991	369.464000
1090.963636	369.195000
1093.082946	367.427000
1095.207485	364.911000
1097.325780	366.736000
1099.445478	367.569000
1101.562758	367.200000
1103.679532	364.266000
1105.795799	368.637000
1107.909651	366.594000
1110.024906	364.080000
1112.135839	364.251000
1114.250083	365.316000
1116.360008	364.538000
1118.471335	361.774000
1120.582159	361.528000
1122.688666	364.237000
1124.798482	363.260000
1126.903984	365.355000
1129.010890	360.430000
1131.111579	361.997000
1133.217481	362.872000
1135.319074	364.553000
1137.422070	362.597000
1139.524565	360.989000
1141.620854	358.325000
1143.722349	359.479000
1145.819542	359.328000
1147.916236	358.963000
1150.012433	359.232000
1152.108131	359.348000
1154.203332	359.522000
1156.296136	356.304000
1158.390342	361.598000
1160.478357	359.896000
1162.571570	359.700000
1164.658595	361.739000
1166.748920	359.472000
1168.834956	359.941000
1170.924290	358.984000
1173.007443	357.341000
1175.091999	361.693000
1177.177955	360.429000
1179.259630	358.705000
1181.342707	361.773000
1183.423398	360.000000
1185.503597	361.405000
1187.583306	358.916000
1189.662522	361.558000
1191.739357	359.877000
1193.813811	361.500000
1195.891557	362.963000
1197.965032	359.664000
1200.039909	362.789000
1202.110518	361.784000
1204.182528	361.746000
1206.252162	363.454000
1208.323197	358.022000
1210.393744	365.103000
1212.460030	362.700000
1214.527717	362.671000
1216.593032	364.073000
1218.659747	364.561000
1220.722206	365.228000
1222.787950	363.219000
1224.849441	367.002000
1226.912331	367.002000
1228.972854	364.737000
1231.032894	365.132000
1233.092450	366.115000
1235.149642	365.592000
1237.206351	367.726000
1239.260698	365.996000
1241.318325	364.795000
1243.373590	367.299000
1245.424614	367.311000
1247.477038	367.781000
1249.528983	367.050000
1251.578569	368.801000
1253.627676	368.924000
1255.676304	371.719000
1257.724454	372.408000
1259.772126	373.277000
1261.815567	373.640000
1263.862283	371.973000
1265.906647	373.277000
1267.950533	375.206000
1269.992069	376.917000
1272.031255	378.198000
1274.073713	379.034000
1276.111950	382.206000
1278.151584	381.997000
1280.190744	384.383000
1282.225686	382.470000
1284.262026	382.109000
1286.296021	384.201000
1288.331415	383.737000
1290.362595	384.675000
1292.395174	384.218000
1294.427280	382.251000
1296.457046	385.004000
1298.488210	383.097000
1300.515166	385.737000
1302.543520	383.093000
1304.567670	387.053000
1306.595085	383.347000
1308.618297	384.327000
1310.642906	389.182000
1312.665182	391.372000
1314.688855	392.988000
1316.710195	399.751000
1318.731067	409.616000
1320.751473	429.973000
1322.767684	471.125000
1324.785294	557.941000
1326.800575	808.402000
1328.819115	1421.860000
1330.833465	2275.410000
1332.845490	2412.345000
1334.860773	1652.488000
1336.871870	834.845000
1338.884363	532.884000
1340.892674	449.891000
1342.904241	408.811000
1344.909769	392.888000
1346.918551	380.963000
1348.923157	378.852000
1350.931016	372.612000
1352.938412	371.560000
1354.939778	366.355000
1356.942541	366.023000
1358.944844	365.793000
1360.946686	362.563000
1362.948070	363.110000
1364.947139	363.549000
1366.945750	362.518000
1368.943903	362.619000
1370.941598	360.339000
1372.935129	359.799000
1374.930057	360.059000
1376.924528	359.165000
1378.918542	359.610000
1380.910249	361.085000
1382.901500	360.829000
1384.890446	359.569000
1386.880787	356.144000
1388.870673	355.776000
1390.858256	358.622000
1392.845385	357.731000
1394.830212	357.410000
1396.816434	358.761000
1398.800355	357.095000
1400.783824	358.515000
1402.766841	359.259000
1404.747560	359.412000
1406.729673	358.225000
1408.709489	358.872000
1410.688855	359.053000
1412.664082	362.659000
1414.642547	360.610000
1416.618719	361.925000
1418.594441	361.166000
1420.569714	363.402000
1422.542696	361.509000
1424.515231	365.706000
1426.487317	364.324000
1428.458955	367.625000
1430.426466	365.099000
1432.399050	366.315000
1434.363828	365.907000
1436.333679	366.321000
1438.299405	364.288000
1440.266525	367.697000
1442.231361	361.306000
1444.192077	365.927000
1446.157861	364.328000
1448.117690	367.975000
1450.078912	365.518000
1452.041527	366.609000
1454.000027	366.079000
1455.958085	368.304000
1457.915700	366.372000
1459.872874	363.956000
1461.827772	368.787000
1463.784062	369.388000
1465.738078	365.816000
1467.691654	369.494000
1469.642957	366.512000
1471.595652	366.118000
1473.546076	365.331000
1475.496061	363.887000
1477.445606	367.078000
1479.392883	367.588000
1481.337893	363.515000
1483.284295	365.238000
1485.230259	365.105000
1487.175785	366.707000
1489.119047	364.065000
1491.061872	367.021000
1493.002434	361.959000
1494.944387	365.115000
1496.884079	363.454000
1498.823335	362.274000
1500.762157	363.903000
1502.698719	363.101000
1504.636671	364.581000
1506.572366	365.640000
1508.507627	367.272000
1510.440631	364.943000
1512.373203	366.668000
1514.305343	367.218000
1516.237051	364.859000
1518.166506	366.637000
1520.097350	366.378000
1522.027764	367.515000
1523.954105	367.014000
1525.881836	367.422000
1527.807317	367.843000
1529.732369	366.138000
1531.656992	369.171000
1533.581186	367.810000
1535.503133	368.924000
1537.426469	366.932000
1539.347560	366.207000
1541.266406	371.485000
1543.186642	372.060000
1545.104634	367.239000
1547.022200	369.821000
1548.937524	371.465000
1550.854238	369.331000
1552.766897	370.028000
1554.682760	371.256000
1556.596384	373.988000
1558.507769	369.046000
1560.420543	367.739000
1562.329268	372.270000
1564.239383	373.270000
1566.149074	368.489000
1568.058341	372.476000
1569.965375	370.900000
1571.870176	370.488000
1573.776366	370.773000
1575.680324	371.313000
1577.583862	370.950000
1579.486978	369.865000
1581.387866	372.575000
1583.290142	370.173000
1585.190189	373.850000
1587.091625	372.806000
1588.989026	369.788000
1590.886010	370.095000
1592.782575	369.288000
1594.680527	371.399000
1596.572645	371.963000
1598.467957	375.655000
1600.362850	372.284000
1602.255522	371.873000
1604.147778	370.784000
1606.037814	370.908000
1607.927434	372.760000
1609.816639	371.966000
1611.705428	373.106000
1613.592001	370.991000
1615.479960	373.181000
1617.363904	374.425000
1619.249234	373.732000
1621.134150	374.402000
1623.016854	374.108000
1624.900943	374.749000
1626.781022	373.251000
1628.662487	377.077000
1630.541742	375.503000
1632.422383	375.769000
1634.297220	376.396000
1636.177039	377.949000
1638.052852	375.400000
1639.928256	379.227000
1641.805045	377.615000
1643.676037	379.222000
1645.550211	376.301000
1647.420387	379.652000
1649.293743	377.573000
1651.164896	377.950000
1653.033847	378.604000
1654.904184	382.289000
1656.770527	377.855000
1658.638256	379.729000
1660.503787	379.901000
1662.370702	380.731000
1664.233629	381.715000
1666.097941	378.497000
1667.960058	380.447000
1669.821769	380.257000
1671.684865	378.652000
1673.545767	382.248000
1675.404475	380.657000
1677.262780	379.168000
1679.122470	379.127000
1680.976393	381.133000
1682.833488	380.978000
1684.690181	383.810000
1686.542898	381.906000
1688.398786	383.471000
1690.250700	383.785000
1692.102212	382.731000
1693.953325	380.336000
1695.804036	382.398000
1697.654347	382.997000
1699.502474	384.703000
1701.351984	380.512000
1703.195746	381.682000
1705.044458	383.448000
1706.887423	383.520000
1708.733554	383.376000
1710.575724	381.338000
1712.421058	385.861000
1714.260652	384.993000
1716.101630	383.950000
1717.943991	387.762000
1719.782396	382.035000
1721.622184	386.108000
1723.459797	385.380000
1725.297014	383.575000
1727.132058	384.531000
1728.968485	386.849000
1730.802740	385.107000
1732.636601	382.659000
1734.470067	385.247000
1736.299587	384.889000
1738.132266	381.454000
1739.961001	384.513000
1741.792894	381.334000
1743.620844	387.773000
1745.448402	380.469000
1747.275569	380.256000
1749.102343	381.800000
1750.928727	380.790000
1752.751174	382.945000
1754.576775	383.629000
1756.398442	382.056000
1758.221491	384.215000
1760.042379	378.198000
1761.862877	382.676000
1763.684757	379.074000
1765.500937	380.870000
1767.320269	379.751000
1769.135674	380.547000
1770.954229	377.792000
1772.768860	379.964000
1774.583103	379.732000
1776.396960	379.042000
1778.210430	381.367000
1780.021746	378.928000
1781.834444	378.253000
1783.646755	381.185000
1785.455149	377.448000
1787.264924	381.368000
1789.070783	378.029000
1790.879789	377.051000
1792.684881	378.329000
1794.491353	377.083000
1796.297442	378.372000
1798.099621	376.724000
1799.904943	375.361000
1801.706357	376.104000
1803.509151	375.529000
1805.308040	376.586000
1807.108308	375.269000
1808.908196	374.515000
1810.705941	374.886000
1812.503306	372.419000
1814.300290	370.639000
1816.096894	371.406000
1817.891359	372.629000
1819.687204	370.246000
1821.477393	370.515000
1823.272479	374.296000
1825.061912	369.160000
1826.854483	370.981000
1828.644918	370.732000
1830.433218	370.735000
1832.224654	372.087000
1834.010444	370.286000
1835.797614	369.867000
1837.582652	371.515000
1839.370824	370.606000
1841.155110	368.162000
1842.937267	368.515000
1844.720802	368.979000
1846.502210	367.939000
1848.284995	372.834000
1850.063901	372.486000
1851.844185	370.378000
1853.622344	369.898000
1855.401880	369.048000
1857.179292	369.084000
1858.954580	369.883000
1860.731247	371.577000
1862.505791	371.559000
1864.281712	371.678000
1866.052014	371.044000
1867.825443	372.652000
1869.596752	373.341000
1871.367690	371.270000
1873.140005	371.572000
1874.906708	374.730000
1876.676535	373.452000
1878.442499	374.832000
1880.211587	377.101000
1881.976813	372.856000
1883.741671	375.009000
1885.507905	376.415000
1887.270281	376.359000
1889.032290	373.279000
1890.793932	375.341000
1892.555206	372.500000
1894.316114	375.982000
1896.076654	373.850000
1897.835085	379.559000
1899.593151	374.107000
1901.349109	376.493000
1903.106443	374.993000
1904.863411	375.563000
1906.618274	375.511000
1908.371031	376.335000
1910.123425	377.218000
1911.877194	375.772000
1913.628861	377.051000
1915.378424	379.130000
1917.129364	374.728000
1918.879940	378.239000
1920.626678	380.438000
1922.374791	380.765000
1924.120805	380.282000
1925.868195	381.125000
1927.613486	377.958000
1929.356680	382.892000
1931.101250	381.175000
1932.843723	379.643000
1934.585836	382.081000
1936.327590	384.559000
1938.068983	384.733000
1939.808283	387.295000
1941.547224	386.946000
1943.285806	386.616000
1945.022296	386.256000
1946.758429	388.090500
1948.495936	389.925000
1950.229622	391.013000
1951.964682	391.086000
1953.697653	392.824000
1955.430268	393.080000
1957.162526	394.554000
1958.894428	393.228000
1960.624244	394.875000
1962.351976	394.413000
1964.081081	398.245000
1965.809832	395.325000
1967.536499	397.662000
1969.262812	396.342000
1970.990498	396.495000
1972.712648	397.941000
1974.437900	398.140000
1976.159344	398.870000
1977.883888	398.730000
1979.606353	396.637000
1981.325014	401.475000
1983.046774	402.253000
1984.764732	399.098000
1986.484064	398.171000
1988.199595	403.195000
1989.919948	400.092000
1991.636501	401.755000
1993.349259	401.167000
1995.065112	403.688000
1996.778892	401.412000
1998.492323	402.233000
2000.203683	402.297000
2001.916416	406.281000
2003.625357	400.894000
2005.337392	406.803000
2007.043917	405.259000
2008.753535	405.452000
2010.461085	406.541000
2012.168288	406.642000
2013.873425	405.335000
2015.578215	403.793000
2017.284377	402.017000
2018.986757	404.923000
2020.690509	404.859000
2022.392198	401.673000
2024.093541	403.416000
2025.794539	403.836000
2027.493477	404.918000
2029.193786	405.446000
2030.890319	403.538000
2032.588224	405.608000
2034.284071	405.609000
2035.983003	405.826000
2037.676448	405.301000
2039.371266	402.985000
2041.065740	407.233000
2042.756446	406.460000
2044.450236	404.946000
2046.140259	404.252000
2047.831653	403.374000
2049.520994	408.197000
2051.211705	402.403000
2052.898654	404.750000
2054.585262	402.747000
2056.273241	401.898000
2057.957460	401.616000
2059.643049	401.272000
2061.328299	400.071000
2063.011501	398.563000
2064.696073	400.651000
2066.375181	398.900000
2068.059075	397.518000
2069.737509	394.532000
2071.419020	398.659000
2073.096779	399.094000
2074.774202	399.471000
2076.452994	397.078000
2078.129743	398.301000
2079.804451	401.433000
2081.480528	398.423000
2083.154565	401.915000
2084.828266	396.762000
2086.501632	400.509000
2088.172960	399.915000
2089.843953	398.394000
2091.514612	400.328000
2093.184937	398.989000
2094.854927	400.114000
2096.522882	399.653000
2098.190504	399.535000
2099.856092	400.013000
2101.523048	402.245000
2103.187971	403.827000
2104.852561	405.463000
2106.515120	406.489000
2108.179048	407.549000
2109.840944	406.632000
2111.502509	407.529000
2113.163744	407.181000
2114.822949	406.341000
2116.481825	409.192000
2118.140370	406.627000
2119.798586	410.270000
2121.453078	408.041000
2123.110636	406.982000
2124.767863	410.358000
2126.421370	409.992000
2128.076244	408.657000
2129.727399	410.428000
2131.381617	408.974000
2133.032117	407.327000
2134.683985	408.728000
2136.330444	409.317000
2137.981657	406.802000
2139.629157	411.020000
2141.278025	410.834000
2142.924873	408.550000
2144.571395	410.494000
2146.217592	412.225000
2147.860081	409.806000
2149.505628	411.356000
2151.147468	408.759000
2152.792365	410.631000
2154.433557	406.314000
2156.074425	408.951000
2157.714970	407.741000
2159.353502	406.525000
2160.993400	411.456000
2162.629598	407.267000
2164.267162	406.481000
2165.904404	408.766000
2167.539636	403.068000
2169.174546	406.766000
2170.809135	406.420000
2172.443403	406.353000
2174.073977	406.427000
2175.707602	405.134000
2177.337536	409.235000
2178.968835	405.856000
2180.598130	406.758000
2182.227104	408.765000
2183.855760	406.712000
2185.484096	408.384000
2187.110429	406.982000
2188.736444	404.803000
2190.360458	406.284000
2191.985837	405.322000
2193.609215	403.482000
2195.233958	405.001000
2196.855019	405.751000
2198.475765	406.856000
2200.097874	405.286000
2201.717986	408.058000
2203.336102	403.421000
2204.953902	406.295000
2206.571386	404.354000
2208.188555	406.635000
2209.805409	404.529000
2211.421948	408.456000
2213.036493	405.374000
2214.649046	408.209000
2216.262964	408.370000
2217.874889	409.270000
2219.488179	406.278000
2221.099477	410.008000
2222.708787	407.339000
2224.319459	410.141000
2225.928143	406.482000
2227.536515	408.848000
2229.142899	409.291000
2230.750647	411.913000
2232.356408	408.533000
2233.961858	412.768000
2235.565324	411.083000
2237.170152	410.849000
2238.772996	411.107000
2240.373857	414.541000
2241.976081	411.994000
2243.576322	415.204000
2245.177927	414.532000
2246.775878	415.900000
2248.375192	415.197000
2249.972526	417.064000
2251.569552	415.246000
2253.167939	416.534000
2254.762678	418.235000
2256.355441	418.272000
2257.949565	413.841000
2259.545051	417.139000
2261.136893	416.732000
2262.728428	416.855000
2264.321324	415.230000
2265.908911	416.309000
2267.501195	416.933000
2269.088171	417.421000
2270.678176	417.324000
2272.262876	417.206000
2273.852270	416.305000
2275.436361	413.816000
2277.021814	414.193000
2278.605298	416.123000
2280.191807	412.745000
2281.774683	415.964000
2283.357255	410.291000
2284.939525	412.714000
2286.518164	413.998000
2288.099827	411.867000
2289.677862	412.561000
2291.258921	414.368000
2292.836352	413.534000
2294.411820	412.700000
2295.990310	408.780000
2297.565175	409.976000
2299.139740	409.403000
2300.714005	413.607000
2302.287969	407.598000
2303.861633	411.697000
2305.434996	410.881000
2307.004741	407.815000
2308.574187	412.444000
2310.146652	409.898000
2311.713842	409.035000
2313.284049	411.742000
2314.850642	413.843000
2316.418595	413.665000
2317.984593	410.316000
2319.550293	412.957000
2321.115695	416.228000
2322.679144	414.558000
2324.243952	415.127000
2325.805151	418.416000
2327.369365	416.510000
2328.928318	415.731000
2330.490284	417.506000
2332.050300	418.365000
2333.610020	413.471000
2335.167791	420.201000
2336.725268	416.146000
2338.282449	418.348000
2339.837684	418.626000
2341.392624	418.727000
2342.947271	418.197000
2344.501624	419.741000
2346.055683	417.622000
2347.609449	421.572000
2349.161270	419.203000
2350.711148	418.088000
2352.264034	417.446000
2353.811678	421.028000
2355.362329	416.505000
2356.909390	417.328000
2358.457808	418.448000
2360.005934	417.858000
2361.550473	419.024000
2363.096369	419.256000
2364.640326	419.740000
2366.185641	419.255000
2367.727371	418.762000
2369.270459	421.453000
2370.811610	419.271000
2372.352472	419.175000
2373.893045	418.981000
2375.433329	419.359000
2376.973324	418.655000
2378.509740	419.251000
2380.049158	418.313000
2381.584999	421.841000
2383.122196	416.656000
2384.655819	420.766000
2386.192441	415.346000
2387.727132	417.673000
2389.259894	418.319000
2390.792370	419.208000
2392.322917	417.992000
2393.856462	421.881000
2395.384796	420.908000
2396.914486	419.676000
2398.443891	420.848000
2399.973011	417.191000
2401.501845	420.592000
2403.025475	421.737000
2404.553740	422.130000
2406.076802	421.765000
2407.604499	419.846000
2409.125355	418.388000
2410.650845	421.434000
2412.172774	421.652000
2413.696059	419.690000
2415.217423	421.246000
2416.736867	419.169000
2418.257666	422.205000
2419.776546	421.637000
2421.295144	418.437000
2422.811825	418.057000
2424.329861	420.256000
2425.847615	418.495000
2427.361817	420.844000
2428.875739	417.838000
2430.389382	420.556000
2431.904378	417.409000
2433.415826	415.667000
2434.928629	415.530000
2436.439519	417.083000
2437.950129	415.355000
2439.458828	416.527000
2440.970514	416.019000
2442.478656	418.566000
2443.986519	413.753000
2445.494105	412.776000
2446.998151	415.320000
2448.505181	412.304000
2450.010303	414.039000
2451.515148	414.573000
2453.018086	414.077000
2454.520747	413.424000
2456.023132	411.588000
2457.523612	411.493000
2459.025445	409.050000
2460.525374	409.823000
2462.025027	411.476000
2463.524405	408.397000
2465.021880	408.789000
2466.517453	411.045000
2468.016006	408.716000
2469.511030	411.080000
2471.007408	409.810000
2472.500259	408.607000
2473.994462	408.362000
2475.488392	409.927000
2476.978799	406.482000
2478.472183	412.363000
2479.963668	406.436000
2481.453257	411.873000
2482.942574	407.967000
2484.429996	410.381000
2485.920393	410.421000
2487.407271	412.307000
2488.895501	410.557000
2490.380215	411.466000
2491.864658	410.964000
2493.350453	414.027000
2494.834355	408.893000
2496.319609	414.709000
2497.799729	410.430000
2499.282821	411.921000
2500.764023	407.969000
2502.244956	412.333000
2503.724000	409.659000
2505.202776	413.065000
2506.681283	407.528000
2508.159521	409.565000
2509.637491	408.537000
2511.111957	409.825000
2512.589391	405.921000
2514.063322	410.343000
2515.538604	406.814000
2517.013618	405.215000
2518.485131	403.636000
2519.957995	406.722000
2521.428975	403.518000
2522.901306	406.277000
2524.368524	405.237000
2525.838708	401.990000
2527.307010	403.725000
2528.775048	405.173000
2530.242821	404.069000
2531.710329	403.968000
2533.177572	401.294000
2534.641324	405.661000
2536.106425	404.458000
2537.569649	404.908000
2539.034222	403.967000
2540.495306	406.222000
2541.957741	403.112000
2543.419912	405.281000
2544.878596	404.298000
2546.341853	405.872000
2547.800013	406.251000
2549.259522	404.830000
2550.713938	403.487000
2552.172924	405.756000
2553.630037	403.169000
2555.085280	405.611000
2556.540262	401.559000
2557.993374	403.880000
2559.447835	402.744000
2560.900427	404.154000
2562.352759	402.115000
2563.803223	404.985000
2565.256643	407.247000
2566.704981	402.572000
2568.156275	402.890000
2569.605702	403.988000
2571.051658	404.786000
2572.500568	405.302000
2573.946007	403.064000
2575.392795	404.452000
2576.837719	403.644000
2578.282386	407.042000
2579.728400	404.562000
2581.170947	404.604000
2582.614842	403.501000
2584.055272	404.949000
2585.497050	401.917000
2586.936968	404.824000
2588.378233	402.163000
2589.816036	403.335000
2591.256789	403.353000
2592.692479	401.563000
2594.131119	402.941000
2595.567902	404.201000
2597.002828	403.835000
2598.440703	402.229000
2599.873520	405.133000
2601.307684	403.575000
2602.739993	403.952000
2604.173649	405.706000
2605.605452	400.912000
2607.037002	405.012000
2608.468298	400.626000
2609.897743	404.606000
2611.326935	402.698000
2612.754276	404.628000
2614.182964	401.247000
2615.611399	402.873000
2617.036388	404.537000
2618.462722	404.189000
2619.887208	403.342000
2621.313040	402.166000
2622.735428	407.583000
2624.159162	405.712000
2625.581050	405.958000
2627.002687	408.884000
2628.422479	403.612000
2629.843617	407.144000
2631.264505	403.936000
2632.681955	404.892000
2634.102344	405.105000
2635.519296	408.271000
2636.936000	405.279000
2638.352455	404.108000
2639.768662	408.634000
2641.184620	404.012000
2642.598738	404.536000
2644.012609	408.030000
2645.424640	406.635000
2646.838016	406.577000
2648.247962	405.743000
2649.660844	406.104000
2651.070297	407.595000
2652.479504	409.179000
2653.886875	406.422000
2655.297180	409.392000
2656.705649	406.810000
2658.112283	410.987000
2659.518672	408.718000
2660.923227	409.196000
2662.329126	409.810000
2663.733192	409.454000
2665.137014	411.451000
2666.540591	409.713000
2667.942336	412.197000
2669.345425	412.647000
2670.745097	413.731000
2672.146112	415.461000
2673.543710	409.914000
2674.944239	414.790000
2676.341353	412.995000
2677.739810	412.993000
2679.136439	411.423000
2680.532827	412.053000
2681.928972	414.446000
2683.323291	412.270000
2684.718953	411.850000
2686.111205	416.187000
2687.504801	411.581000
2688.896572	415.805000
2690.289685	411.930000
2691.680975	411.196000
2693.070442	409.325000
2694.459670	410.954000
2695.848657	410.147000
2697.238987	412.933000
2698.624332	413.033000
2700.012602	411.444000
2701.399050	412.392000
2702.785261	413.392000
2704.171232	410.673000
2705.553805	415.721000
2706.937719	411.080000
2708.321396	412.531000
2709.704835	415.235000
2711.084878	415.570000
2712.466263	415.431000
2713.845832	417.741000
2715.226743	414.475000
2716.605839	419.521000
2717.983120	414.157000
2719.361743	418.709000
2720.738553	420.199000
2722.115127	418.409000
2723.491465	420.282000
2724.865991	417.976000
2726.241858	419.167000
2727.614338	417.730000
2728.989735	418.545000
2730.360170	417.853000
2731.731947	417.935000
2733.103490	418.359000
2734.473224	417.681000
2735.844298	420.565000
2737.213565	418.302000
2738.582598	419.620000
2739.949824	419.488000
2741.316818	418.880000
2742.683579	418.620000
2744.050107	415.398000
2745.414830	419.049000
2746.779322	421.458000
2748.143581	416.850000
2749.507609	422.252000
2750.871404	419.920000
2752.231826	422.814000
2753.595159	420.945000
2754.953549	420.897000
2756.314849	418.324000
2757.672778	418.410000
2759.033617	416.989000
2760.392655	414.742000
2761.748325	418.499000
2763.106903	415.698000
2764.462115	415.964000
2765.817097	415.578000
2767.170282	413.879000
2768.526374	418.495000
2769.879102	414.813000
2771.231601	416.882000
2772.583872	416.060000
2773.937482	417.830000
2775.287730	418.145000
2776.636185	421.532000
2777.987544	414.302000
2779.335544	418.299000
2780.684883	417.428000
2782.032429	419.542000
2783.379748	419.425000
2784.726841	417.867000
2786.072143	412.108000
2787.417219	419.227000
2788.762069	415.402000
2790.106693	414.642000
2791.447964	415.267000
2792.790574	419.463000
2794.132959	415.444000
2795.475118	419.713000
2796.813928	417.523000
2798.155638	419.567000
2799.493999	420.623000
2800.833698	419.907000
2802.171611	420.411000
2803.507740	418.873000
2804.843646	420.751000
2806.180888	421.032000
2807.516347	421.716000
2808.851583	421.676000
2810.185037	420.490000
2811.519827	423.492000
2812.851276	422.046000
2814.185621	423.901000
2815.515068	419.294000
2816.845852	427.398000
2818.176414	420.033000
2819.505197	424.004000
2820.835317	420.448000
2822.163657	423.447000
2823.491777	425.198000
2824.818120	422.746000
2826.145798	422.604000
2827.470144	424.115000
2828.795825	419.686000
2830.119732	421.686000
2831.443418	421.708000
2832.768440	421.264000
2834.090133	420.176000
2835.411606	421.077000
2836.732861	418.891000
2838.053897	423.923000
2839.373161	417.012000
2840.693760	419.410000
2842.012587	418.094000
2843.331196	421.313000
2844.648035	417.940000
2845.964656	418.524000
2847.281059	415.464000
2848.595694	416.602000
2849.911663	417.084000
2851.224312	419.396000
2852.538297	414.196000
2853.852065	419.688000
2855.165616	415.329000
2856.477400	417.701000
2857.787419	416.586000
2859.098772	417.332000
2860.406809	418.061000
2861.716182	419.694000
2863.025339	423.548000
2864.334281	420.859000
2865.641460	420.871000
2866.946875	423.175000
2868.253625	422.937000
2869.558612	422.743000
2870.863386	420.911000
2872.166398	423.197000
2873.472292	420.078000
2874.773331	421.358000
2876.075703	420.399000
2877.376316	422.446000
2878.678263	419.068000
2879.979997	417.514000
2881.278427	423.000000
2882.578190	419.016000
2883.876196	416.795000
2885.173990	419.963000
2886.470027	415.974000
2887.767398	416.561000
2889.063013	414.644000
2890.358418	417.922000
2891.653611	417.792000
2892.945506	416.754000
2894.240278	414.951000
2895.531754	418.813000
2896.824562	412.982000
2898.117160	415.526000
2899.406463	414.818000
2900.697099	414.652000
2901.985985	413.985000
2903.276202	413.881000
2904.563128	413.920000
2905.851386	413.218000
2907.137895	411.822000
2908.424195	412.673000
2909.710287	412.436000
2910.994631	414.262000
2912.281847	412.005000
2913.564236	412.209000
2914.847957	410.052000
2916.129931	408.688000
2917.411699	410.627000
2918.691721	410.010000
2919.974613	411.967000
2921.255760	410.892000
2922.533625	409.411000
2923.814359	410.831000
2925.091812	406.406000
2926.369060	409.701000
2927.644565	404.881000
2928.922938	410.704000
2930.196496	403.715000
2931.472922	406.153000
2932.747607	405.062000
2934.020552	403.921000
2935.294827	403.297000
2936.567363	404.847000
2937.839695	404.190000
2939.108754	403.342000
2940.380678	403.970000
2941.650863	402.265000
2942.920846	400.972000
2944.190625	401.973000
2945.458667	401.328000
2946.724974	398.640000
2947.991078	399.815000
2949.258513	402.369000
2950.524212	401.539000
2951.789709	400.472000
2953.055004	401.566000
2954.317035	398.870000
2955.580395	398.394000
2956.843554	397.348000
2958.104980	400.622000
2959.367736	396.800000
2960.628761	398.792000
2961.888055	399.122000
2963.147148	398.020000
2964.406041	398.389000
2965.664734	397.901000
2966.923227	399.367000
2968.179991	395.645000
2969.436555	400.631000
2970.691392	396.734000
2971.947558	400.071000
2973.200468	399.569000
2974.454708	399.024000
2975.708749	399.490000
2976.961064	398.661000
2978.213181	395.185000
2979.463573	399.187000
2980.716820	396.763000
2981.965290	398.243000
2983.216614	399.622000
2984.464690	398.974000
2985.712568	397.358000
2986.960249	395.446000
2988.207734	394.404000
2989.453497	396.356000
2990.699063	394.594000
2991.945958	397.349000
2993.189607	393.713000
2994.434585	397.177000
2995.676320	394.596000
2996.920906	394.938000
2998.163773	394.459000
2999.403398	395.172000
3000.645875	394.500000
3001.885111	395.722000
3003.125675	393.459000
3004.364522	395.830000
3005.603175	391.727000
3006.840112	393.003000
3008.078376	393.128000
3009.314926	397.160000
3010.551282	390.729000
3011.787444	393.803000
3013.021892	393.259000
3014.256147	393.300000
3015.490209	396.156000
3016.722559	395.330000
3017.953197	393.292000
3019.186681	394.791000
3020.418454	394.319000
3021.648515	394.765000
3022.878385	393.619000
3024.106545	393.203000
3025.336032	393.958000
3026.563809	394.360000
3027.791395	393.090000
3029.020307	393.727000
3030.244477	391.935000
3031.471490	395.790000
3032.695280	391.419000
3033.920395	392.764000
3035.143804	391.408000
3036.367024	390.827000
3037.588538	390.268000
3038.812893	392.201000
3040.032513	389.663000
3041.253459	392.407000
3042.474215	389.705000
3043.693268	392.839000
3044.913647	392.326000
3046.130809	392.923000
3047.349296	390.031000
3048.566082	393.293000
3049.782679	394.946000
3050.999089	392.128000
3052.212285	392.725000
3053.428319	392.257000
3054.641141	391.043000
3055.856800	393.593000
3057.067736	393.015000
3058.279998	392.266000
3059.492072	391.738000
3060.703960	393.091000
3061.914150	393.190000
3063.124155	391.202000
3064.333973	392.130000
3065.542095	393.553000
3066.750031	390.034000
3067.956273	390.709000
3069.163839	392.046000
3070.369710	391.343500
3071.575396	390.641000
3072.780897	392.256000
3073.984706	391.050000
3075.189838	391.683000
3076.393277	395.753000
3077.595024	392.299000
3078.796588	389.162000
3079.997968	392.073000
3081.199164	392.013000
3082.398670	392.972000
3083.597992	392.368000
3084.798638	393.401000
3085.997595	392.979000
3087.193356	392.634000
3088.391947	391.882000
3089.587344	391.390000
3090.784065	390.173000
3091.977593	390.597000
3093.173949	390.162000
3094.368618	390.805000
3095.560097	388.285000
3096.755907	389.402000
3097.947024	389.454000
3099.139464	390.136000
3100.328715	389.886000
3101.520793	387.924000
3102.711187	386.213000
3103.898394	390.501000
3105.086925	389.945000
3106.276778	388.664000
3107.463446	386.308000
3108.649935	389.210000
3109.836244	387.621000
3111.023876	385.658000
3112.208325	387.209000
3113.391094	385.268000
3114.576687	387.283000
3115.760599	388.255000
3116.942833	387.503000
3118.124889	385.455000
3119.306766	385.580000
3120.488465	388.072000
3121.668487	386.812000
3122.846831	387.566000
3124.027997	385.831000
3125.205987	389.061000
3126.383800	386.344000
3127.561436	388.654000
3128.737397	385.997000
3129.913182	387.623000
3131.090287	388.131000
3132.265719	386.389000
3133.439477	385.523000
3134.611562	389.101000
3135.784968	386.529000
3136.958199	389.474000
3138.129757	385.571000
3139.302637	388.915000
3140.472349	387.253000
3141.643382	390.458000
3142.812744	390.617000
3143.980437	391.734000
3145.150945	390.955000
3146.316794	388.121000
3147.486953	388.369000
3148.652454	388.570000
3149.817782	389.019000
3150.982936	388.167000
3152.147917	389.462000
3153.314217	388.707000
3154.475864	385.110000
3155.638832	383.443000
3156.801626	384.589000
3157.964248	381.774000
3159.125205	378.926000
3160.285989	378.308000
3161.446601	377.426000
3162.605550	377.485000
3163.764326	376.208000
3164.922931	382.344000
3166.081364	373.637000
3167.239625	380.261000
3168.396224	378.976000
3169.551162	377.789000
3170.707419	377.237000
3171.862016	379.238000
3173.016441	379.081000
3174.169207	377.349000
3175.321803	375.364000
3176.474229	378.458000
3177.626484	376.932000
3178.778570	380.562000
3179.927509	375.639000
3181.079255	381.281000
3182.229344	377.018000
3183.377775	379.548000
3184.526038	380.521000
3185.674132	383.165000
3186.822056	379.278000
3187.968326	380.683000
3189.114427	385.708000
3190.258874	388.364000
3191.403152	385.416000
3192.547263	387.967000
3193.692692	384.598000
3194.834982	384.158000
3195.977104	382.146000
3197.119060	386.390000
3198.260848	383.160000
3199.402469	385.412000
3200.540954	383.810000
3201.680758	384.127000
3202.821878	384.481000
3203.959864	385.486000
3205.096201	383.649000
3206.232372	384.385000
3207.369861	384.210000
3208.505701	382.287000
3209.642857	383.414000
3210.775401	382.817000
3211.912227	383.468000
3213.044441	382.968000
3214.177973	382.569000
3215.311339	379.916000
3216.441578	379.235000
3217.574615	379.083000
3218.704526	374.594000
3219.835754	374.848000
3220.963856	371.113000
3222.094756	374.580000
3223.224011	374.854000
3224.351622	372.130000
3225.476112	372.726000
3226.604877	374.351000
3227.730520	371.923000
3228.856000	373.588000
3229.979839	373.172000
3231.106473	372.968000
3232.228508	372.550000
3233.351860	371.498000
3234.475050	372.801000
3235.598078	370.183000
3236.719466	370.067000
3237.840693	372.252000
3238.960281	372.606000
3240.079708	368.848000
3241.197497	372.259000
3242.318079	372.510000
3243.435547	374.334000
3244.552854	375.081000
3245.670000	375.438000
3246.785511	375.770000
3247.902337	379.062000
3249.016052	377.407000
3250.132558	381.118000
3251.247428	379.881000
3252.359190	379.471000
3253.470793	381.522000
3254.583711	378.373000
3255.696469	380.003000
3256.806121	379.222000
3257.917088	378.714000
3259.027896	378.653000
3260.137072	381.411000
3261.244617	381.949000
3262.353477	379.713000
3263.462178	379.411000
3264.567777	381.187000
3265.674691	381.867000
3266.779975	381.266000
3267.886573	382.698000
3268.990071	383.426000
3270.094883	381.656000
3271.199538	383.632000
3272.301095	381.525000
3273.402495	381.601000
3274.505209	383.538000
3275.607766	382.797000
3276.707228	383.858000
3277.809472	384.330000
3278.908622	382.602000
3280.006146	381.966000
3281.103515	383.010000
3282.203667	381.407000
3283.300725	384.128000
3284.397629	383.159000
3285.494377	378.101000
3286.586566	380.240000
3287.683005	377.774000
3288.777821	379.138000
3289.872482	381.494000
3290.965522	378.839000
3292.058408	379.703000
3293.149673	379.427000
3294.242251	377.196000
3295.333209	379.850000
3296.422547	375.443000
3297.511732	376.959000
3298.602229	376.234000
3299.689642	380.718000
3300.776903	373.741000
3301.865476	378.896000
3302.953896	376.145000
3304.037769	375.846000
3305.125884	379.138000
3306.210918	379.045000
3307.294336	379.240000
3308.379066	378.583000
3309.462180	379.948000
3310.546606	382.618000
3311.627954	377.453000
3312.710614	382.365000
3313.791660	377.854000
3314.872555	381.899000
3315.951837	376.395000
3317.030968	380.653000
3318.111410	378.343000
3319.188779	379.831000
3320.267459	380.854000
3321.344527	378.483000
3322.421445	381.546000
3323.496753	379.329000
3324.571911	380.786000
3325.648380	381.176000
3326.721778	377.455000
3327.795028	381.495000
3328.869589	380.220000
3329.942540	379.436000
3331.013884	379.238000
3332.086538	378.603000
3333.156125	376.313000
3334.227023	378.650000
3335.296314	378.078000
3336.366916	377.645000
3337.435911	375.906000
3338.503300	374.926000
3339.569084	373.282000
3340.639094	373.873000
3341.706041	371.328000
3342.769926	372.344000
3343.836579	372.089000
3344.901628	372.434000
3345.965073	374.253000
3347.028371	375.231000
3348.091524	371.107000
3349.154530	374.176000
3350.217389	371.606000
3351.278647	372.219000
3352.336848	371.358000
3353.399270	372.245000
3354.458635	367.241000
3355.517856	369.999000
3356.578385	368.313000
3357.634405	375.276000
3358.693190	370.597000
3359.747467	372.400000
3360.804508	372.328000
3361.859950	375.960000
3362.916701	372.253000
3363.971855	374.523000
3365.025411	375.248000
3366.077370	376.602000
3367.132091	374.188000
3368.183764	373.712000
3369.235292	374.347000
3370.288130	375.048000
3371.337920	375.355000
3372.389019	377.851000
3373.437071	377.769000
3374.487884	375.710000
3375.535651	376.400000
3376.583276	376.049000
3377.630759	377.470000
3378.676648	378.633000
3379.723847	375.784000
3380.768002	377.895000
3381.814916	377.326000
3382.860238	378.711000
3383.902520	376.514000
3384.944660	377.479000
3385.988109	376.933000
3387.031416	376.745000
3388.073133	375.462000
3389.114709	376.999000
3390.156145	375.893000
3391.195992	379.270000
3392.234250	375.355000
3393.273816	379.262000
3394.313242	379.849000
3395.351080	377.674000
3396.387331	377.917000
3397.423442	377.173000
3398.460861	376.737000
3399.495247	377.416000
3400.530941	377.630000
3401.566495	377.967000
3402.599017	378.459000
3403.634293	377.113000
3404.666538	375.953000
3405.698645	379.413000
3406.729168	378.811000
3407.760999	381.561000
3408.792691	380.532000
3409.821355	377.663000
3410.849881	380.457000
3411.879715	382.644000
3412.909410	378.560000
3413.936080	379.894000
3414.964057	380.628000
3415.989009	380.701000
3417.016711	381.367000
3418.041390	383.037000
3419.067375	382.179000
3420.091781	383.510000
3421.116049	380.147000
3422.138739	382.699000
3423.161293	378.737000
3424.185153	383.354000
3425.205993	380.361000
3426.226698	382.783000
3427.248708	379.786000
3428.267700	378.044000
3429.286557	379.466000
3430.306719	378.400000
3431.323865	380.063000
