-117.932748	0.268000
-115.263147	-1.011000
-112.596482	0.260000
-109.930570	-0.131000
-107.267589	-0.308000
-104.603178	-0.081000
-101.941698	2.052000
-99.278789	0.892000
-96.620987	0.271000
-93.961754	-0.367000
-91.303270	0.992000
-88.647711	0.925000
-85.990723	0.407000
-83.338832	0.258000
-80.685512	-1.173000
-78.035112	0.682000
-75.383282	1.841000
-72.736543	-0.847000
-70.088374	1.260000
-67.440949	1.202000
-64.796437	0.943000
-62.150497	1.462000
-59.509638	0.466000
-56.867349	0.455000
-54.227970	-0.903000
-51.587162	-1.266000
-48.947093	1.602000
-46.312098	1.206000
-43.675673	0.492000
-41.042152	0.971000
-38.407202	0.785000
-35.777317	0.288000
-33.143839	-0.189000
-30.515424	0.815000
-27.887743	0.519000
-25.258634	-1.041000
-22.634581	1.295000
-20.006939	1.242000
-17.384350	0.632000
-14.762492	1.383000
-12.141365	1.219000
-9.520969	1.040000
-6.903460	4.089000
-4.284523	12.911000
-1.668472	35.843000
0.946851	59.521000
3.561447	31.954000
6.173161	4.711000
8.786302	-0.004000
11.394410	0.944000
14.006100	1.221000
16.612759	-1.638000
19.220846	0.456000
21.828209	0.621000
24.430547	0.441000
27.036463	-0.269000
29.637358	0.976000
32.239680	-0.911000
34.836984	-0.193000
37.437864	-1.074000
40.033730	0.392000
42.631023	0.111000
45.227597	-0.820000
47.819162	0.595000
50.412155	0.879000
53.002287	0.505000
55.593847	0.202000
58.182547	0.209000
60.772675	0.260000
63.357803	-0.959000
65.944359	1.760000
68.530200	-0.431000
71.113188	-0.409000
73.697603	-0.673000
76.274888	0.389000
78.855740	-0.227000
81.433743	1.688000
84.011036	-0.078000
86.589755	1.368000
89.163493	1.667000
91.738657	0.027000
94.310978	0.127000
96.882592	0.626000
99.451365	0.479000
102.021565	0.091000
104.588926	0.590000
107.157714	0.263000
109.723664	2.058000
112.286780	0.924000
114.853453	1.207000
117.410903	2.390000
119.974039	1.444000
122.532216	2.468000
125.093946	2.638000
127.650721	7.071000
130.208921	9.964000
132.762169	14.697000
135.314718	24.031000
137.870819	30.664000
140.421971	38.916000
142.972425	48.246000
145.522183	54.870000
148.069121	61.120000
150.615363	63.070000
153.163032	65.194000
155.710004	65.961000
158.252040	67.341000
160.793383	66.381000
163.334034	66.217000
165.876109	64.310000
168.415374	66.567000
170.951829	67.125000
173.487594	66.737000
176.024784	65.645000
178.561282	67.100000
181.094975	68.107000
183.625865	67.488000
186.156066	66.123000
188.687692	67.484000
191.216517	66.045000
193.742544	68.879000
196.267884	67.410000
198.794649	66.678000
201.318618	68.371000
203.841901	67.485000
206.364500	68.415000
208.884306	68.951000
211.403429	68.798000
213.921869	67.326000
216.441733	69.900000
218.954596	67.815000
221.470990	69.876000
223.986703	67.987000
226.497525	67.697000
229.009772	68.872000
231.519236	70.641000
234.028022	69.056000
236.536130	66.959000
239.045662	68.672000
241.550313	70.078000
244.054288	68.414000
246.559687	68.862000
249.060211	69.459000
251.564258	68.699000
254.061335	70.124000
256.561934	68.307000
259.059762	69.998000
261.556917	68.936000
264.053399	67.317000
266.545019	68.318000
269.040157	69.518000
271.532530	68.126000
274.024232	68.118000
276.513171	68.651000
279.003533	71.024000
281.491134	68.491000
283.975975	68.987000
286.464330	69.137000
288.945746	68.594000
291.430677	67.118000
293.910761	67.280000
296.394358	67.569000
298.873113	69.582000
301.353290	68.189000
303.830716	69.190000
306.307478	68.544000
308.783576	68.817000
311.256926	66.153000
313.729615	68.642000
316.201641	67.101000
318.673007	70.585000
321.141629	70.101000
323.609591	68.815000
326.078976	69.124000
328.543538	69.803000
331.011603	70.498000
333.474849	68.639000
335.937438	69.540000
338.399369	69.865000
340.860644	68.782000
343.319185	69.750000
345.779148	69.804000
348.236379	69.218000
350.692955	68.816000
353.148876	70.405000
355.602069	69.972000
358.056684	70.592000
360.506497	68.741000
362.959806	68.879000
365.408316	69.024000
367.856176	68.663000
370.305457	70.035000
372.749945	69.347000
375.195855	67.424000
377.641116	69.323000
380.083658	68.054000
382.525552	69.173000
384.966798	66.738000
387.405329	69.354000
389.845282	68.034000
392.282521	68.728000
394.717048	69.254000
397.155063	70.409000
399.588301	68.878000
402.022961	68.979000
404.452847	68.089000
406.886220	68.418000
409.314821	69.005000
411.742782	66.091000
414.172163	68.629000
416.596780	68.702000
419.022817	70.581000
421.448215	70.625000
423.872972	69.541000
426.292970	71.564000
428.714390	68.826000
431.133113	70.081000
433.553257	69.756000
435.970706	68.342000
438.389575	69.422000
440.805751	70.399000
443.217180	70.584000
445.632085	68.171000
448.044300	70.199000
450.455881	71.114000
452.866828	70.195000
455.275089	71.266000
457.682718	70.283000
460.089714	71.231000
462.496078	70.809000
464.899761	70.551000
467.302813	70.044000
469.705235	70.282000
472.107027	69.723000
474.506141	69.403000
476.906675	72.008000
479.306580	71.148000
481.701762	68.804000
484.100411	72.411000
486.494340	69.565000
488.887643	68.839000
491.280320	72.054000
493.672372	70.734000
496.065843	67.671000
498.454601	69.826000
500.840693	70.253000
503.228205	69.139000
505.615093	69.691000
507.999318	69.938000
510.384962	70.036000
512.767943	69.601000
515.148264	69.668000
517.530004	71.129000
519.909085	70.180000
522.289585	69.730000
524.667427	70.605000
527.042614	69.860000
529.417183	69.809000
531.793171	70.450000
534.166505	70.790000
536.541258	68.954000
538.911324	71.324000
541.280775	71.240000
543.651645	70.058000
546.017833	70.072000
548.385440	70.831000
550.750401	70.721000
553.114749	71.086000
555.478485	71.541000
557.843638	69.794000
560.204119	72.254000
562.566017	70.670000
564.925276	71.827000
567.281896	69.893000
569.641962	71.716000
571.995336	69.836000
574.352155	71.961000
576.706339	72.029000
579.059914	70.177000
581.412881	69.670000
583.763217	68.600000
586.114969	71.771000
588.460045	68.648000
590.810585	69.193000
593.154452	71.855000
595.503780	69.705000
597.848459	71.341000
600.190514	70.552000
602.533986	69.772000
604.874835	68.999000
607.215081	70.587000
609.552707	71.152000
611.893768	70.467000
614.230192	70.712000
616.568032	71.688000
618.903254	71.136000
621.235861	71.231000
623.569885	71.870000
625.901294	70.745000
628.232105	71.054000
630.562318	70.006000
632.891933	70.628000
635.216926	71.304000
637.547360	71.861000
639.873172	72.625000
642.196378	72.150000
644.521000	70.401000
646.843016	72.642000
649.164438	72.919000
651.483257	71.082000
653.803492	70.394000
656.123134	71.245000
658.440175	72.604000
660.756625	71.453000
663.070476	72.645000
665.385742	71.466000
667.698412	72.151000
670.012497	69.794000
672.321983	72.114000
674.632883	72.415000
676.941191	70.296000
679.248911	70.740000
681.558046	72.611000
683.862588	71.414000
686.166544	71.719000
688.469913	71.468000
690.774697	71.768000
693.074895	71.673000
695.376508	72.529000
697.677535	71.826000
699.973981	73.268000
702.271841	72.074000
704.569118	71.925000
706.865812	71.727000
709.157930	70.417000
711.453459	71.774000
713.744415	74.679000
716.036785	71.489000
718.326579	70.019000
720.615794	73.476000
722.904428	73.193000
725.190491	72.117000
727.477967	71.873000
729.762873	71.811000
732.047200	72.801000
734.328960	72.793000
736.612133	70.356000
738.894729	71.438000
741.172769	73.405000
743.452223	72.301000
745.731102	73.798000
748.009405	72.783000
750.283159	73.472000
752.558327	73.314000
754.832921	74.464000
757.104956	73.046000
759.378404	75.040000
761.649294	73.698000
763.917627	73.565000
766.187375	73.551000
768.454567	71.958000
770.721189	73.886000
772.987242	72.251000
775.250743	71.937000
777.515656	73.576000
779.780001	72.791000
782.039815	72.487000
784.301043	73.049000
786.561703	72.220000
788.819816	72.974000
791.075385	74.259000
793.334345	72.228000
795.586806	73.315000
797.844634	73.125000
800.097943	73.936000
802.348711	73.511000
804.600892	72.712000
806.850535	73.637000
809.101589	74.191000
811.348132	72.481000
813.596088	72.944000
815.841508	71.968000
818.088341	73.951000
820.334611	72.040000
822.576378	74.567000
824.821527	72.582000
827.060204	72.829000
829.302264	72.073000
831.539825	75.057000
833.778797	73.586000
836.015243	74.192000
838.253101	73.288000
840.488433	73.409000
842.721241	72.559000
844.955461	72.986000
847.187159	72.773000
849.418302	74.419000
851.648890	74.387000
853.878924	76.512000
856.108403	74.402000
858.333402	74.199000
860.561774	74.796000
862.785668	76.096000
865.010972	74.424000
867.231801	73.223000
869.456002	73.491000
871.675730	73.560000
873.896869	75.852000
876.117457	74.250000
878.335536	75.989000
880.555024	75.724000
882.770046	73.186000
884.984520	75.058000
887.198447	74.098000
889.411826	73.398000
891.624659	73.714000
893.836944	74.941000
896.046728	74.705000
898.255966	73.925000
900.464658	72.032000
902.670852	73.992000
904.878455	73.900000
907.083561	73.873000
909.288123	73.875000
911.490189	76.615000
913.693666	73.196000
915.894648	74.310000
918.095088	73.048000
920.296937	74.649000
922.492394	73.132000
924.691211	77.250000
926.885590	73.020000
929.083326	73.713000
931.276626	71.237000
933.471334	75.380000
935.663557	74.617000
937.855242	74.605000
940.046389	76.027000
942.235053	72.672000
944.423180	75.270000
946.608827	75.930000
948.797826	73.774000
950.982402	75.552000
953.166443	75.560000
955.353834	75.294000
957.532922	76.848000
959.715359	76.492000
961.897263	75.854000
964.076693	75.478000
966.253650	75.908000
968.432015	76.368000
970.611786	77.205000
972.785209	77.451000
974.961978	76.654000
977.134341	77.714000
979.308110	76.078000
981.477477	75.767000
983.650187	75.005000
985.820431	76.957000
987.990147	77.246000
990.159334	76.604000
992.324124	76.118000
994.492255	78.138000
996.655992	77.331000
998.821136	78.433000
1000.983820	75.383000
1003.145979	77.259000
1005.305680	78.217000
1007.464858	77.129000
1009.625442	75.121000
1011.783571	76.283000
1013.941176	76.583000
1016.098258	75.123000
1018.254817	75.022000
1020.406996	77.496000
1022.560582	75.457000
1024.713645	76.390000
1026.864261	74.772000
1029.016282	74.826000
1031.163930	76.950000
1033.314910	75.338000
1035.461520	74.922000
1037.607610	76.746000
1039.753182	75.260000
1041.900158	76.289000
1044.040847	74.604000
1046.184864	75.796000
1048.326441	74.028000
1050.467502	76.483000
1052.609967	75.911000
1054.746153	76.397000
1056.885665	75.391000
1059.020821	74.059000
1061.159302	75.967000
1063.293430	76.313000
1065.427044	77.190000
1067.562062	76.770000
1069.692731	76.757000
1071.824806	77.865000
1073.954450	77.767000
1076.083583	76.258000
1078.212205	77.927000
1080.340315	76.331000
1082.465999	78.839000
1084.591173	78.295000
1086.717750	75.867000
1088.839991	78.030000
1090.963636	78.689000
1093.082946	78.051000
1095.207485	79.250000
1097.325780	77.988000
1099.445478	78.392000
1101.562758	79.914000
1103.679532	79.185000
1105.795799	79.215000
1107.909651	79.219000
1110.024906	78.133000
1112.135839	77.874000
1114.250083	78.952000
1116.360008	79.373000
1118.471335	78.396000
1120.582159	76.432000
1122.688666	79.844000
1124.798482	78.673000
1126.903984	79.069000
1129.010890	77.546000
1131.111579	77.967000
1133.217481	80.083000
1135.319074	79.912000
1137.422070	80.247000
1139.524565	79.239000
1141.620854	78.181000
1143.722349	79.348000
1145.819542	78.200000
1147.916236	78.291000
1150.012433	79.284000
1152.108131	78.116000
1154.203332	78.454000
1156.296136	77.245000
1158.390342	78.406000
1160.478357	80.088000
1162.571570	79.261000
1164.658595	79.163000
1166.748920	78.459000
1168.834956	81.410000
1170.924290	78.886000
1173.007443	80.792000
1175.091999	79.903000
1177.177955	79.165000
1179.259630	79.379000
1181.342707	79.781000
1183.423398	80.617000
1185.503597	80.051000
1187.583306	79.984000
1189.662522	81.500000
1191.739357	78.870000
1193.813811	82.085000
1195.891557	82.069000
1197.965032	80.795000
1200.039909	79.944000
1202.110518	81.636000
1204.182528	80.127000
1206.252162	82.677000
1208.323197	80.257000
1210.393744	81.228000
1212.460030	81.114000
1214.527717	80.470000
1216.593032	81.052000
1218.659747	81.248000
1220.722206	81.854000
1222.787950	81.540000
1224.849441	82.574000
1226.912331	82.587000
1228.972854	82.033000
1231.032894	83.021000
1233.092450	80.140000
1235.149642	82.008000
1237.206351	82.062000
1239.260698	82.770000
1241.318325	82.232000
1243.373590	82.580000
1245.424614	82.528000
1247.477038	84.330000
1249.528983	82.029000
1251.578569	83.780000
1253.627676	82.476000
1255.676304	84.422000
1257.724454	85.618000
1259.772126	83.370000
1261.815567	84.421000
1263.862283	83.865000
1265.906647	84.419000
1267.950533	85.089000
1269.992069	84.887000
1272.031255	85.978000
1274.073713	84.574000
1276.111950	86.478000
1278.151584	87.282000
1280.190744	89.374000
1282.225686	86.120000
1284.262026	87.895000
1286.296021	89.667000
1288.331415	88.857000
1290.362595	89.153000
1292.395174	89.529000
1294.427280	91.392000
1296.457046	93.433000
1298.488210	94.463000
1300.515166	98.346000
1302.543520	100.067000
1304.567670	103.721000
1306.595085	108.498000
1308.618297	113.858000
1310.642906	119.162000
1312.665182	126.189000
1314.688855	138.905000
1316.710195	157.494000
1318.731067	184.266000
1320.751473	233.920000
1322.767684	331.231000
1324.785294	537.645000
1326.800575	1091.865000
1328.819115	2498.480000
1330.833465	4813.332000
1332.845490	5623.478000
1334.860773	3840.319000
1336.871870	1504.739000
1338.884363	557.860000
1340.892674	308.313000
1342.904241	208.969000
1344.909769	162.717000
1346.918551	136.959000
1348.923157	123.839000
1350.931016	115.469000
1352.938412	106.434000
1354.939778	103.386000
1356.942541	98.284000
1358.944844	96.790000
1360.946686	93.331000
1362.948070	93.084000
1364.947139	90.978000
1366.945750	89.408000
1368.943903	88.800000
1370.941598	86.818000
1372.935129	85.126000
1374.930057	85.620000
1376.924528	85.074000
1378.918542	83.064000
1380.910249	83.590000
1382.901500	85.549000
1384.890446	84.015000
1386.880787	82.735000
1388.870673	82.878000
1390.858256	82.799000
1392.845385	80.153000
1394.830212	81.031000
1396.816434	82.612000
1398.800355	82.370000
1400.783824	81.494000
1402.766841	81.507000
1404.747560	82.140000
1406.729673	79.595000
1408.709489	80.517000
1410.688855	81.482000
1412.664082	82.639000
1414.642547	81.323000
1416.618719	80.727000
1418.594441	82.003000
1420.569714	83.019000
1422.542696	82.529000
1424.515231	82.479000
1426.487317	82.010000
1428.458955	82.388000
1430.426466	82.164000
1432.399050	83.110000
1434.363828	81.475000
1436.333679	82.581000
1438.299405	80.976000
1440.266525	81.886000
1442.231361	79.874000
1444.192077	82.768000
1446.157861	81.508000
1448.117690	82.899000
1450.078912	79.734000
1452.041527	81.819000
1454.000027	81.109000
1455.958085	80.263000
1457.915700	81.377000
1459.872874	81.062000
1461.827772	80.615000
1463.784062	80.571000
1465.738078	79.559000
1467.691654	80.477000
1469.642957	80.318000
1471.595652	82.084000
1473.546076	80.064000
1475.496061	78.967000
1477.445606	78.024000
1479.392883	81.300000
1481.337893	77.911000
1483.284295	77.800000
1485.230259	79.118000
1487.175785	79.343000
1489.119047	78.297000
1491.061872	80.636000
1493.002434	78.887000
1494.944387	79.938000
1496.884079	77.557000
1498.823335	78.916000
1500.762157	77.915000
1502.698719	79.594000
1504.636671	78.249000
1506.572366	78.661000
1508.507627	78.924000
1510.440631	79.509000
1512.373203	78.310000
1514.305343	77.902000
1516.237051	78.504000
1518.166506	78.220000
1520.097350	78.981000
1522.027764	78.409000
1523.954105	79.913000
1525.881836	79.287000
1527.807317	78.873000
1529.732369	78.247000
1531.656992	77.772000
1533.581186	78.645000
1535.503133	77.873000
1537.426469	78.134000
1539.347560	77.506000
1541.266406	79.002000
1543.186642	79.362000
1545.104634	80.698000
1547.022200	79.866000
1548.937524	78.375000
1550.854238	79.695000
1552.766897	78.069000
1554.682760	77.906000
1556.596384	79.897000
1558.507769	76.898000
1560.420543	77.421000
1562.329268	80.286000
1564.239383	79.412000
1566.149074	77.700000
1568.058341	80.139000
1569.965375	77.473000
1571.870176	77.497000
1573.776366	76.998000
1575.680324	79.165000
1577.583862	77.169000
1579.486978	78.075000
1581.387866	78.382000
1583.290142	77.256000
1585.190189	76.367000
1587.091625	78.057000
1588.989026	77.639000
1590.886010	76.522000
1592.782575	77.406000
1594.680527	78.130000
1596.572645	76.216000
1598.467957	78.607000
1600.362850	76.914000
1602.255522	77.620000
1604.147778	75.200000
1606.037814	76.559000
1607.927434	76.358000
1609.816639	76.320000
1611.705428	74.510000
1613.592001	77.562000
1615.479960	77.810000
1617.363904	75.759000
1619.249234	77.053000
1621.134150	77.016000
1623.016854	76.184000
1624.900943	77.364000
1626.781022	74.809000
1628.662487	77.012000
1630.541742	75.814000
1632.422383	76.762000
1634.297220	76.586000
1636.177039	75.770000
1638.052852	73.961000
1639.928256	77.794000
1641.805045	74.895000
1643.676037	75.591000
1645.550211	75.450000
1647.420387	77.282000
1649.293743	77.297000
1651.164896	76.603000
1653.033847	75.814000
1654.904184	78.553000
1656.770527	75.499000
1658.638256	77.160000
1660.503787	76.934000
1662.370702	76.443000
1664.233629	77.076000
1666.097941	75.790000
1667.960058	77.846000
1669.821769	77.335000
1671.684865	72.865000
1673.545767	74.672000
1675.404475	74.427000
1677.262780	74.395000
1679.122470	75.672000
1680.976393	74.679000
1682.833488	74.812000
1684.690181	75.299000
1686.542898	73.425000
1688.398786	75.828000
1690.250700	74.467000
1692.102212	75.028000
1693.953325	71.675000
1695.804036	73.671000
1697.654347	74.537000
1699.502474	74.283000
1701.351984	74.730000
1703.195746	74.749000
1705.044458	73.239000
1706.887423	75.067000
1708.733554	72.136000
1710.575724	75.012000
1712.421058	75.418000
1714.260652	72.711000
1716.101630	74.191000
1717.943991	74.749000
1719.782396	72.307000
1721.622184	73.915000
1723.459797	75.212000
1725.297014	74.178000
1727.132058	73.555000
1728.968485	74.769000
1730.802740	73.641000
1732.636601	73.688000
1734.470067	72.312000
1736.299587	72.223000
1738.132266	74.846000
1739.961001	74.559000
1741.792894	71.244000
1743.620844	74.465000
1745.448402	73.721000
1747.275569	73.198000
1749.102343	74.690000
1750.928727	73.472000
1752.751174	73.596000
1754.576775	75.478000
1756.398442	73.382000
1758.221491	76.224000
1760.042379	72.633000
1761.862877	73.299000
1763.684757	72.502000
1765.500937	73.054000
1767.320269	73.607000
1769.135674	73.974000
1770.954229	73.566000
1772.768860	74.778000
1774.583103	73.824000
1776.396960	74.693000
1778.210430	73.401000
1780.021746	72.160000
1781.834444	74.346000
1783.646755	74.622000
1785.455149	74.531000
1787.264924	73.337000
1789.070783	73.668000
1790.879789	74.142000
1792.684881	72.825000
1794.491353	74.997000
1796.297442	74.779000
1798.099621	74.535000
1799.904943	72.680000
1801.706357	73.298000
1803.509151	72.805000
1805.308040	74.858000
1807.108308	72.603000
1808.908196	75.569000
1810.705941	74.619000
1812.503306	71.808000
1814.300290	72.323000
1816.096894	73.944000
1817.891359	74.402000
1819.687204	72.817000
1821.477393	74.288000
1823.272479	74.528000
1825.061912	74.002000
1826.854483	73.848000
1828.644918	73.607000
1830.433218	73.288000
1832.224654	73.395000
1834.010444	74.474000
1835.797614	74.136000
1837.582652	75.525000
1839.370824	73.536000
1841.155110	72.702000
1842.937267	72.407000
1844.720802	72.875000
1846.502210	72.222000
1848.284995	74.861000
1850.063901	74.530000
1851.844185	74.068000
1853.622344	72.695000
1855.401880	74.026000
1857.179292	72.421000
1858.954580	73.813000
1860.731247	75.103000
1862.505791	75.111000
1864.281712	74.198000
1866.052014	74.845000
1867.825443	72.736000
1869.596752	74.619000
1871.367690	75.754000
1873.140005	73.856000
1874.906708	75.179000
1876.676535	74.879000
1878.442499	73.253000
1880.211587	74.945000
1881.976813	72.759000
1883.741671	72.464000
1885.507905	73.409000
1887.270281	73.937000
1889.032290	72.686000
1890.793932	73.509000
1892.555206	71.979000
1894.316114	75.677000
1896.076654	73.994000
1897.835085	75.217000
1899.593151	72.550000
1901.349109	74.133000
1903.106443	73.960000
1904.863411	74.321000
1906.618274	72.906000
1908.371031	73.174000
1910.123425	74.482000
1911.877194	71.967000
1913.628861	74.657000
1915.378424	73.118000
1917.129364	74.248000
1918.879940	73.519000
1920.626678	73.653000
1922.374791	73.532000
1924.120805	74.473000
1925.868195	72.639000
1927.613486	71.545000
1929.356680	74.637000
1931.101250	73.447000
1932.843723	73.666000
1934.585836	72.634000
1936.327590	75.387000
1938.068983	73.640000
1939.808283	74.698000
1941.547224	72.506000
1943.285806	74.548000
1945.022296	71.680000
1946.758429	71.705000
1948.495936	71.730000
1950.229622	74.732000
1951.964682	72.420000
1953.697653	75.043000
1955.430268	72.828000
1957.162526	75.911000
1958.894428	73.552000
1960.624244	73.361000
1962.351976	72.941000
1964.081081	74.695000
1965.809832	73.452000
1967.536499	75.383000
1969.262812	75.193000
1970.990498	74.376000
1972.712648	74.426000
1974.437900	74.693000
1976.159344	74.619000
1977.883888	74.253000
1979.606353	72.644000
1981.325014	75.209000
1983.046774	74.103000
1984.764732	75.216000
1986.484064	73.593000
1988.199595	75.745000
1989.919948	73.634000
1991.636501	73.784000
1993.349259	73.323000
1995.065112	75.892000
1996.778892	73.860000
1998.492323	75.794000
2000.203683	74.121000
2001.916416	77.082000
2003.625357	72.946000
2005.337392	75.623000
2007.043917	75.921000
2008.753535	75.617000
2010.461085	76.200000
2012.168288	75.851000
2013.873425	76.926000
2015.578215	74.862000
2017.284377	75.046000
2018.986757	75.593000
2020.690509	74.205000
2022.392198	75.601000
2024.093541	74.355000
2025.794539	76.635000
2027.493477	75.433000
2029.193786	76.808000
2030.890319	74.991000
2032.588224	75.021000
2034.284071	75.373000
2035.983003	75.646000
2037.676448	74.782000
2039.371266	75.135000
2041.065740	75.651000
2042.756446	75.601000
2044.450236	75.580000
2046.140259	74.252000
2047.831653	74.758000
2049.520994	77.091000
2051.211705	74.558000
2052.898654	74.591000
2054.585262	73.626000
2056.273241	74.014000
2057.957460	74.622000
2059.643049	75.496000
2061.328299	74.099000
2063.011501	75.205000
2064.696073	74.457000
2066.375181	73.482000
2068.059075	73.367000
2069.737509	74.405000
2071.419020	75.730000
2073.096779	75.310000
2074.774202	73.424000
2076.452994	74.143000
2078.129743	73.336000
2079.804451	75.642000
2081.480528	75.406000
2083.154565	75.810000
2084.828266	73.768000
2086.501632	75.344000
2088.172960	74.267000
2089.843953	74.362000
2091.514612	74.640000
2093.184937	74.523000
2094.854927	74.224000
2096.522882	74.689000
2098.190504	74.702000
2099.856092	74.298000
2101.523048	74.386000
2103.187971	76.500000
2104.852561	74.931000
2106.515120	74.427000
2108.179048	76.607000
2109.840944	74.796000
2111.502509	76.126000
2113.163744	76.694000
2114.822949	75.387000
2116.481825	77.579000
2118.140370	74.872000
2119.798586	77.349000
2121.453078	75.211000
2123.110636	76.011000
2124.767863	77.076000
2126.421370	77.047000
2128.076244	74.521000
2129.727399	76.709000
2131.381617	75.079000
2133.032117	75.634000
2134.683985	76.142000
2136.330444	75.919000
2137.981657	76.094000
2139.629157	77.235000
2141.278025	76.714000
2142.924873	76.752000
2144.571395	75.580000
2146.217592	77.506000
2147.860081	76.216000
2149.505628	75.358000
2151.147468	76.112000
2152.792365	77.910000
2154.433557	75.003000
2156.074425	77.917000
2157.714970	76.377000
2159.353502	76.568000
2160.993400	77.158000
2162.629598	79.095000
2164.267162	76.335000
2165.904404	77.406000
2167.539636	76.279000
2169.174546	77.516000
2170.809135	77.204000
2172.443403	76.853000
2174.073977	77.129000
2175.707602	76.534000
2177.337536	77.520000
2178.968835	77.645000
2180.598130	78.136000
2182.227104	78.037000
2183.855760	78.031000
2185.484096	78.389000
2187.110429	75.827000
2188.736444	78.157000
2190.360458	76.630000
2191.985837	77.086000
2193.609215	75.796000
2195.233958	77.290000
2196.855019	77.098000
2198.475765	76.401000
2200.097874	78.074000
2201.717986	78.561000
2203.336102	76.957000
2204.953902	76.356000
2206.571386	76.733000
2208.188555	76.831000
2209.805409	76.922000
2211.421948	78.465000
2213.036493	76.522000
2214.649046	78.465000
2216.262964	77.891000
2217.874889	76.712000
2219.488179	75.361000
2221.099477	78.600000
2222.708787	77.525000
2224.319459	78.411000
2225.928143	77.740000
2227.536515	77.884000
2229.142899	77.536000
2230.750647	79.179000
2232.356408	78.227000
2233.961858	78.990000
2235.565324	78.619000
2237.170152	79.076000
2238.772996	77.737000
2240.373857	80.435000
2241.976081	79.825000
2243.576322	79.959000
2245.177927	79.259000
2246.775878	79.925000
2248.375192	79.214000
2249.972526	80.946000
2251.569552	79.713000
2253.167939	80.513000
2254.762678	80.849000
2256.355441	79.690000
2257.949565	78.796000
2259.545051	81.243000
2261.136893	78.867000
2262.728428	81.138000
2264.321324	79.652000
2265.908911	78.858000
2267.501195	79.772000
2269.088171	80.423000
2270.678176	79.823000
2272.262876	80.146000
2273.852270	78.978000
2275.436361	79.501000
2277.021814	79.098000
2278.605298	80.199000
2280.191807	78.925000
2281.774683	81.661000
2283.357255	79.172000
2284.939525	81.016000
2286.518164	81.485000
2288.099827	80.530000
2289.677862	79.018000
2291.258921	81.314000
2292.836352	81.365500
2294.411820	81.417000
2295.990310	78.746000
2297.565175	79.779000
2299.139740	79.172000
2300.714005	82.138000
2302.287969	80.203000
2303.861633	79.986000
2305.434996	80.450000
2307.004741	78.375000
2308.574187	79.654000
2310.146652	80.171000
2311.713842	79.979000
2313.284049	81.154000
2314.850642	80.879000
2316.418595	82.056000
2317.984593	81.344000
2319.550293	81.420000
2321.115695	80.269000
2322.679144	81.769000
2324.243952	81.867000
2325.805151	83.120000
2327.369365	84.049000
2328.928318	81.252000
2330.490284	84.877000
2332.050300	81.126000
2333.610020	80.986000
2335.167791	84.395000
2336.725268	81.051000
2338.282449	83.327000
2339.837684	83.275000
2341.392624	82.277000
2342.947271	83.751000
2344.501624	82.444000
2346.055683	82.745000
2347.609449	83.693000
2349.161270	81.829000
2350.711148	83.138000
2352.264034	83.617000
2353.811678	83.182000
2355.362329	82.568000
2356.909390	83.438000
2358.457808	82.410000
2360.005934	81.314000
2361.550473	82.931000
2363.096369	84.806000
2364.640326	84.370000
2366.185641	83.780000
2367.727371	83.889000
2369.270459	84.757000
2370.811610	83.692000
2372.352472	84.004000
2373.893045	83.853000
2375.433329	83.773000
2376.973324	84.767000
2378.509740	84.678000
2380.049158	84.543000
2381.584999	84.925000
2383.122196	83.060000
2384.655819	86.440000
2386.192441	83.743000
2387.727132	83.400000
2389.259894	84.681000
2390.792370	86.048000
2392.322917	85.103000
2393.856462	86.497000
2395.384796	85.070000
2396.914486	85.771000
2398.443891	86.421000
2399.973011	85.012000
2401.501845	84.650000
2403.025475	87.162000
2404.553740	86.195000
2406.076802	87.842000
2407.604499	84.913000
2409.125355	87.426000
2410.650845	87.262000
2412.172774	89.188000
2413.696059	87.949000
2415.217423	87.277000
2416.736867	86.779000
2418.257666	88.276000
2419.776546	89.485000
2421.295144	87.935000
2422.811825	87.304000
2424.329861	88.780000
2425.847615	88.888000
2427.361817	87.153000
2428.875739	88.687000
2430.389382	90.475000
2431.904378	89.267000
2433.415826	89.175000
2434.928629	88.054000
2436.439519	90.218000
2437.950129	89.870000
2439.458828	90.479000
2440.970514	89.430000
2442.478656	91.652000
2443.986519	90.945000
2445.494105	88.578000
2446.998151	91.142000
2448.505181	90.454000
2450.010303	91.278000
2451.515148	90.542000
2453.018086	91.303000
2454.520747	92.081000
2456.023132	91.713000
2457.523612	94.076000
2459.025445	92.654000
2460.525374	92.774000
2462.025027	94.548000
2463.524405	91.722000
2465.021880	92.179000
2466.517453	93.283000
2468.016006	93.758000
2469.511030	92.160000
2471.007408	92.328000
2472.500259	92.270000
2473.994462	91.379000
2475.488392	92.853000
2476.978799	90.915000
2478.472183	91.181000
2479.963668	89.031000
2481.453257	90.794000
2482.942574	88.929000
2484.429996	90.007000
2485.920393	89.978000
2487.407271	91.412000
2488.895501	90.230000
2490.380215	89.336000
2491.864658	88.842000
2493.350453	91.838000
2494.834355	88.865000
2496.319609	92.017000
2497.799729	89.482000
2499.282821	88.184000
2500.764023	89.093000
2502.244956	88.676000
2503.724000	89.864000
2505.202776	90.025000
2506.681283	88.788000
2508.159521	89.664000
2509.637491	88.378000
2511.111957	88.199000
2512.589391	88.961000
2514.063322	88.204000
2515.538604	88.705000
2517.013618	86.785000
2518.485131	86.585000
2519.957995	86.794000
2521.428975	87.476000
2522.901306	88.049000
2524.368524	88.013000
2525.838708	85.461000
2527.307010	85.664000
2528.775048	87.178000
2530.242821	86.947000
2531.710329	86.356000
2533.177572	86.213000
2534.641324	87.761000
2536.106425	85.905000
2537.569649	86.173000
2539.034222	87.647000
2540.495306	86.961000
2541.957741	86.056000
2543.419912	86.090000
2544.878596	84.904000
2546.341853	86.995000
2547.800013	86.331000
2549.259522	87.687000
2550.713938	88.834000
2552.172924	87.248000
2553.630037	85.954000
2555.085280	87.255000
2556.540262	85.458000
2557.993374	87.230000
2559.447835	86.264000
2560.900427	87.426000
2562.352759	85.741000
2563.803223	87.161000
2565.256643	87.774000
2566.704981	87.521000
2568.156275	84.578000
2569.605702	86.469000
2571.051658	84.539000
2572.500568	88.015000
2573.946007	85.936000
2575.392795	87.374000
2576.837719	86.808000
2578.282386	89.078000
2579.728400	86.612000
2581.170947	86.298000
2582.614842	88.228000
2584.055272	86.490000
2585.497050	86.568000
2586.936968	88.126000
2588.378233	85.367000
2589.816036	86.065000
2591.256789	86.022000
2592.692479	86.997000
2594.131119	87.504000
2595.567902	86.930000
2597.002828	88.959000
2598.440703	87.181000
2599.873520	87.818000
2601.307684	86.988000
2602.739993	86.393000
2604.173649	88.684000
2605.605452	87.306000
2607.037002	90.210000
2608.468298	85.880000
2609.897743	88.037000
2611.326935	88.559000
2612.754276	88.833000
2614.182964	87.549000
2615.611399	88.589000
2617.036388	87.945000
2618.462722	88.849000
2619.887208	87.290000
2621.313040	86.718000
2622.735428	89.089000
2624.159162	88.305000
2625.581050	88.602000
2627.002687	90.137000
2628.422479	86.545000
2629.843617	87.642000
2631.264505	87.355000
2632.681955	87.316000
2634.102344	86.443000
2635.519296	87.105000
2636.936000	88.951000
2638.352455	86.298000
2639.768662	88.163000
2641.184620	87.762000
2642.598738	86.884000
2644.012609	89.148000
2645.424640	88.037000
2646.838016	87.925000
2648.247962	86.791000
2649.660844	87.033000
2651.070297	88.862000
2652.479504	88.434000
2653.886875	86.397000
2655.297180	87.888000
2656.705649	87.813000
2658.112283	88.415000
2659.518672	87.431000
2660.923227	87.993000
2662.329126	89.103000
2663.733192	89.762000
2665.137014	88.896000
2666.540591	89.429000
2667.942336	89.440000
2669.345425	89.636000
2670.745097	90.591000
2672.146112	88.238000
2673.543710	85.143000
2674.944239	87.138000
2676.341353	86.024000
2677.739810	86.684000
2679.136439	86.466000
2680.532827	86.183000
2681.928972	84.898000
2683.323291	85.180000
2684.718953	84.425000
2686.111205	85.035000
2687.504801	84.770000
2688.896572	85.197000
2690.289685	84.750000
2691.680975	84.423000
2693.070442	83.685000
2694.459670	84.392000
2695.848657	83.478000
2697.238987	86.501000
2698.624332	84.901000
2700.012602	84.481000
2701.399050	83.539000
2702.785261	84.923000
2704.171232	83.692000
2705.553805	84.106000
2706.937719	83.549000
2708.321396	85.116000
2709.704835	84.793000
2711.084878	84.214000
2712.466263	83.995000
2713.845832	83.591000
2715.226743	83.635000
2716.605839	85.400000
2717.983120	83.649000
2719.361743	84.745000
2720.738553	87.606000
2722.115127	84.160000
2723.491465	85.773000
2724.865991	85.775000
2726.241858	85.380000
2727.614338	84.309000
2728.989735	85.024000
2730.360170	85.892000
2731.731947	84.967000
2733.103490	85.797000
2734.473224	85.224000
2735.844298	84.210000
2737.213565	84.465000
2738.582598	85.693000
2739.949824	86.116000
2741.316818	86.124000
2742.683579	85.318000
2744.050107	86.389000
2745.414830	85.934000
2746.779322	86.904000
2748.143581	85.537000
2749.507609	86.339000
2750.871404	86.985000
2752.231826	87.792000
2753.595159	86.801000
2754.953549	86.324000
2756.314849	85.453000
2757.672778	87.431000
2759.033617	85.032000
2760.392655	84.251000
2761.748325	85.335000
2763.106903	84.560000
2764.462115	85.633000
2765.817097	84.930000
2767.170282	83.973000
2768.526374	87.428000
2769.879102	84.889000
2771.231601	84.544000
2772.583872	84.140000
2773.937482	85.556000
2775.287730	85.251000
2776.636185	86.233000
2777.987544	85.703000
2779.335544	87.326000
2780.684883	84.768000
2782.032429	86.424000
2783.379748	86.775000
2784.726841	87.532000
2786.072143	83.430000
2787.417219	87.591000
2788.762069	86.435000
2790.106693	85.933000
2791.447964	87.577000
2792.790574	87.997000
2794.132959	85.161000
2795.475118	87.212000
2796.813928	86.510000
2798.155638	87.492000
2799.493999	86.408000
2800.833698	88.410000
2802.171611	88.241000
2803.507740	87.316000
2804.843646	86.396000
2806.180888	89.222000
2807.516347	88.562000
2808.851583	87.954000
2810.185037	87.736000
2811.519827	88.378000
2812.851276	89.330000
2814.185621	88.201000
2815.515068	88.301000
2816.845852	88.765000
2818.176414	88.730000
2819.505197	89.214000
2820.835317	87.681000
2822.163657	88.855000
2823.491777	90.195000
2824.818120	90.186000
2826.145798	88.998000
2827.470144	91.884000
2828.795825	88.641000
2830.119732	90.627000
2831.443418	88.326000
2832.768440	90.215000
2834.090133	89.683000
2835.411606	90.366000
2836.732861	88.959000
2838.053897	90.153000
2839.373161	89.505000
2840.693760	88.903000
2842.012587	90.357000
2843.331196	90.748000
2844.648035	91.690000
2845.964656	89.834000
2847.281059	90.260000
2848.595694	91.944000
2849.911663	90.425000
2851.224312	89.754000
2852.538297	89.008000
2853.852065	93.022000
2855.165616	89.162000
2856.477400	92.202000
2857.787419	91.386000
2859.098772	92.684000
2860.406809	92.711000
2861.716182	92.501000
2863.025339	92.923000
2864.334281	93.875000
2865.641460	94.079000
2866.946875	92.471000
2868.253625	94.464000
2869.558612	93.153000
2870.863386	91.679000
2872.166398	92.282000
2873.472292	93.318000
2874.773331	94.078000
2876.075703	92.735000
2877.376316	93.289000
2878.678263	92.778000
2879.979997	92.113000
2881.278427	93.911000
2882.578190	94.454000
2883.876196	92.461000
2885.173990	93.507000
2886.470027	93.933000
2887.767398	93.557000
2889.063013	91.984000
2890.358418	95.148000
2891.653611	92.578000
2892.945506	93.011000
2894.240278	91.985000
2895.531754	93.385000
2896.824562	91.880000
2898.117160	93.699000
2899.406463	96.051000
2900.697099	94.371000
2901.985985	93.350000
2903.276202	93.950000
2904.563128	92.082000
2905.851386	94.228000
2907.137895	93.417000
2908.424195	94.571000
2909.710287	94.353000
2910.994631	95.485000
2912.281847	94.943000
2913.564236	93.669000
2914.847957	93.640000
2916.129931	93.343000
2917.411699	93.414000
2918.691721	93.532000
2919.974613	95.096000
2921.255760	94.844000
2922.533625	94.902000
2923.814359	97.354000
2925.091812	93.474000
2926.369060	94.279000
2927.644565	93.499000
2928.922938	94.702000
2930.196496	92.760000
2931.472922	92.894000
2932.747607	93.988000
2934.020552	93.479000
2935.294827	94.254000
2936.567363	93.858000
2937.839695	93.640000
2939.108754	92.521000
2940.380678	94.939000
2941.650863	93.077000
2942.920846	93.162000
2944.190625	94.091000
2945.458667	92.968000
2946.724974	91.011000
2947.991078	92.980000
2949.258513	93.329000
2950.524212	92.967000
2951.789709	92.165000
2953.055004	91.263000
2954.317035	92.954000
2955.580395	93.022000
2956.843554	91.367000
2958.104980	94.424000
2959.367736	90.788000
2960.628761	93.525000
2961.888055	93.420000
2963.147148	91.553000
2964.406041	92.605000
2965.664734	92.186000
2966.923227	92.270000
2968.179991	91.842000
2969.436555	93.526000
2970.691392	92.810000
2971.947558	93.469000
2973.200468	93.674000
2974.454708	93.520000
2975.708749	93.598000
2976.961064	91.814000
2978.213181	91.497000
2979.463573	92.106000
2980.716820	90.411000
2981.965290	93.326000
2983.216614	92.384000
2984.464690	93.211000
2985.712568	93.691000
2986.960249	92.147000
2988.207734	92.677000
2989.453497	92.191000
2990.699063	93.218000
2991.945958	92.033000
2993.189607	91.587000
2994.434585	93.582000
2995.676320	94.728000
2996.920906	92.171000
2998.163773	92.969000
2999.403398	92.838000
3000.645875	93.629000
3001.885111	94.879000
3003.125675	91.412000
3004.364522	94.637000
3005.603175	92.690000
3006.840112	94.741000
3008.078376	93.540000
3009.314926	95.850000
3010.551282	91.741000
3011.787444	93.163000
3013.021892	94.188000
3014.256147	93.526000
3015.490209	92.805000
3016.722559	94.847000
3017.953197	95.324000
3019.186681	94.003000
3020.418454	94.325000
3021.648515	94.141000
3022.878385	93.322000
3024.106545	93.677000
3025.336032	94.832000
3026.563809	94.523000
3027.791395	93.473000
3029.020307	93.351000
3030.244477	93.577000
3031.471490	96.231000
3032.695280	92.638000
3033.920395	94.600000
3035.143804	93.886000
3036.367024	93.275000
3037.588538	93.799000
3038.812893	94.250000
3040.032513	94.785000
3041.253459	94.346000
3042.474215	93.939000
3043.693268	93.910000
3044.913647	94.661000
3046.130809	96.085000
3047.349296	95.785000
3048.566082	96.336000
3049.782679	95.552000
3050.999089	95.411000
3052.212285	98.252000
3053.428319	97.630000
3054.641141	96.093000
3055.856800	96.114000
3057.067736	95.333000
3058.279998	95.341000
3059.492072	95.272000
3060.703960	97.034000
3061.914150	95.900000
3063.124155	94.764000
3064.333973	95.724000
3065.542095	96.893000
3066.750031	94.793000
3067.956273	96.214000
3069.163839	96.444000
3070.369710	95.333000
3071.575396	94.222000
3072.780897	95.297000
3073.984706	96.866000
3075.189838	97.558000
3076.393277	98.184000
3077.595024	96.579000
3078.796588	96.915000
3079.997968	96.229000
3081.199164	96.953000
3082.398670	97.145000
3083.597992	96.144000
3084.798638	97.565000
3085.997595	97.157000
3087.193356	97.532000
3088.391947	95.728000
3089.587344	96.159000
3090.784065	94.967000
3091.977593	97.186000
3093.173949	96.254000
3094.368618	96.215000
3095.560097	96.034000
3096.755907	97.192000
3097.947024	95.339000
3099.139464	96.508000
3100.328715	96.883000
3101.520793	96.885000
3102.711187	96.506000
3103.898394	97.012000
3105.086925	96.806000
3106.276778	97.178000
3107.463446	95.871000
3108.649935	97.009000
3109.836244	97.428000
3111.023876	94.773000
3112.208325	96.737000
3113.391094	95.553000
3114.576687	95.570000
3115.760599	97.413000
3116.942833	97.824000
3118.124889	95.743000
3119.306766	94.426000
3120.488465	94.849000
3121.668487	97.371000
3122.846831	96.777000
3124.027997	96.247000
3125.205987	97.529000
3126.383800	97.460000
3127.561436	97.801000
3128.737397	95.863000
3129.913182	97.134000
3131.090287	97.754000
3132.265719	95.695000
3133.439477	96.528000
3134.611562	95.818000
3135.784968	97.589000
3136.958199	96.483000
3138.129757	96.595000
3139.302637	97.108000
3140.472349	97.872000
3141.643382	99.459000
3142.812744	99.138000
3143.980437	98.230000
3145.150945	97.108000
3146.316794	96.974000
3147.486953	98.101000
3148.652454	95.170000
3149.817782	97.287000
3150.982936	97.887000
3152.147917	97.106000
3153.314217	98.055000
3154.475864	96.551000
3155.638832	94.839000
3156.801626	96.406000
3157.964248	95.877000
3159.125205	93.933000
3160.285989	95.327000
3161.446601	96.095000
3162.605550	94.528000
3163.764326	93.608000
3164.922931	97.466000
3166.081364	92.118000
3167.239625	96.719000
3168.396224	95.091000
3169.551162	96.131000
3170.707419	95.030000
3171.862016	95.249000
3173.016441	95.740000
3174.169207	96.115000
3175.321803	94.034000
3176.474229	93.387000
3177.626484	95.589000
3178.778570	96.363000
3179.927509	94.199000
3181.079255	97.066000
3182.229344	94.574000
3183.377775	95.137000
3184.526038	93.717000
3185.674132	96.296000
3186.822056	96.593000
3187.968326	96.442000
3189.114427	96.422000
3190.258874	99.706000
3191.403152	98.175000
3192.547263	96.570000
3193.692692	98.458000
3194.834982	95.866000
3195.977104	95.280000
3197.119060	96.039000
3198.260848	96.696000
3199.402469	98.528000
3200.540954	96.810000
3201.680758	97.490000
3202.821878	98.327000
3203.959864	98.320000
3205.096201	98.905000
3206.232372	98.076000
3207.369861	97.596000
3208.505701	97.067000
3209.642857	97.842000
3210.775401	98.693000
3211.912227	97.993000
3213.044441	98.504000
3214.177973	97.345000
3215.311339	96.220000
3216.441578	97.270000
3217.574615	97.629000
3218.704526	95.433000
3219.835754	95.670000
3220.963856	95.647000
3222.094756	97.446000
3223.224011	95.185000
3224.351622	94.595000
3225.476112	95.254000
3226.604877	96.851000
3227.730520	96.224000
3228.856000	96.865000
3229.979839	95.606000
3231.106473	96.132000
3232.228508	95.631000
3233.351860	95.823000
3234.475050	94.909000
3235.598078	95.032000
3236.719466	94.483000
3237.840693	96.173000
3238.960281	95.915000
3240.079708	95.280000
3241.197497	96.927000
3242.318079	95.547000
3243.435547	96.422000
3244.552854	96.431000
3245.670000	98.391000
3246.785511	99.232000
3247.902337	98.538000
3249.016052	97.855000
3250.132558	99.465000
3251.247428	99.337000
3252.359190	98.348000
3253.470793	99.964000
3254.583711	99.512000
3255.696469	99.167000
3256.806121	99.221000
3257.917088	100.340000
3259.027896	98.436000
3260.137072	100.934000
3261.244617	100.581000
3262.353477	99.477000
3263.462178	98.186000
3264.567777	100.280000
3265.674691	99.699000
3266.779975	100.653000
3267.886573	100.487000
3268.990071	99.109000
3270.094883	99.659000
3271.199538	102.475000
3272.301095	99.544000
3273.402495	100.099000
3274.505209	101.446000
3275.607766	99.434000
3276.707228	101.958000
3277.809472	101.938000
3278.908622	101.212000
3280.006146	101.136000
3281.103515	102.018000
3282.203667	100.317000
3283.300725	102.716000
3284.397629	100.508000
3285.494377	100.824000
3286.586566	99.634000
3287.683005	101.515000
3288.777821	100.102000
3289.872482	101.163000
3290.965522	100.218000
3292.058408	101.040000
3293.149673	100.775000
3294.242251	99.903000
3295.333209	101.671000
3296.422547	99.038000
3297.511732	99.931000
3298.602229	98.676000
3299.689642	101.427000
3300.776903	99.132000
3301.865476	101.545000
3302.953896	99.529000
3304.037769	102.345000
3305.125884	101.785000
3306.210918	101.284000
3307.294336	100.909000
3308.379066	101.325000
3309.462180	102.140000
3310.546606	102.437000
3311.627954	100.132000
3312.710614	103.215000
3313.791660	101.828000
3314.872555	103.972000
3315.951837	100.503000
3317.030968	103.133000
3318.111410	100.984000
3319.188779	103.130000
3320.267459	102.176000
3321.344527	102.093000
3322.421445	103.118000
3323.496753	101.664000
3324.571911	101.368000
3325.648380	101.480000
3326.721778	102.451000
3327.795028	103.372000
3328.869589	100.643000
3329.942540	103.874000
3331.013884	101.581000
3332.086538	102.811000
3333.156125	102.193000
3334.227023	103.171000
3335.296314	102.660000
3336.366916	103.184000
3337.435911	103.280000
3338.503300	101.759000
3339.569084	101.699000
3340.639094	101.256000
3341.706041	100.379000
3342.769926	100.292000
3343.836579	102.334000
3344.901628	101.008000
3345.965073	100.497000
3347.028371	102.987000
3348.091524	100.522000
3349.154530	101.895000
3350.217389	101.604000
3351.278647	101.037000
3352.336848	101.296000
3353.399270	100.580000
3354.458635	100.364000
3355.517856	101.663000
3356.578385	100.556000
3357.634405	103.105000
3358.693190	100.538000
3359.747467	100.850000
3360.804508	101.166000
3361.859950	103.706000
3362.916701	101.876000
3363.971855	102.989000
3365.025411	101.893000
3366.077370	103.006000
3367.132091	102.559000
3368.183764	102.056000
3369.235292	102.814000
3370.288130	104.754000
3371.337920	101.963000
3372.389019	105.233000
3373.437071	102.820000
3374.487884	103.126000
3375.535651	102.220000
3376.583276	102.723000
3377.630759	102.996000
3378.676648	102.992000
3379.723847	103.113000
3380.768002	102.320000
3381.814916	101.944000
3382.860238	104.741000
3383.902520	104.876000
3384.944660	104.353000
3385.988109	104.975000
3387.031416	104.272000
3388.073133	101.848000
3389.114709	103.897000
3390.156145	102.963000
3391.195992	104.704000
3392.234250	101.327000
3393.273816	103.540000
3394.313242	102.792000
3395.351080	102.900000
3396.387331	104.025000
3397.423442	103.288000
3398.460861	103.542000
3399.495247	104.642000
3400.530941	104.263000
3401.566495	103.515000
3402.599017	104.289000
3403.634293	104.533000
3404.666538	103.391000
3405.698645	103.897000
3406.729168	104.441000
3407.760999	106.292000
3408.792691	104.407000
3409.821355	103.917000
3410.849881	105.026000
3411.879715	105.929000
3412.909410	103.066000
3413.936080	103.995000
3414.964057	105.541000
3415.989009	104.854000
3417.016711	103.917000
3418.041390	104.608000
3419.067375	105.190000
3420.091781	106.039000
3421.116049	103.941000
3422.138739	106.630000
3423.161293	103.722000
3424.185153	106.560000
3425.205993	104.160000
3426.226698	104.829000
3427.248708	103.205000
3428.267700	104.103000
3429.286557	105.135000
3430.306719	102.770000
3431.323865	105.499000
