-117.932748	-1.126000
-115.263147	-1.344000
-112.596482	-1.007000
-109.930570	1.395000
-107.267589	0.822000
-104.603178	0.365000
-101.941698	0.694000
-99.278789	-0.003000
-96.620987	-0.658000
-93.961754	0.724000
-91.303270	1.626000
-88.647711	0.748000
-85.990723	0.087000
-83.338832	0.785000
-80.685512	-0.930000
-78.035112	0.067000
-75.383282	0.398000
-72.736543	-0.253000
-70.088374	2.070000
-67.440949	-0.568000
-64.796437	-0.195000
-62.150497	0.588000
-59.509638	-0.050000
-56.867349	0.898000
-54.227970	-0.187000
-51.587162	-2.037000
-48.947093	0.390000
-46.312098	-0.446000
-43.675673	-0.593000
-41.042152	0.535000
-38.407202	-0.243000
-35.777317	-0.250000
-33.143839	-0.605000
-30.515424	0.064000
-27.887743	-0.025000
-25.258634	-2.039000
-22.634581	-0.182000
-20.006939	-0.442000
-17.384350	-0.893000
-14.762492	-0.027000
-12.141365	0.513000
-9.520969	-0.216000
-6.903460	2.356000
-4.284523	6.918000
-1.668472	17.900000
0.946851	18.647000
3.561447	10.193000
6.173161	1.649000
8.786302	-0.580000
11.394410	-1.405000
14.006100	-0.236000
16.612759	-1.161000
19.220846	0.017000
21.828209	-0.657000
24.430547	0.616000
27.036463	-2.443000
29.637358	0.641000
32.239680	-0.692000
34.836984	-0.974000
37.437864	-1.219000
40.033730	-0.202000
42.631023	-0.371000
45.227597	-0.363000
47.819162	-0.579000
50.412155	0.085000
53.002287	0.019000
55.593847	-0.924000
58.182547	0.329000
60.772675	0.625000
63.357803	-0.991000
65.944359	0.545000
68.530200	-1.182000
71.113188	1.233000
73.697603	0.221000
76.274888	0.080000
78.855740	-0.057000
81.433743	-0.177000
84.011036	0.212000
86.589755	-0.626000
89.163493	1.610000
91.738657	0.283000
94.310978	0.118000
96.882592	1.268000
99.451365	0.319000
102.021565	-0.838000
104.588926	0.377000
107.157714	1.090000
109.723664	-0.264000
112.286780	0.391000
114.853453	0.610000
117.410903	2.548000
119.974039	-0.979000
122.532216	1.158000
125.093946	1.725000
127.650721	3.568000
130.208921	6.614000
132.762169	8.550000
135.314718	13.670000
137.870819	17.226000
140.421971	22.260000
142.972425	28.295000
145.522183	32.555000
148.069121	37.137000
150.615363	39.360000
153.163032	41.518000
155.710004	39.886000
158.252040	39.606000
160.793383	40.099000
163.334034	39.549000
165.876109	40.496000
168.415374	40.278000
170.951829	39.198000
173.487594	40.012000
176.024784	39.170000
178.561282	41.458000
181.094975	39.459000
183.625865	40.785000
186.156066	39.118000
188.687692	40.071000
191.216517	38.526000
193.742544	41.258000
196.267884	41.198000
198.794649	37.919000
201.318618	40.709000
203.841901	38.989000
206.364500	39.461000
208.884306	40.189000
211.403429	39.769000
213.921869	40.452000
216.441733	39.943000
218.954596	39.287000
221.470990	39.716000
223.986703	39.587000
226.497525	38.519000
229.009772	39.284000
231.519236	40.030000
234.028022	40.690000
236.536130	38.833000
239.045662	39.405000
241.550313	40.596000
244.054288	38.312000
246.559687	41.027000
249.060211	40.720000
251.564258	40.521000
254.061335	39.311000
256.561934	40.657000
259.059762	38.055000
261.556917	39.254000
264.053399	38.458000
266.545019	40.210000
269.040157	41.119000
271.532530	40.260000
274.024232	39.654000
276.513171	39.618000
279.003533	42.684000
281.491134	39.744000
283.975975	40.068000
286.464330	39.819000
288.945746	38.349000
291.430677	37.569000
293.910761	39.979000
296.394358	40.872000
298.873113	39.621000
301.353290	39.642000
303.830716	39.420000
306.307478	38.505000
308.783576	37.818000
311.256926	37.837000
313.729615	38.644000
316.201641	39.489000
318.673007	41.561000
321.141629	37.531000
323.609591	40.367000
326.078976	40.004000
328.543538	39.246000
331.011603	39.785000
333.474849	38.862000
335.937438	39.696000
338.399369	38.968000
340.860644	39.093000
343.319185	38.073000
345.779148	38.527000
348.236379	38.526000
350.692955	38.815000
353.148876	39.002000
355.602069	39.777000
358.056684	39.384000
360.506497	38.710000
362.959806	37.102000
365.408316	36.809000
367.856176	37.073000
370.305457	37.419000
372.749945	39.602000
375.195855	37.695000
377.641116	37.922000
380.083658	37.619000
382.525552	37.407000
384.966798	36.686000
387.405329	38.202000
389.845282	37.166000
392.282521	38.643000
394.717048	38.365000
397.155063	37.311000
399.588301	37.395000
402.022961	37.561000
404.452847	36.590000
406.886220	37.569000
409.314821	38.507000
411.742782	36.741000
414.172163	37.692000
416.596780	37.535000
419.022817	38.681000
421.448215	38.355000
423.872972	36.795000
426.292970	38.725000
428.714390	37.434000
431.133113	37.955000
433.553257	37.629000
435.970706	37.114000
438.389575	37.970000
440.805751	37.819000
443.217180	38.855000
445.632085	37.587000
448.044300	38.017000
450.455881	38.159000
452.866828	37.726000
455.275089	37.056000
457.682718	36.879000
460.089714	38.508000
462.496078	37.232000
464.899761	38.371000
467.302813	38.455000
469.705235	37.466000
472.107027	36.806000
474.506141	38.053000
476.906675	39.114000
479.306580	37.826000
481.701762	37.037000
484.100411	37.776000
486.494340	37.346000
488.887643	36.470000
491.280320	39.017000
493.672372	37.006000
496.065843	36.669000
498.454601	37.635000
500.840693	38.048000
503.228205	35.346000
505.615093	36.581000
507.999318	35.749000
510.384962	37.254000
512.767943	36.884000
515.148264	34.674000
517.530004	36.408000
519.909085	36.419000
522.289585	35.864000
524.667427	38.769000
527.042614	35.198000
529.417183	37.700000
531.793171	35.306000
534.166505	36.464000
536.541258	35.712000
538.911324	37.020000
541.280775	36.663000
543.651645	37.225000
546.017833	35.504000
548.385440	35.421000
550.750401	35.390000
553.114749	37.266000
555.478485	36.947000
557.843638	37.532000
560.204119	37.763000
562.566017	34.898000
564.925276	36.713000
567.281896	36.969000
569.641962	37.144000
571.995336	35.967000
574.352155	36.532000
576.706339	37.353000
579.059914	35.495000
581.412881	34.980000
583.763217	35.751000
586.114969	36.292000
588.460045	36.584000
590.810585	34.818000
593.154452	35.911000
595.503780	34.143000
597.848459	36.918000
600.190514	34.942000
602.533986	34.849000
604.874835	35.906000
607.215081	36.086000
609.552707	35.792000
611.893768	35.219000
614.230192	35.357000
616.568032	34.209000
618.903254	35.548000
621.235861	35.098000
623.569885	35.210000
625.901294	34.415000
628.232105	34.997000
630.562318	35.864000
632.891933	34.628000
635.216926	35.854000
637.547360	34.261000
639.873172	36.680000
642.196378	35.421000
644.521000	33.563000
646.843016	34.875000
649.164438	36.494000
651.483257	33.957000
653.803492	35.058000
656.123134	34.710000
658.440175	34.902000
660.756625	35.411000
663.070476	36.545000
665.385742	34.113000
667.698412	35.225000
670.012497	34.725000
672.321983	34.711000
674.632883	35.669000
676.941191	34.975000
679.248911	34.231000
681.558046	35.590000
683.862588	34.761000
686.166544	35.101000
688.469913	36.169000
690.774697	34.728000
693.074895	35.291000
695.376508	34.334000
697.677535	35.485000
699.973981	36.025000
702.271841	35.248000
704.569118	33.075000
706.865812	34.392000
709.157930	33.295000
711.453459	32.733000
713.744415	35.839000
716.036785	34.795000
718.326579	33.140000
720.615794	35.198000
722.904428	34.076000
725.190491	34.826000
727.477967	33.616000
729.762873	33.994000
732.047200	33.745000
734.328960	34.388000
736.612133	33.706000
738.894729	34.443000
741.172769	33.987000
743.452223	34.044000
745.731102	36.235000
748.009405	33.979000
750.283159	34.756000
752.558327	36.578000
754.832921	34.698000
757.104956	33.671000
759.378404	35.991000
761.649294	34.660000
763.917627	33.987000
766.187375	33.622000
768.454567	34.281000
770.721189	35.807000
772.987242	35.163000
775.250743	33.358000
777.515656	36.012000
779.780001	34.246000
782.039815	32.855000
784.301043	35.856000
786.561703	34.754000
788.819816	35.144000
791.075385	35.091000
793.334345	33.618000
795.586806	33.308000
797.844634	35.968000
800.097943	35.024000
802.348711	35.175000
804.600892	36.057000
806.850535	32.711000
809.101589	33.385000
811.348132	34.654000
813.596088	33.356000
815.841508	33.511000
818.088341	33.617000
820.334611	33.800000
822.576378	35.213000
824.821527	33.807000
827.060204	34.715000
829.302264	33.167000
831.539825	36.147000
833.778797	33.422000
836.015243	33.538000
838.253101	33.295000
840.488433	32.975000
842.721241	33.816000
844.955461	32.648000
847.187159	34.459000
849.418302	34.250000
851.648890	34.161000
853.878924	34.907000
856.108403	35.507000
858.333402	32.796000
860.561774	34.929000
862.785668	34.217000
865.010972	34.852000
867.231801	33.929000
869.456002	33.876000
871.675730	34.374000
873.896869	34.360000
876.117457	34.215000
878.335536	34.080000
880.555024	34.680000
882.770046	33.677000
884.984520	33.999000
887.198447	33.634000
889.411826	31.951000
891.624659	32.100000
893.836944	33.851000
896.046728	34.246000
898.255966	32.332000
900.464658	31.371000
902.670852	33.704000
904.878455	32.363000
907.083561	33.327000
909.288123	32.690000
911.490189	35.482000
913.693666	32.724000
915.894648	33.356000
918.095088	33.209000
920.296937	33.722000
922.492394	31.539000
924.691211	34.765000
926.885590	32.646000
929.083326	33.300000
931.276626	31.888000
933.471334	34.883000
935.663557	33.548000
937.855242	32.424000
940.046389	34.913000
942.235053	33.183000
944.423180	33.475000
946.608827	32.710000
948.797826	33.824000
950.982402	33.412000
953.166443	35.185000
955.353834	33.180000
957.532922	33.242000
959.715359	34.745000
961.897263	34.225000
964.076693	33.878000
966.253650	34.629000
968.432015	32.554000
970.611786	34.443000
972.785209	34.814000
974.961978	33.494000
977.134341	34.743000
979.308110	33.689000
981.477477	35.249000
983.650187	34.066000
985.820431	34.086000
987.990147	33.106000
990.159334	33.719000
992.324124	32.653000
994.492255	34.045000
996.655992	35.633000
998.821136	34.853000
1000.983820	32.163000
1003.145979	34.136000
1005.305680	35.108000
1007.464858	34.304000
1009.625442	32.887000
1011.783571	34.104000
1013.941176	32.806000
1016.098258	32.077000
1018.254817	33.913000
1020.406996	34.955000
1022.560582	34.168000
1024.713645	33.834000
1026.864261	31.895000
1029.016282	33.453000
1031.163930	34.329000
1033.314910	34.529000
1035.461520	33.347000
1037.607610	33.501000
1039.753182	33.901000
1041.900158	34.059000
1044.040847	33.490000
1046.184864	33.458000
1048.326441	33.362000
1050.467502	33.823000
1052.609967	34.927000
1054.746153	34.953000
1056.885665	32.935000
1059.020821	33.216000
1061.159302	34.480000
1063.293430	34.308000
1065.427044	34.155000
1067.562062	33.245000
1069.692731	36.391000
1071.824806	35.101000
1073.954450	34.042000
1076.083583	34.291000
1078.212205	33.687000
1080.340315	34.854000
1082.465999	34.126000
1084.591173	34.588000
1086.717750	33.030000
1088.839991	33.426000
1090.963636	34.171000
1093.082946	35.059000
1095.207485	34.161000
1097.325780	34.085000
1099.445478	32.931000
1101.562758	33.947000
1103.679532	34.000000
1105.795799	33.649000
1107.909651	35.723000
1110.024906	34.169000
1112.135839	33.913000
1114.250083	34.819000
1116.360008	34.669000
1118.471335	34.842000
1120.582159	32.821000
1122.688666	33.838000
1124.798482	33.950000
1126.903984	34.140000
1129.010890	33.163000
1131.111579	34.507000
1133.217481	34.192000
1135.319074	35.040000
1137.422070	33.863000
1139.524565	33.823000
1141.620854	34.051000
1143.722349	34.384000
1145.819542	33.638000
1147.916236	34.530000
1150.012433	33.717000
1152.108131	34.636000
1154.203332	33.934000
1156.296136	32.745000
1158.390342	33.650000
1160.478357	34.562000
1162.571570	35.092000
1164.658595	33.893000
1166.748920	33.242000
1168.834956	34.971000
1170.924290	35.222000
1173.007443	32.951000
1175.091999	34.233000
1177.177955	34.625000
1179.259630	32.690000
1181.342707	34.673000
1183.423398	34.818000
1185.503597	33.027000
1187.583306	34.833000
1189.662522	35.185000
1191.739357	30.885000
1193.813811	34.891000
1195.891557	34.849000
1197.965032	34.086000
1200.039909	33.902000
1202.110518	36.164000
1204.182528	34.196000
1206.252162	34.336000
1208.323197	32.949000
1210.393744	34.567000
1212.460030	34.090000
1214.527717	33.831000
1216.593032	35.587000
1218.659747	34.325000
1220.722206	35.918000
1222.787950	34.389000
1224.849441	36.675000
1226.912331	36.372000
1228.972854	35.445000
1231.032894	35.919000
1233.092450	34.290000
1235.149642	35.685000
1237.206351	35.926000
1239.260698	36.046000
1241.318325	34.846000
1243.373590	36.741000
1245.424614	35.415000
1247.477038	35.045000
1249.528983	36.660000
1251.578569	36.004000
1253.627676	37.467000
1255.676304	36.951000
1257.724454	38.436000
1259.772126	37.120000
1261.815567	35.714000
1263.862283	38.397000
1265.906647	36.651000
1267.950533	38.340000
1269.992069	37.112000
1272.031255	39.932000
1274.073713	39.480000
1276.111950	40.148000
1278.151584	40.304000
1280.190744	41.614000
1282.225686	41.481000
1284.262026	41.358000
1286.296021	43.497000
1288.331415	42.937000
1290.362595	43.603000
1292.395174	44.677000
1294.427280	46.103000
1296.457046	47.977000
1298.488210	50.788000
1300.515166	50.015000
1302.543520	54.022000
1304.567670	58.735000
1306.595085	60.961000
1308.618297	66.535000
1310.642906	74.459000
1312.665182	80.366000
1314.688855	92.379000
1316.710195	111.793000
1318.731067	140.748000
1320.751473	192.016000
1322.767684	290.816000
1324.785294	503.226000
1326.800575	1054.891000
1328.819115	2380.402000
1330.833465	4475.005000
1332.845490	5407.462000
1334.860773	3926.671000
1336.871870	1710.668000
1338.884363	596.838000
1340.892674	291.506000
1342.904241	176.049000
1344.909769	123.846000
1346.918551	95.195000
1348.923157	79.919000
1350.931016	71.160000
1352.938412	62.849000
1354.939778	59.018000
1356.942541	52.137000
1358.944844	51.598000
1360.946686	47.210000
1362.948070	45.806000
1364.947139	44.817000
1366.945750	43.033000
1368.943903	41.902000
1370.941598	41.141000
1372.935129	38.460000
1374.930057	40.575000
1376.924528	38.769000
1378.918542	36.895000
1380.910249	37.415000
1382.901500	37.752000
1384.890446	36.517000
1386.880787	37.831000
1388.870673	36.598000
1390.858256	36.299000
1392.845385	35.662000
1394.830212	35.146000
1396.816434	35.018000
1398.800355	35.825000
1400.783824	36.123000
1402.766841	34.305000
1404.747560	35.558000
1406.729673	36.267000
1408.709489	34.859000
1410.688855	35.927000
1412.664082	36.294000
1414.642547	35.108000
1416.618719	35.225000
1418.594441	34.439000
1420.569714	35.544000
1422.542696	35.785000
1424.515231	35.714000
1426.487317	36.059000
1428.458955	36.300000
1430.426466	35.970000
1432.399050	35.432000
1434.363828	35.318000
1436.333679	35.907000
1438.299405	34.542000
1440.266525	34.887000
1442.231361	32.489000
1444.192077	35.989000
1446.157861	34.665000
1448.117690	36.677000
1450.078912	34.328000
1452.041527	35.256000
1454.000027	35.439000
1455.958085	33.685000
1457.915700	35.279000
1459.872874	33.952000
1461.827772	34.863000
1463.784062	33.680000
1465.738078	32.460000
1467.691654	32.787000
1469.642957	35.093000
1471.595652	35.089000
1473.546076	35.082000
1475.496061	33.499000
1477.445606	34.298000
1479.392883	35.493000
1481.337893	33.872000
1483.284295	33.113000
1485.230259	34.962000
1487.175785	34.385000
1489.119047	33.988000
1491.061872	33.574000
1493.002434	32.831000
1494.944387	34.647000
1496.884079	33.316000
1498.823335	33.657000
1500.762157	34.409000
1502.698719	34.531000
1504.636671	33.344000
1506.572366	33.079000
1508.507627	34.068000
1510.440631	32.780000
1512.373203	34.443000
1514.305343	31.809000
1516.237051	34.425000
1518.166506	33.028000
1520.097350	33.261000
1522.027764	34.395000
1523.954105	34.117000
1525.881836	33.459000
1527.807317	34.299000
1529.732369	34.105000
1531.656992	33.897000
1533.581186	32.292000
1535.503133	34.350000
1537.426469	34.005000
1539.347560	33.134000
1541.266406	34.262000
1543.186642	32.676000
1545.104634	33.905000
1547.022200	33.841000
1548.937524	33.060000
1550.854238	34.031000
1552.766897	33.450000
1554.682760	34.538000
1556.596384	34.525000
1558.507769	33.039000
1560.420543	33.089000
1562.329268	35.324000
1564.239383	34.528000
1566.149074	33.045000
1568.058341	34.412000
1569.965375	33.284000
1571.870176	34.490000
1573.776366	32.200000
1575.680324	32.475000
1577.583862	32.795000
1579.486978	33.518000
1581.387866	33.240000
1583.290142	32.144000
1585.190189	33.161000
1587.091625	32.729000
1588.989026	31.993000
1590.886010	32.522000
1592.782575	32.720000
1594.680527	34.541000
1596.572645	33.058000
1598.467957	34.484000
1600.362850	31.559000
1602.255522	31.867000
1604.147778	31.691000
1606.037814	33.403000
1607.927434	32.172000
1609.816639	33.780000
1611.705428	32.034000
1613.592001	33.255000
1615.479960	33.286000
1617.363904	32.191000
1619.249234	32.585000
1621.134150	30.784000
1623.016854	33.489000
1624.900943	32.937000
1626.781022	32.167000
1628.662487	32.591000
1630.541742	32.441000
1632.422383	32.689000
1634.297220	33.237000
1636.177039	32.468000
1638.052852	30.878000
1639.928256	33.170000
1641.805045	31.910000
1643.676037	32.861000
1645.550211	32.331000
1647.420387	32.710000
1649.293743	32.773000
1651.164896	32.101000
1653.033847	32.787000
1654.904184	33.981000
1656.770527	33.122000
1658.638256	33.427000
1660.503787	32.142000
1662.370702	31.076000
1664.233629	33.656000
1666.097941	32.700000
1667.960058	32.341000
1669.821769	32.748000
1671.684865	30.278000
1673.545767	31.662000
1675.404475	31.988000
1677.262780	32.769000
1679.122470	32.075000
1680.976393	33.057000
1682.833488	31.292000
1684.690181	32.591000
1686.542898	31.963000
1688.398786	32.738000
1690.250700	31.746000
1692.102212	31.950000
1693.953325	30.983000
1695.804036	32.940000
1697.654347	30.925000
1699.502474	32.406000
1701.351984	31.917000
1703.195746	31.086000
1705.044458	31.119000
1706.887423	32.332000
1708.733554	31.543000
1710.575724	32.658000
1712.421058	32.884000
1714.260652	31.585000
1716.101630	32.332000
1717.943991	32.843000
1719.782396	30.599000
1721.622184	31.241000
1723.459797	32.491000
1725.297014	32.516000
1727.132058	32.094000
1728.968485	32.414000
1730.802740	32.335000
1732.636601	31.777000
1734.470067	31.355000
1736.299587	31.354000
1738.132266	32.719000
1739.961001	33.213000
1741.792894	29.841000
1743.620844	32.165000
1745.448402	31.949000
1747.275569	30.341000
1749.102343	33.863000
1750.928727	31.259000
1752.751174	32.032000
1754.576775	33.040000
1756.398442	30.778000
1758.221491	33.699000
1760.042379	30.474000
1761.862877	30.915000
1763.684757	31.394000
1765.500937	29.959000
1767.320269	30.721000
1769.135674	31.051000
1770.954229	30.381000
1772.768860	31.885000
1774.583103	30.243000
1776.396960	31.511000
1778.210430	33.280000
1780.021746	30.350000
1781.834444	31.851000
1783.646755	31.746000
1785.455149	30.904000
1787.264924	31.980000
1789.070783	31.498000
1790.879789	31.194000
1792.684881	31.739000
1794.491353	33.363000
1796.297442	32.863000
1798.099621	31.847000
1799.904943	30.712000
1801.706357	30.929000
1803.509151	30.565000
1805.308040	31.119000
1807.108308	31.446000
1808.908196	33.443000
1810.705941	32.256000
1812.503306	31.820000
1814.300290	28.930000
1816.096894	32.084000
1817.891359	32.143000
1819.687204	30.587000
1821.477393	31.418000
1823.272479	32.244000
1825.061912	29.862000
1826.854483	31.165000
1828.644918	30.422000
1830.433218	31.114000
1832.224654	31.685000
1834.010444	30.015000
1835.797614	31.737000
1837.582652	31.542000
1839.370824	31.461000
1841.155110	30.558000
1842.937267	32.262000
1844.720802	29.205000
1846.502210	31.069000
1848.284995	33.360000
1850.063901	32.723000
1851.844185	31.614000
1853.622344	30.691000
1855.401880	31.364000
1857.179292	30.447000
1858.954580	30.271000
1860.731247	32.162000
1862.505791	32.057000
1864.281712	32.465000
1866.052014	31.353000
1867.825443	30.340000
1869.596752	31.642000
1871.367690	32.804000
1873.140005	32.311000
1874.906708	32.737000
1876.676535	31.509000
1878.442499	30.726000
1880.211587	32.341000
1881.976813	32.064000
1883.741671	30.416000
1885.507905	31.453000
1887.270281	34.146000
1889.032290	31.118000
1890.793932	30.269000
1892.555206	31.103000
1894.316114	32.483000
1896.076654	31.109000
1897.835085	32.588000
1899.593151	31.696000
1901.349109	31.988000
1903.106443	32.554000
1904.863411	30.803000
1906.618274	32.451000
1908.371031	32.879000
1910.123425	33.197000
1911.877194	31.393000
1913.628861	32.917000
1915.378424	32.607000
1917.129364	32.133000
1918.879940	31.246000
1920.626678	32.543000
1922.374791	32.040000
1924.120805	34.380000
1925.868195	31.458000
1927.613486	31.542000
1929.356680	33.080000
1931.101250	32.515000
1932.843723	33.125000
1934.585836	31.700000
1936.327590	32.773000
1938.068983	32.201000
1939.808283	34.417000
1941.547224	32.942000
1943.285806	33.083000
1945.022296	31.721000
1946.758429	32.239500
1948.495936	32.758000
1950.229622	33.300000
1951.964682	32.634000
1953.697653	33.846000
1955.430268	33.374000
1957.162526	34.673000
1958.894428	32.864000
1960.624244	33.559000
1962.351976	34.072000
1964.081081	33.115000
1965.809832	32.990000
1967.536499	33.582000
1969.262812	32.895000
1970.990498	32.869000
1972.712648	33.972000
1974.437900	35.190000
1976.159344	33.854000
1977.883888	33.137000
1979.606353	32.887000
1981.325014	34.788000
1983.046774	32.698000
1984.764732	35.107000
1986.484064	33.921000
1988.199595	34.281000
1989.919948	33.631000
1991.636501	34.652000
1993.349259	34.146000
1995.065112	34.719000
1996.778892	34.742000
1998.492323	33.793000
2000.203683	33.981000
2001.916416	35.463000
2003.625357	33.847000
2005.337392	33.806000
2007.043917	36.154000
2008.753535	34.847000
2010.461085	35.166000
2012.168288	34.941000
2013.873425	33.543000
2015.578215	34.049000
2017.284377	34.301000
2018.986757	36.246000
2020.690509	34.827000
2022.392198	34.198000
2024.093541	34.811000
2025.794539	35.597000
2027.493477	35.628000
2029.193786	36.223000
2030.890319	35.695000
2032.588224	37.472000
2034.284071	35.944000
2035.983003	34.473000
2037.676448	35.190000
2039.371266	35.097000
2041.065740	35.174000
2042.756446	36.047000
2044.450236	36.687000
2046.140259	34.756000
2047.831653	36.664000
2049.520994	37.107000
2051.211705	34.490000
2052.898654	35.109000
2054.585262	36.028000
2056.273241	34.545000
2057.957460	36.280000
2059.643049	35.445000
2061.328299	35.009000
2063.011501	35.932000
2064.696073	36.422000
2066.375181	36.024000
2068.059075	34.954000
2069.737509	35.146000
2071.419020	34.703000
2073.096779	37.522000
2074.774202	34.876000
2076.452994	35.633000
2078.129743	34.653000
2079.804451	35.943000
2081.480528	35.534000
2083.154565	36.468000
2084.828266	35.397000
2086.501632	34.858000
2088.172960	37.064000
2089.843953	35.515000
2091.514612	36.219000
2093.184937	35.423000
2094.854927	34.555000
2096.522882	36.087000
2098.190504	37.278000
2099.856092	35.734000
2101.523048	35.383000
2103.187971	36.271000
2104.852561	36.682000
2106.515120	36.492000
2108.179048	36.001000
2109.840944	36.114000
2111.502509	36.740000
2113.163744	36.860000
2114.822949	34.993000
2116.481825	37.913000
2118.140370	35.365000
2119.798586	37.765000
2121.453078	34.970000
2123.110636	37.390000
2124.767863	37.700000
2126.421370	37.896000
2128.076244	36.897000
2129.727399	38.367000
2131.381617	36.470000
2133.032117	35.604000
2134.683985	36.819000
2136.330444	38.563000
2137.981657	36.684000
2139.629157	37.381000
2141.278025	37.798000
2142.924873	36.679000
2144.571395	36.904000
2146.217592	36.974000
2147.860081	37.314000
2149.505628	37.261000
2151.147468	37.153000
2152.792365	38.433000
2154.433557	36.867000
2156.074425	38.684000
2157.714970	37.397000
2159.353502	38.335000
2160.993400	39.473000
2162.629598	39.974000
2164.267162	38.821000
2165.904404	38.661000
2167.539636	36.884000
2169.174546	39.599000
2170.809135	37.626000
2172.443403	37.353000
2174.073977	39.264000
2175.707602	37.524000
2177.337536	38.679000
2178.968835	40.573000
2180.598130	40.525000
2182.227104	40.180000
2183.855760	39.721000
2185.484096	40.603000
2187.110429	39.053000
2188.736444	40.147000
2190.360458	38.898000
2191.985837	39.287000
2193.609215	37.912000
2195.233958	40.130000
2196.855019	39.743000
2198.475765	38.837000
2200.097874	41.254000
2201.717986	40.922000
2203.336102	38.968000
2204.953902	38.718000
2206.571386	39.225000
2208.188555	40.661000
2209.805409	39.619000
2211.421948	40.930000
2213.036493	38.888000
2214.649046	41.173000
2216.262964	40.239000
2217.874889	40.587000
2219.488179	37.608000
2221.099477	41.794000
2222.708787	40.205000
2224.319459	40.338000
2225.928143	41.221000
2227.536515	39.792000
2229.142899	40.365000
2230.750647	41.774000
2232.356408	40.674000
2233.961858	41.225000
2235.565324	41.666000
2237.170152	40.695000
2238.772996	38.853000
2240.373857	42.596000
2241.976081	41.597000
2243.576322	43.463000
2245.177927	42.013000
2246.775878	42.489000
2248.375192	40.389000
2249.972526	41.268000
2251.569552	42.581000
2253.167939	42.535000
2254.762678	44.291000
2256.355441	41.457000
2257.949565	41.016000
2259.545051	44.322000
2261.136893	42.571000
2262.728428	42.737000
2264.321324	43.521000
2265.908911	43.309000
2267.501195	42.686000
2269.088171	42.834000
2270.678176	41.930000
2272.262876	42.501000
2273.852270	43.004000
2275.436361	40.764000
2277.021814	43.008000
2278.605298	42.476000
2280.191807	42.681000
2281.774683	44.434000
2283.357255	41.896000
2284.939525	43.573000
2286.518164	42.864000
2288.099827	42.812000
2289.677862	43.001000
2291.258921	43.224000
2292.836352	44.059500
2294.411820	44.895000
2295.990310	44.006000
2297.565175	42.625000
2299.139740	44.417000
2300.714005	45.346000
2302.287969	42.629000
2303.861633	42.985000
2305.434996	46.227000
2307.004741	43.265000
2308.574187	44.896000
2310.146652	43.890000
2311.713842	42.991000
2313.284049	44.898000
2314.850642	44.195000
2316.418595	44.892000
2317.984593	45.118000
2319.550293	45.680000
2321.115695	46.046000
2322.679144	45.858000
2324.243952	44.948000
2325.805151	45.288000
2327.369365	46.587000
2328.928318	44.430000
2330.490284	46.328000
2332.050300	45.436000
2333.610020	45.168000
2335.167791	46.822000
2336.725268	46.958000
2338.282449	47.206000
2339.837684	45.645000
2341.392624	45.584000
2342.947271	46.409000
2344.501624	46.219000
2346.055683	46.328000
2347.609449	47.368000
2349.161270	47.131000
2350.711148	46.875000
2352.264034	47.118000
2353.811678	45.751000
2355.362329	46.086000
2356.909390	46.652000
2358.457808	47.368000
2360.005934	44.642000
2361.550473	45.583000
2363.096369	47.178000
2364.640326	49.232000
2366.185641	47.417000
2367.727371	46.844000
2369.270459	48.206000
2370.811610	46.004000
2372.352472	48.080000
2373.893045	46.711000
2375.433329	46.892000
2376.973324	48.865000
2378.509740	47.418000
2380.049158	48.972000
2381.584999	48.507000
2383.122196	47.502000
2384.655819	49.241000
2386.192441	46.680000
2387.727132	47.330000
2389.259894	49.099000
2390.792370	49.428000
2392.322917	49.825000
2393.856462	48.876000
2395.384796	47.903000
2396.914486	48.508000
2398.443891	49.254000
2399.973011	50.400000
2401.501845	48.802000
2403.025475	51.008000
2404.553740	49.559000
2406.076802	50.808000
2407.604499	49.939000
2409.125355	50.112000
2410.650845	49.487000
2412.172774	51.983000
2413.696059	49.752000
2415.217423	50.076000
2416.736867	49.468000
2418.257666	50.919000
2419.776546	51.561000
2421.295144	50.652000
2422.811825	51.130000
2424.329861	50.672000
2425.847615	51.589000
2427.361817	51.073000
2428.875739	51.273000
2430.389382	51.491000
2431.904378	51.344000
2433.415826	51.247000
2434.928629	51.482000
2436.439519	53.042000
2437.950129	52.405000
2439.458828	53.006000
2440.970514	50.975000
2442.478656	53.781000
2443.986519	53.793000
2445.494105	51.908000
2446.998151	53.724000
2448.505181	54.099000
2450.010303	55.851000
2451.515148	53.907000
2453.018086	55.977000
2454.520747	54.596000
2456.023132	55.549000
2457.523612	55.867000
2459.025445	55.821000
2460.525374	55.417000
2462.025027	56.809000
2463.524405	56.170000
2465.021880	55.485000
2466.517453	56.546000
2468.016006	55.509000
2469.511030	54.886000
2471.007408	55.030000
2472.500259	54.922000
2473.994462	55.279000
2475.488392	54.816000
2476.978799	53.323000
2478.472183	55.371000
2479.963668	55.575000
2481.453257	55.800000
2482.942574	52.623000
2484.429996	54.349000
2485.920393	53.438000
2487.407271	54.899000
2488.895501	55.124000
2490.380215	52.464000
2491.864658	54.313000
2493.350453	55.130000
2494.834355	53.300000
2496.319609	54.931000
2497.799729	53.140000
2499.282821	53.261000
2500.764023	51.435000
2502.244956	53.489000
2503.724000	53.274000
2505.202776	54.749000
2506.681283	53.373000
2508.159521	53.764000
2509.637491	53.127000
2511.111957	53.770000
2512.589391	53.077000
2514.063322	53.969000
2515.538604	52.300000
2517.013618	51.994000
2518.485131	52.530000
2519.957995	51.208000
2521.428975	52.607000
2522.901306	51.914000
2524.368524	50.908000
2525.838708	50.360000
2527.307010	50.398000
2528.775048	50.836000
2530.242821	50.680000
2531.710329	50.711000
2533.177572	51.470000
2534.641324	51.375000
2536.106425	50.513000
2537.569649	50.492000
2539.034222	50.228000
2540.495306	52.146000
2541.957741	51.152000
2543.419912	52.221000
2544.878596	49.493000
2546.341853	51.288000
2547.800013	51.088000
2549.259522	51.593000
2550.713938	50.937000
2552.172924	51.944000
2553.630037	52.049000
2555.085280	52.508000
2556.540262	50.092000
2557.993374	51.187000
2559.447835	52.504000
2560.900427	52.542000
2562.352759	51.132000
2563.803223	49.945000
2565.256643	52.608000
2566.704981	53.309000
2568.156275	50.168000
2569.605702	52.810000
2571.051658	50.439000
2572.500568	52.603000
2573.946007	51.176000
2575.392795	51.751000
2576.837719	51.713000
2578.282386	51.558000
2579.728400	51.667000
2581.170947	51.500000
2582.614842	54.225000
2584.055272	52.082000
2585.497050	51.566000
2586.936968	54.133000
2588.378233	51.598000
2589.816036	52.112000
2591.256789	52.982000
2592.692479	52.058000
2594.131119	52.357000
2595.567902	52.335000
2597.002828	52.648000
2598.440703	52.275000
2599.873520	53.613000
2601.307684	54.230000
2602.739993	52.508000
2604.173649	52.775000
2605.605452	51.732000
2607.037002	54.540000
2608.468298	51.316000
2609.897743	53.710000
2611.326935	53.172000
2612.754276	53.987000
2614.182964	54.531000
2615.611399	55.801000
2617.036388	53.662000
2618.462722	54.866000
2619.887208	56.164000
2621.313040	53.700000
2622.735428	53.157000
2624.159162	54.986000
2625.581050	56.613000
2627.002687	56.539000
2628.422479	54.778000
2629.843617	55.324000
2631.264505	54.692000
2632.681955	54.162000
2634.102344	54.271000
2635.519296	55.368000
2636.936000	55.738000
2638.352455	55.104000
2639.768662	55.723000
2641.184620	55.376000
2642.598738	53.836000
2644.012609	56.175000
2645.424640	55.953000
2646.838016	54.731000
2648.247962	54.947000
2649.660844	54.397000
2651.070297	56.459000
2652.479504	55.776000
2653.886875	55.843000
2655.297180	55.734000
2656.705649	56.895000
2658.112283	54.690000
2659.518672	55.430000
2660.923227	55.219000
2662.329126	56.587000
2663.733192	57.114000
2665.137014	56.101000
2666.540591	57.148000
2667.942336	55.594000
2669.345425	57.225000
2670.745097	57.015000
2672.146112	56.404000
2673.543710	53.954000
2674.944239	55.798000
2676.341353	53.465000
2677.739810	55.247000
2679.136439	54.850000
2680.532827	53.730000
2681.928972	53.300000
2683.323291	53.425000
2684.718953	53.610000
2686.111205	53.245000
2687.504801	54.579000
2688.896572	54.061000
2690.289685	53.670000
2691.680975	54.416000
2693.070442	52.519000
2694.459670	53.508000
2695.848657	53.256000
2697.238987	55.655000
2698.624332	53.832000
2700.012602	53.670000
2701.399050	52.829000
2702.785261	53.108000
2704.171232	53.813000
2705.553805	54.047000
2706.937719	53.753000
2708.321396	54.325000
2709.704835	55.378000
2711.084878	53.797000
2712.466263	53.799000
2713.845832	55.659000
2715.226743	54.114000
2716.605839	55.415000
2717.983120	54.798000
2719.361743	54.329000
2720.738553	56.293000
2722.115127	54.377000
2723.491465	56.498000
2724.865991	56.888000
2726.241858	55.956000
2727.614338	53.652000
2728.989735	55.940000
2730.360170	55.518000
2731.731947	56.056000
2733.103490	54.926000
2734.473224	55.611000
2735.844298	56.658000
2737.213565	56.113000
2738.582598	56.218000
2739.949824	57.131000
2741.316818	57.230000
2742.683579	58.680000
2744.050107	57.599000
2745.414830	56.901000
2746.779322	57.760000
2748.143581	57.103000
2749.507609	59.315000
2750.871404	57.944000
2752.231826	57.791000
2753.595159	58.861000
2754.953549	58.591000
2756.314849	55.977000
2757.672778	58.520000
2759.033617	58.528000
2760.392655	58.030000
2761.748325	59.198000
2763.106903	58.078000
2764.462115	58.547000
2765.817097	58.598000
2767.170282	55.431000
2768.526374	59.729000
2769.879102	57.919000
2771.231601	57.989000
2772.583872	57.558000
2773.937482	59.366000
2775.287730	58.665000
2776.636185	59.036000
2777.987544	58.836000
2779.335544	61.758000
2780.684883	58.688000
2782.032429	61.038000
2783.379748	60.526000
2784.726841	60.147000
2786.072143	58.950000
2787.417219	61.023000
2788.762069	59.409000
2790.106693	59.393000
2791.447964	59.152000
2792.790574	60.284000
2794.132959	59.005000
2795.475118	60.054000
2796.813928	61.391000
2798.155638	60.052000
2799.493999	61.065000
2800.833698	60.792000
2802.171611	61.767000
2803.507740	61.515000
2804.843646	61.868000
2806.180888	62.318000
2807.516347	62.424000
2808.851583	63.149000
2810.185037	62.112000
2811.519827	62.476000
2812.851276	61.642000
2814.185621	63.099000
2815.515068	63.206000
2816.845852	62.751000
2818.176414	61.882000
2819.505197	63.065000
2820.835317	62.465000
2822.163657	63.871000
2823.491777	64.686000
2824.818120	64.214000
2826.145798	62.563000
2827.470144	64.021000
2828.795825	62.893000
2830.119732	62.297000
2831.443418	62.435000
2832.768440	64.078000
2834.090133	63.758000
2835.411606	63.875000
2836.732861	63.447000
2838.053897	63.161000
2839.373161	62.052000
2840.693760	62.242000
2842.012587	63.171000
2843.331196	62.283000
2844.648035	63.620000
2845.964656	63.539000
2847.281059	62.157000
2848.595694	63.855000
2849.911663	64.050000
2851.224312	62.671000
2852.538297	61.897000
2853.852065	63.645000
2855.165616	62.256000
2856.477400	65.007000
2857.787419	64.565000
2859.098772	64.396000
2860.406809	63.326000
2861.716182	63.597000
2863.025339	65.049000
2864.334281	65.020000
2865.641460	65.895000
2866.946875	64.123000
2868.253625	67.027000
2869.558612	65.869000
2870.863386	65.008000
2872.166398	65.667000
2873.472292	65.616000
2874.773331	66.078000
2876.075703	66.410000
2877.376316	66.203000
2878.678263	65.683000
2879.979997	64.832000
2881.278427	65.414000
2882.578190	65.849000
2883.876196	65.305000
2885.173990	66.418000
2886.470027	67.362000
2887.767398	65.482000
2889.063013	64.129000
2890.358418	66.238000
2891.653611	66.251000
2892.945506	65.028000
2894.240278	65.848000
2895.531754	66.352000
2896.824562	64.391000
2898.117160	65.594000
2899.406463	66.097000
2900.697099	67.576000
2901.985985	65.167000
2903.276202	64.794000
2904.563128	65.135000
2905.851386	65.195000
2907.137895	66.405000
2908.424195	65.228000
2909.710287	67.089000
2910.994631	68.026000
2912.281847	66.977000
2913.564236	67.370000
2914.847957	66.779000
2916.129931	66.337000
2917.411699	67.173000
2918.691721	64.772000
2919.974613	67.069000
2921.255760	65.799000
2922.533625	65.674000
2923.814359	69.391000
2925.091812	65.073000
2926.369060	66.834000
2927.644565	66.717000
2928.922938	66.641000
2930.196496	66.469000
2931.472922	67.711000
2932.747607	66.173000
2934.020552	65.588000
2935.294827	64.629000
2936.567363	66.237000
2937.839695	67.824000
2939.108754	65.967000
2940.380678	67.181000
2941.650863	65.991000
2942.920846	65.507000
2944.190625	67.888000
2945.458667	65.877000
2946.724974	65.491000
2947.991078	66.002000
2949.258513	67.100000
2950.524212	67.406000
2951.789709	66.496000
2953.055004	65.708000
2954.317035	67.200000
2955.580395	65.822000
2956.843554	65.748000
2958.104980	67.119000
2959.367736	64.488000
2960.628761	66.834000
2961.888055	66.841000
2963.147148	66.308000
2964.406041	67.428000
2965.664734	65.910000
2966.923227	66.146000
2968.179991	65.592000
2969.436555	68.063000
2970.691392	68.654000
2971.947558	70.103000
2973.200468	66.830000
2974.454708	67.358000
2975.708749	68.840000
2976.961064	68.633000
2978.213181	67.853000
2979.463573	67.710000
2980.716820	66.724000
2981.965290	69.040000
2983.216614	68.768000
2984.464690	69.294000
2985.712568	69.061000
2986.960249	69.116000
2988.207734	69.168000
2989.453497	70.424000
2990.699063	69.038000
2991.945958	68.758000
2993.189607	68.219000
2994.434585	70.222000
2995.676320	69.700000
2996.920906	67.931000
2998.163773	68.578000
2999.403398	69.595000
3000.645875	68.627000
3001.885111	71.242000
3003.125675	69.093000
3004.364522	69.843000
3005.603175	69.059000
3006.840112	69.982000
3008.078376	71.401000
3009.314926	71.801000
3010.551282	68.676000
3011.787444	70.988000
3013.021892	71.511000
3014.256147	69.604000
3015.490209	70.136000
3016.722559	70.865000
3017.953197	71.150000
3019.186681	71.548000
3020.418454	71.161000
3021.648515	72.806000
3022.878385	71.354000
3024.106545	72.154000
3025.336032	71.672000
3026.563809	71.111000
3027.791395	72.410000
3029.020307	69.662000
3030.244477	70.980000
3031.471490	72.942000
3032.695280	70.615000
3033.920395	71.743000
3035.143804	71.532000
3036.367024	70.568000
3037.588538	72.506000
3038.812893	73.595000
3040.032513	71.524000
3041.253459	72.282000
3042.474215	72.116000
3043.693268	71.588000
3044.913647	73.046000
3046.130809	74.088000
3047.349296	74.080000
3048.566082	73.314000
3049.782679	72.638000
3050.999089	73.771000
3052.212285	75.180000
3053.428319	73.547000
3054.641141	73.540000
3055.856800	73.732000
3057.067736	75.219000
3058.279998	73.454000
3059.492072	73.665000
3060.703960	74.331000
3061.914150	73.484000
3063.124155	73.937000
3064.333973	72.997000
3065.542095	76.029000
3066.750031	74.854000
3067.956273	74.838000
3069.163839	73.989000
3070.369710	74.077500
3071.575396	74.166000
3072.780897	74.900000
3073.984706	75.376000
3075.189838	75.120000
3076.393277	77.520000
3077.595024	75.859000
3078.796588	75.576000
3079.997968	74.971000
3081.199164	75.303000
3082.398670	75.182000
3083.597992	75.312000
3084.798638	77.114000
3085.997595	75.381000
3087.193356	75.228000
3088.391947	74.690000
3089.587344	75.386000
3090.784065	76.130000
3091.977593	77.723000
3093.173949	75.117000
3094.368618	77.207000
3095.560097	75.560000
3096.755907	76.770000
3097.947024	76.898000
3099.139464	76.589000
3100.328715	77.300000
3101.520793	77.222000
3102.711187	74.258000
3103.898394	76.741000
3105.086925	78.880000
3106.276778	77.651000
3107.463446	76.742000
3108.649935	77.764000
3109.836244	78.169000
3111.023876	74.869000
3112.208325	76.741000
3113.391094	76.150000
3114.576687	76.650000
3115.760599	78.463000
3116.942833	77.714000
3118.124889	77.317000
3119.306766	76.261000
3120.488465	78.029000
3121.668487	78.893000
3122.846831	76.529000
3124.027997	78.003000
3125.205987	77.709000
3126.383800	78.448000
3127.561436	79.178000
3128.737397	78.335000
3129.913182	77.717000
3131.090287	79.128000
3132.265719	77.361000
3133.439477	77.637000
3134.611562	79.512000
3135.784968	77.572000
3136.958199	77.877000
3138.129757	78.247000
3139.302637	77.759000
3140.472349	78.997000
3141.643382	80.132000
3142.812744	78.582000
3143.980437	79.223000
3145.150945	78.408000
3146.316794	78.645000
3147.486953	78.232000
3148.652454	77.592000
3149.817782	79.090000
3150.982936	79.414000
3152.147917	78.569000
3153.314217	79.267000
3154.475864	78.266000
3155.638832	78.369000
3156.801626	79.194000
3157.964248	78.690000
3159.125205	77.202000
3160.285989	76.408000
3161.446601	79.565000
3162.605550	77.358000
3163.764326	76.711000
3164.922931	78.607000
3166.081364	74.348000
3167.239625	78.637000
3168.396224	77.421000
3169.551162	78.324000
3170.707419	78.822000
3171.862016	77.453000
3173.016441	78.455000
3174.169207	79.030000
3175.321803	76.561000
3176.474229	77.668000
3177.626484	76.381000
3178.778570	79.621000
3179.927509	77.012000
3181.079255	81.556000
3182.229344	76.819000
3183.377775	79.148000
3184.526038	79.431000
3185.674132	79.044000
3186.822056	77.825000
3187.968326	78.658000
3189.114427	79.347000
3190.258874	80.856000
3191.403152	81.214000
3192.547263	81.914000
3193.692692	80.926000
3194.834982	80.318000
3195.977104	78.149000
3197.119060	80.168000
3198.260848	80.759000
3199.402469	82.022000
3200.540954	79.868000
3201.680758	81.261000
3202.821878	81.555000
3203.959864	78.472000
3205.096201	80.256000
3206.232372	80.367000
3207.369861	81.504000
3208.505701	80.596000
3209.642857	79.053000
3210.775401	81.449000
3211.912227	80.837000
3213.044441	80.797000
3214.177973	79.507000
3215.311339	82.255000
3216.441578	79.382000
3217.574615	81.753000
3218.704526	77.998000
3219.835754	79.892000
3220.963856	78.447000
3222.094756	81.002000
3223.224011	80.115000
3224.351622	77.939000
3225.476112	80.542000
3226.604877	80.076000
3227.730520	80.093000
3228.856000	81.850000
3229.979839	79.925000
3231.106473	79.718000
3232.228508	80.866000
3233.351860	81.034000
3234.475050	80.824000
3235.598078	79.237000
3236.719466	81.363000
3237.840693	79.788000
3238.960281	80.498000
3240.079708	78.880000
3241.197497	81.061000
3242.318079	79.944000
3243.435547	79.689000
3244.552854	78.394000
3245.670000	82.238000
3246.785511	82.266000
3247.902337	82.179000
3249.016052	81.024000
3250.132558	84.672000
3251.247428	83.539000
3252.359190	81.874000
3253.470793	81.612000
3254.583711	82.497000
3255.696469	83.701000
3256.806121	82.870000
3257.917088	82.695000
3259.027896	82.526000
3260.137072	82.849000
3261.244617	82.801000
3262.353477	83.554000
3263.462178	82.145000
3264.567777	86.267000
3265.674691	83.593000
3266.779975	82.672000
3267.886573	83.329000
3268.990071	83.467000
3270.094883	82.896000
3271.199538	83.549000
3272.301095	85.635000
3273.402495	84.488000
3274.505209	85.502000
3275.607766	83.718000
3276.707228	85.230000
3277.809472	86.916000
3278.908622	84.938000
3280.006146	84.057000
3281.103515	86.640000
3282.203667	85.780000
3283.300725	86.183000
3284.397629	85.633000
3285.494377	84.400000
3286.586566	84.354000
3287.683005	85.492000
3288.777821	84.760000
3289.872482	85.001000
3290.965522	86.117000
3292.058408	86.254000
3293.149673	85.372000
3294.242251	85.334000
3295.333209	85.402000
3296.422547	83.766000
3297.511732	83.922000
3298.602229	83.083000
3299.689642	86.713000
3300.776903	84.246000
3301.865476	84.236000
3302.953896	84.578000
3304.037769	84.801000
3305.125884	86.626000
3306.210918	86.844000
3307.294336	86.098000
3308.379066	86.659000
3309.462180	86.312000
3310.546606	85.483000
3311.627954	83.865000
3312.710614	87.514000
3313.791660	83.943000
3314.872555	87.209000
3315.951837	85.606000
3317.030968	85.829000
3318.111410	85.069000
3319.188779	87.522000
3320.267459	85.962000
3321.344527	85.836000
3322.421445	88.949000
3323.496753	86.773000
3324.571911	87.518000
3325.648380	86.579000
3326.721778	87.877000
3327.795028	88.099000
3328.869589	88.202000
3329.942540	87.522000
3331.013884	87.267000
3332.086538	86.623000
3333.156125	87.434000
3334.227023	86.683000
3335.296314	86.230000
3336.366916	88.126000
3337.435911	86.790000
3338.503300	85.868000
3339.569084	86.980000
3340.639094	84.948000
3341.706041	85.390000
3342.769926	87.516000
3343.836579	88.309000
3344.901628	85.863000
3345.965073	87.067000
3347.028371	87.647000
3348.091524	86.662000
3349.154530	87.296000
3350.217389	88.680000
3351.278647	87.183000
3352.336848	87.663000
3353.399270	87.805000
3354.458635	86.412000
3355.517856	86.963000
3356.578385	87.400000
3357.634405	87.878000
3358.693190	85.661000
3359.747467	86.718000
3360.804508	88.645000
3361.859950	88.478000
3362.916701	88.366000
3363.971855	88.996000
3365.025411	87.738000
3366.077370	88.704000
3367.132091	89.619000
3368.183764	89.391000
3369.235292	89.509000
3370.288130	89.026000
3371.337920	87.285000
3372.389019	89.611000
3373.437071	89.961000
3374.487884	87.885000
3375.535651	89.455000
3376.583276	90.493000
3377.630759	89.651000
3378.676648	91.784000
3379.723847	90.115000
3380.768002	90.134000
3381.814916	89.662000
3382.860238	91.288000
3383.902520	89.897000
3384.944660	91.307000
3385.988109	89.912000
3387.031416	90.615000
3388.073133	88.862000
3389.114709	89.306000
3390.156145	89.823000
3391.195992	91.787000
3392.234250	88.577000
3393.273816	89.817000
3394.313242	90.418000
3395.351080	89.984000
3396.387331	92.075000
3397.423442	91.724000
3398.460861	92.476000
3399.495247	92.398000
3400.530941	91.930000
3401.566495	91.973000
3402.599017	93.002000
3403.634293	92.243000
3404.666538	90.310000
3405.698645	91.055000
3406.729168	91.835000
3407.760999	93.149000
3408.792691	94.826000
3409.821355	92.692000
3410.849881	92.415000
3411.879715	93.562000
3412.909410	92.780000
3413.936080	94.103000
3414.964057	93.699000
3415.989009	93.564000
3417.016711	93.551000
3418.041390	94.621000
3419.067375	94.528000
3420.091781	93.140000
3421.116049	93.946000
3422.138739	93.859000
3423.161293	93.212000
3424.185153	95.425000
3425.205993	92.518000
3426.226698	93.953000
3427.248708	92.881000
3428.267700	93.587000
3429.286557	92.190000
3430.306719	92.373000
3431.323865	95.401000
