-117.932748	0.782000
-115.263147	0.524000
-112.596482	-0.365000
-109.930570	-0.339000
-107.267589	-0.012000
-104.603178	-0.033000
-101.941698	1.376000
-99.278789	1.029000
-96.620987	-1.430000
-93.961754	-0.765000
-91.303270	1.310000
-88.647711	1.458000
-85.990723	0.838000
-83.338832	1.546000
-80.685512	0.153000
-78.035112	0.042000
-75.383282	-0.678000
-72.736543	-0.081000
-70.088374	2.221000
-67.440949	-0.550000
-64.796437	0.192000
-62.150497	1.850000
-59.509638	0.396000
-56.867349	1.572000
-54.227970	-0.338000
-51.587162	-0.086000
-48.947093	1.484000
-46.312098	0.497000
-43.675673	0.059000
-41.042152	0.878000
-38.407202	-0.587000
-35.777317	0.802000
-33.143839	0.093000
-30.515424	0.703000
-27.887743	-0.205000
-25.258634	-0.211000
-22.634581	1.449000
-20.006939	0.601000
-17.384350	0.920000
-14.762492	1.169000
-12.141365	0.321000
-9.520969	1.227000
-6.903460	5.617000
-4.284523	16.484000
-1.668472	41.156000
0.946851	81.757000
3.561447	48.140000
6.173161	6.713000
8.786302	-0.396000
11.394410	2.820000
14.006100	-1.039000
16.612759	0.611000
19.220846	-0.576000
21.828209	0.644000
24.430547	0.379000
27.036463	-0.785000
29.637358	1.261000
32.239680	0.611000
34.836984	-0.076000
37.437864	0.679000
40.033730	0.465000
42.631023	0.375000
45.227597	-0.284000
47.819162	1.038000
50.412155	0.500000
53.002287	1.728000
55.593847	0.863000
58.182547	1.703000
60.772675	1.290000
63.357803	0.602000
65.944359	1.803000
68.530200	0.299000
71.113188	1.410000
73.697603	-0.016000
76.274888	0.162000
78.855740	-0.734000
81.433743	2.062000
84.011036	1.256000
86.589755	0.935000
89.163493	0.811000
91.738657	0.723000
94.310978	-0.005000
96.882592	1.090000
99.451365	0.196000
102.021565	-0.495000
104.588926	-0.056000
107.157714	0.825000
109.723664	1.967000
112.286780	1.329000
114.853453	1.178000
117.410903	3.520000
119.974039	2.320000
122.532216	2.760000
125.093946	2.652000
127.650721	6.822000
130.208921	10.250000
132.762169	13.583000
135.314718	21.065000
137.870819	26.188000
140.421971	35.741000
142.972425	44.951000
145.522183	51.488000
148.069121	55.225000
150.615363	57.671000
153.163032	60.391000
155.710004	60.222000
158.252040	61.512000
160.793383	60.573000
163.334034	60.725000
165.876109	60.705000
168.415374	61.021000
170.951829	61.632000
173.487594	61.193000
176.024784	59.980000
178.561282	61.846000
181.094975	60.871000
183.625865	61.820000
186.156066	61.605000
188.687692	60.597000
191.216517	60.860000
193.742544	60.686000
196.267884	60.561000
198.794649	60.740000
201.318618	62.067000
203.841901	59.630000
206.364500	60.957000
208.884306	60.941000
211.403429	59.968000
213.921869	60.527000
216.441733	61.257000
218.954596	60.403000
221.470990	61.696000
223.986703	61.366000
226.497525	60.582000
229.009772	63.688000
231.519236	62.420000
234.028022	62.156000
236.536130	61.807000
239.045662	61.770000
241.550313	60.186000
244.054288	60.174000
246.559687	60.251000
249.060211	62.371000
251.564258	61.451000
254.061335	61.986000
256.561934	61.532000
259.059762	60.957000
261.556917	60.774000
264.053399	59.506000
266.545019	61.927000
269.040157	60.308000
271.532530	62.095000
274.024232	60.233000
276.513171	61.314000
279.003533	61.749000
281.491134	62.302000
283.975975	58.978000
286.464330	58.879000
288.945746	60.632000
291.430677	60.000000
293.910761	60.962000
296.394358	59.761000
298.873113	60.717000
301.353290	60.146000
303.830716	58.895000
306.307478	59.174000
308.783576	58.963000
311.256926	58.266000
313.729615	59.540000
316.201641	60.279000
318.673007	62.062000
321.141629	60.729000
323.609591	60.752000
326.078976	61.874000
328.543538	60.846000
331.011603	61.273000
333.474849	60.820000
335.937438	59.606000
338.399369	60.210000
340.860644	60.151000
343.319185	59.494000
345.779148	60.409000
348.236379	59.609000
350.692955	59.992000
353.148876	60.415000
355.602069	59.833000
358.056684	60.524000
360.506497	59.770000
362.959806	58.755000
365.408316	59.206000
367.856176	59.346000
370.305457	61.441000
372.749945	58.710000
375.195855	58.384000
377.641116	60.829000
380.083658	58.703000
382.525552	59.299000
384.966798	57.776000
387.405329	58.140000
389.845282	59.337000
392.282521	58.327000
394.717048	58.320000
397.155063	59.244000
399.588301	58.508000
402.022961	58.484000
404.452847	58.487000
406.886220	59.952000
409.314821	59.407000
411.742782	58.250000
414.172163	58.812000
416.596780	59.290000
419.022817	59.627000
421.448215	59.066000
423.872972	58.169000
426.292970	60.280000
428.714390	59.769000
431.133113	59.684000
433.553257	60.946000
435.970706	59.013000
438.389575	59.378000
440.805751	60.017000
443.217180	59.201000
445.632085	59.695000
448.044300	58.881000
450.455881	58.115000
452.866828	59.670000
455.275089	59.470000
457.682718	58.482000
460.089714	59.980000
462.496078	59.066000
464.899761	58.223000
467.302813	58.749000
469.705235	58.879000
472.107027	59.152000
474.506141	58.102000
476.906675	60.646000
479.306580	58.839000
481.701762	58.402000
484.100411	59.207000
486.494340	57.721000
488.887643	58.458000
491.280320	58.987000
493.672372	58.267000
496.065843	57.315000
498.454601	59.031000
500.840693	58.701000
503.228205	57.740000
505.615093	59.122000
507.999318	58.603000
510.384962	59.410000
512.767943	58.566000
515.148264	56.685000
517.530004	59.229000
519.909085	58.298000
522.289585	57.525000
524.667427	58.164000
527.042614	56.997000
529.417183	57.378000
531.793171	59.013000
534.166505	58.555000
536.541258	57.743000
538.911324	58.859000
541.280775	58.842000
543.651645	58.451000
546.017833	58.018000
548.385440	57.726000
550.750401	58.562000
553.114749	57.957000
555.478485	59.093000
557.843638	60.220000
560.204119	58.828000
562.566017	57.291000
564.925276	58.738000
567.281896	57.593000
569.641962	58.363000
571.995336	57.733000
574.352155	59.194000
576.706339	57.488000
579.059914	57.589000
581.412881	57.046000
583.763217	55.467000
586.114969	56.241000
588.460045	57.261000
590.810585	57.773000
593.154452	58.273000
595.503780	56.863000
597.848459	58.719000
600.190514	57.235000
602.533986	57.791000
604.874835	57.474000
607.215081	57.713000
609.552707	58.165000
611.893768	56.791000
614.230192	58.835000
616.568032	56.202000
618.903254	58.080000
621.235861	57.370000
623.569885	57.842000
625.901294	57.385000
628.232105	56.540000
630.562318	56.976000
632.891933	57.939000
635.216926	57.357000
637.547360	58.439000
639.873172	59.047000
642.196378	56.771000
644.521000	56.612000
646.843016	57.719000
649.164438	58.934000
651.483257	55.415000
653.803492	57.614000
656.123134	56.732000
658.440175	57.200000
660.756625	57.757000
663.070476	59.309000
665.385742	56.619000
667.698412	57.079000
670.012497	56.450000
672.321983	57.457000
674.632883	56.427000
676.941191	56.479000
679.248911	55.599000
681.558046	57.438000
683.862588	56.891000
686.166544	58.373000
688.469913	57.184000
690.774697	57.222000
693.074895	56.401000
695.376508	56.375000
697.677535	56.739000
699.973981	58.521000
702.271841	58.124000
704.569118	54.987000
706.865812	56.683000
709.157930	55.609000
711.453459	55.812000
713.744415	57.465000
716.036785	57.936000
718.326579	56.172000
720.615794	58.652000
722.904428	56.038000
725.190491	56.141000
727.477967	56.695000
729.762873	57.699000
732.047200	56.027000
734.328960	56.563000
736.612133	56.978000
738.894729	56.659000
741.172769	55.965000
743.452223	56.697000
745.731102	56.633000
748.009405	56.288000
750.283159	57.954000
752.558327	58.612000
754.832921	57.270000
757.104956	56.413000
759.378404	57.157000
761.649294	57.500000
763.917627	56.342000
766.187375	57.190000
768.454567	55.214000
770.721189	58.334000
772.987242	56.376000
775.250743	54.948000
777.515656	57.411000
779.780001	56.798000
782.039815	55.246000
784.301043	57.105000
786.561703	55.525000
788.819816	56.369000
791.075385	57.232000
793.334345	56.400000
795.586806	56.054000
797.844634	57.128000
800.097943	56.463000
802.348711	57.406000
804.600892	55.876000
806.850535	56.392000
809.101589	56.381000
811.348132	56.143000
813.596088	56.565000
815.841508	56.992000
818.088341	55.354000
820.334611	54.183000
822.576378	57.266000
824.821527	55.789000
827.060204	55.265000
829.302264	54.769000
831.539825	57.612000
833.778797	54.995000
836.015243	55.917000
838.253101	54.024000
840.488433	55.909000
842.721241	56.768000
844.955461	55.317000
847.187159	57.193000
849.418302	56.997000
851.648890	57.209000
853.878924	57.638000
856.108403	56.944000
858.333402	56.587000
860.561774	57.240000
862.785668	55.913000
865.010972	57.588000
867.231801	55.605000
869.456002	56.431000
871.675730	55.992000
873.896869	57.492000
876.117457	55.636000
878.335536	57.200000
880.555024	56.439000
882.770046	54.089000
884.984520	56.548000
887.198447	55.465000
889.411826	54.520000
891.624659	55.068000
893.836944	56.179000
896.046728	55.261000
898.255966	56.103000
900.464658	53.845000
902.670852	55.741000
904.878455	54.318000
907.083561	56.296000
909.288123	53.805000
911.490189	57.387000
913.693666	55.490000
915.894648	55.005000
918.095088	56.187000
920.296937	56.742000
922.492394	55.360000
924.691211	57.143000
926.885590	54.807000
929.083326	55.539000
931.276626	55.216000
933.471334	58.012000
935.663557	55.407000
937.855242	54.659000
940.046389	56.069000
942.235053	54.302000
944.423180	56.578000
946.608827	56.657000
948.797826	55.921000
950.982402	56.238000
953.166443	56.374000
955.353834	55.183000
957.532922	56.677000
959.715359	57.565000
961.897263	55.741000
964.076693	57.058000
966.253650	57.149000
968.432015	57.572000
970.611786	57.700000
972.785209	57.130000
974.961978	56.998000
977.134341	56.877000
979.308110	56.338000
981.477477	56.531000
983.650187	56.505000
985.820431	56.845000
987.990147	57.738000
990.159334	55.793000
992.324124	56.616000
994.492255	56.808000
996.655992	56.602000
998.821136	56.530000
1000.983820	54.602000
1003.145979	56.070000
1005.305680	58.396000
1007.464858	57.229000
1009.625442	56.127000
1011.783571	56.165000
1013.941176	55.195000
1016.098258	55.635000
1018.254817	56.471000
1020.406996	56.681000
1022.560582	55.337000
1024.713645	55.847000
1026.864261	53.755000
1029.016282	54.665000
1031.163930	55.897000
1033.314910	55.253000
1035.461520	54.206000
1037.607610	55.244000
1039.753182	54.908000
1041.900158	56.768000
1044.040847	55.100000
1046.184864	55.906000
1048.326441	54.817000
1050.467502	55.262000
1052.609967	54.299000
1054.746153	55.941000
1056.885665	55.488000
1059.020821	55.069000
1061.159302	56.969000
1063.293430	55.732000
1065.427044	56.365000
1067.562062	55.060000
1069.692731	56.873000
1071.824806	57.278000
1073.954450	56.675000
1076.083583	56.434000
1078.212205	55.091000
1080.340315	56.564000
1082.465999	57.766000
1084.591173	56.469000
1086.717750	55.366000
1088.839991	57.170000
1090.963636	57.719000
1093.082946	56.956000
1095.207485	55.886000
1097.325780	55.804000
1099.445478	56.436000
1101.562758	56.568000
1103.679532	55.971000
1105.795799	56.478000
1107.909651	57.923000
1110.024906	56.988000
1112.135839	56.573000
1114.250083	57.679000
1116.360008	57.312000
1118.471335	55.851000
1120.582159	55.474000
1122.688666	56.785000
1124.798482	55.942000
1126.903984	55.667000
1129.010890	57.255000
1131.111579	55.680000
1133.217481	57.297000
1135.319074	58.026000
1137.422070	57.681000
1139.524565	55.948000
1141.620854	56.783000
1143.722349	55.083000
1145.819542	55.567000
1147.916236	56.756000
1150.012433	55.502000
1152.108131	55.408000
1154.203332	56.732000
1156.296136	54.775000
1158.390342	56.640000
1160.478357	57.858000
1162.571570	56.809000
1164.658595	55.296000
1166.748920	56.932000
1168.834956	58.163000
1170.924290	56.914000
1173.007443	55.943000
1175.091999	56.165000
1177.177955	55.906000
1179.259630	55.833000
1181.342707	57.893000
1183.423398	58.048000
1185.503597	57.031000
1187.583306	56.638000
1189.662522	58.320000
1191.739357	56.010000
1193.813811	58.917000
1195.891557	58.098000
1197.965032	57.179000
1200.039909	56.637000
1202.110518	58.361000
1204.182528	55.489000
1206.252162	57.388000
1208.323197	55.999000
1210.393744	57.284000
1212.460030	57.473000
1214.527717	57.172000
1216.593032	57.665000
1218.659747	56.471000
1220.722206	58.489000
1222.787950	58.402000
1224.849441	58.447000
1226.912331	57.888000
1228.972854	58.757000
1231.032894	58.318000
1233.092450	57.680000
1235.149642	58.320000
1237.206351	58.460000
1239.260698	57.481000
1241.318325	58.599000
1243.373590	59.193000
1245.424614	60.119000
1247.477038	59.011000
1249.528983	59.339000
1251.578569	57.937000
1253.627676	59.411000
1255.676304	58.393000
1257.724454	59.606000
1259.772126	59.029000
1261.815567	59.100000
1263.862283	59.546000
1265.906647	59.902000
1267.950533	57.607000
1269.992069	61.141000
1272.031255	60.979000
1274.073713	61.154000
1276.111950	61.541000
1278.151584	62.821000
1280.190744	62.903000
1282.225686	62.257000
1284.262026	63.253000
1286.296021	65.258000
1288.331415	63.085000
1290.362595	65.519000
1292.395174	65.816000
1294.427280	68.147000
1296.457046	68.234000
1298.488210	70.583000
1300.515166	73.550000
1302.543520	75.314000
1304.567670	77.820000
1306.595085	81.054000
1308.618297	85.454000
1310.642906	92.434000
1312.665182	98.355000
1314.688855	109.172000
1316.710195	125.997000
1318.731067	152.728000
1320.751473	199.804000
1322.767684	287.409000
1324.785294	478.877000
1326.800575	977.931000
1328.819115	2166.670000
1330.833465	3951.214000
1332.845490	4566.758000
1334.860773	3233.491000
1336.871870	1415.498000
1338.884363	555.809000
1340.892674	296.901000
1342.904241	188.638000
1344.909769	138.657000
1346.918551	111.707000
1348.923157	95.947000
1350.931016	89.501000
1352.938412	81.974000
1354.939778	78.119000
1356.942541	72.577000
1358.944844	70.783000
1360.946686	68.657000
1362.948070	67.822000
1364.947139	66.610000
1366.945750	64.081000
1368.943903	63.695000
1370.941598	63.972000
1372.935129	60.891000
1374.930057	63.314000
1376.924528	61.347000
1378.918542	60.306000
1380.910249	60.726000
1382.901500	60.038000
1384.890446	58.020000
1386.880787	59.501000
1388.870673	57.782000
1390.858256	57.969000
1392.845385	58.093000
1394.830212	58.869000
1396.816434	59.143000
1398.800355	58.113000
1400.783824	57.636000
1402.766841	57.510000
1404.747560	57.260000
1406.729673	58.774000
1408.709489	58.295000
1410.688855	58.819000
1412.664082	58.787000
1414.642547	58.457000
1416.618719	58.780000
1418.594441	59.132000
1420.569714	56.565000
1422.542696	58.560000
1424.515231	57.202000
1426.487317	59.282000
1428.458955	58.912000
1430.426466	58.252000
1432.399050	57.958000
1434.363828	58.480000
1436.333679	57.630000
1438.299405	56.486000
1440.266525	58.432000
1442.231361	56.939000
1444.192077	59.323000
1446.157861	57.570000
1448.117690	60.413000
1450.078912	57.499000
1452.041527	58.953000
1454.000027	57.342000
1455.958085	56.729000
1457.915700	57.627000
1459.872874	56.887000
1461.827772	59.204000
1463.784062	56.878000
1465.738078	56.159000
1467.691654	57.750000
1469.642957	57.466000
1471.595652	57.722000
1473.546076	57.179000
1475.496061	55.392000
1477.445606	54.823000
1479.392883	57.624000
1481.337893	55.971000
1483.284295	56.140000
1485.230259	56.316000
1487.175785	55.959000
1489.119047	56.769000
1491.061872	56.884000
1493.002434	55.573000
1494.944387	57.133000
1496.884079	56.796000
1498.823335	55.940000
1500.762157	56.635000
1502.698719	58.335000
1504.636671	55.864000
1506.572366	55.671000
1508.507627	56.261000
1510.440631	56.760000
1512.373203	57.659000
1514.305343	55.887000
1516.237051	58.594000
1518.166506	56.602000
1520.097350	56.500000
1522.027764	58.477000
1523.954105	57.638000
1525.881836	57.839000
1527.807317	57.971000
1529.732369	56.998000
1531.656992	58.270000
1533.581186	55.850000
1535.503133	55.971000
1537.426469	57.052000
1539.347560	55.613000
1541.266406	56.101000
1543.186642	55.499000
1545.104634	57.549000
1547.022200	57.403000
1548.937524	55.388000
1550.854238	57.389000
1552.766897	56.526000
1554.682760	56.781000
1556.596384	57.520000
1558.507769	55.177000
1560.420543	56.181000
1562.329268	57.450000
1564.239383	57.831000
1566.149074	56.321000
1568.058341	56.311000
1569.965375	54.103000
1571.870176	56.334000
1573.776366	54.918000
1575.680324	55.361000
1577.583862	54.926000
1579.486978	55.426000
1581.387866	55.596000
1583.290142	53.758000
1585.190189	55.182000
1587.091625	54.530000
1588.989026	55.643000
1590.886010	54.079000
1592.782575	54.771000
1594.680527	55.049000
1596.572645	54.250000
1598.467957	56.279000
1600.362850	54.654000
1602.255522	53.348000
1604.147778	53.729000
1606.037814	54.920000
1607.927434	55.255000
1609.816639	54.149000
1611.705428	52.947000
1613.592001	55.077000
1615.479960	55.128000
1617.363904	53.674000
1619.249234	54.721000
1621.134150	54.338000
1623.016854	53.618000
1624.900943	53.948000
1626.781022	53.975000
1628.662487	53.494000
1630.541742	54.990000
1632.422383	53.623000
1634.297220	54.070000
1636.177039	54.610000
1638.052852	54.034000
1639.928256	54.710000
1641.805045	52.486000
1643.676037	53.614000
1645.550211	53.725000
1647.420387	54.258000
1649.293743	53.596000
1651.164896	52.936000
1653.033847	53.854000
1654.904184	53.190000
1656.770527	53.628000
1658.638256	54.237000
1660.503787	52.475000
1662.370702	53.912000
1664.233629	53.929000
1666.097941	51.979000
1667.960058	53.812000
1669.821769	52.550000
1671.684865	52.327000
1673.545767	52.800000
1675.404475	51.625000
1677.262780	52.216000
1679.122470	54.186000
1680.976393	53.772000
1682.833488	53.381000
1684.690181	53.380000
1686.542898	52.842000
1688.398786	54.076000
1690.250700	52.751000
1692.102212	53.073000
1693.953325	51.817000
1695.804036	52.264000
1697.654347	51.905000
1699.502474	52.771000
1701.351984	51.752000
1703.195746	52.974000
1705.044458	50.957000
1706.887423	53.348000
1708.733554	50.049000
1710.575724	52.049000
1712.421058	54.673000
1714.260652	50.616000
1716.101630	52.830000
1717.943991	51.831000
1719.782396	51.065000
1721.622184	52.671000
1723.459797	53.396000
1725.297014	53.170000
1727.132058	52.435000
1728.968485	51.885000
1730.802740	51.410000
1732.636601	51.119000
1734.470067	52.352000
1736.299587	51.441000
1738.132266	52.303000
1739.961001	51.726000
1741.792894	50.517000
1743.620844	50.605000
1745.448402	50.997000
1747.275569	50.778000
1749.102343	54.772000
1750.928727	51.490000
1752.751174	52.824000
1754.576775	52.687000
1756.398442	51.420000
1758.221491	54.124000
1760.042379	49.394000
1761.862877	51.307000
1763.684757	50.776000
1765.500937	50.575000
1767.320269	50.047000
1769.135674	52.067000
1770.954229	51.333000
1772.768860	53.482000
1774.583103	51.268000
1776.396960	51.659000
1778.210430	52.469000
1780.021746	49.218000
1781.834444	52.849000
1783.646755	52.032000
1785.455149	51.694000
1787.264924	52.015000
1789.070783	52.276000
1790.879789	50.691000
1792.684881	52.097000
1794.491353	52.895000
1796.297442	52.917000
1798.099621	52.312000
1799.904943	50.230000
1801.706357	51.411000
1803.509151	51.655000
1805.308040	51.931000
1807.108308	51.631000
1808.908196	51.639000
1810.705941	52.785000
1812.503306	51.163000
1814.300290	50.644000
1816.096894	51.388000
1817.891359	53.760000
1819.687204	51.058000
1821.477393	51.989000
1823.272479	52.461000
1825.061912	50.469000
1826.854483	52.448000
1828.644918	52.189000
1830.433218	51.523000
1832.224654	51.761000
1834.010444	52.373000
1835.797614	52.863000
1837.582652	51.407000
1839.370824	52.068000
1841.155110	51.790000
1842.937267	51.934000
1844.720802	50.201000
1846.502210	50.741000
1848.284995	53.834000
1850.063901	52.773000
1851.844185	52.690000
1853.622344	50.468000
1855.401880	52.479000
1857.179292	51.044000
1858.954580	51.456000
1860.731247	52.898000
1862.505791	52.547000
1864.281712	53.704000
1866.052014	50.377000
1867.825443	51.661000
1869.596752	51.176000
1871.367690	53.934000
1873.140005	51.998000
1874.906708	52.783000
1876.676535	52.722000
1878.442499	51.008000
1880.211587	51.427000
1881.976813	52.324000
1883.741671	51.477000
1885.507905	53.072000
1887.270281	51.768000
1889.032290	51.345000
1890.793932	51.859000
1892.555206	50.767000
1894.316114	51.882000
1896.076654	51.627000
1897.835085	54.114000
1899.593151	51.112000
1901.349109	51.547000
1903.106443	52.097000
1904.863411	51.157000
1906.618274	52.693000
1908.371031	52.148000
1910.123425	53.464000
1911.877194	49.957000
1913.628861	53.450000
1915.378424	52.574000
1917.129364	52.579000
1918.879940	52.822000
1920.626678	51.607000
1922.374791	51.811000
1924.120805	54.342000
1925.868195	49.998000
1927.613486	50.395000
1929.356680	54.313000
1931.101250	51.698000
1932.843723	51.601000
1934.585836	51.457000
1936.327590	54.189000
1938.068983	52.229000
1939.808283	53.600000
1941.547224	51.544000
1943.285806	51.921000
1945.022296	51.781000
1946.758429	51.547500
1948.495936	51.314000
1950.229622	54.106000
1951.964682	53.201000
1953.697653	53.132000
1955.430268	54.269000
1957.162526	54.268000
1958.894428	52.338000
1960.624244	52.544000
1962.351976	53.395000
1964.081081	53.295000
1965.809832	53.119000
1967.536499	52.685000
1969.262812	53.821000
1970.990498	52.926000
1972.712648	54.601000
1974.437900	54.119000
1976.159344	53.829000
1977.883888	53.793000
1979.606353	52.254000
1981.325014	54.828000
1983.046774	52.734000
1984.764732	54.883000
1986.484064	52.530000
1988.199595	55.211000
1989.919948	54.037000
1991.636501	53.508000
1993.349259	53.478000
1995.065112	54.775000
1996.778892	54.015000
1998.492323	53.871000
2000.203683	55.250000
2001.916416	56.619000
2003.625357	54.016000
2005.337392	54.640000
2007.043917	54.959000
2008.753535	55.467000
2010.461085	56.215000
2012.168288	53.942000
2013.873425	55.802000
2015.578215	54.032000
2017.284377	53.836000
2018.986757	55.061000
2020.690509	54.162000
2022.392198	52.965000
2024.093541	56.051000
2025.794539	55.439000
2027.493477	55.129000
2029.193786	56.072000
2030.890319	54.384000
2032.588224	54.804000
2034.284071	55.832000
2035.983003	55.249000
2037.676448	56.668000
2039.371266	53.950000
2041.065740	58.060000
2042.756446	54.580000
2044.450236	55.585000
2046.140259	54.017000
2047.831653	55.890000
2049.520994	57.209000
2051.211705	55.270000
2052.898654	54.931000
2054.585262	53.721000
2056.273241	54.465000
2057.957460	56.427000
2059.643049	54.463000
2061.328299	53.287000
2063.011501	52.885000
2064.696073	56.567000
2066.375181	54.771000
2068.059075	53.648000
2069.737509	55.375000
2071.419020	56.279000
2073.096779	54.291000
2074.774202	54.003000
2076.452994	54.270000
2078.129743	54.112000
2079.804451	55.424000
2081.480528	55.076000
2083.154565	55.259000
2084.828266	54.097000
2086.501632	55.420000
2088.172960	54.900000
2089.843953	53.457000
2091.514612	55.439000
2093.184937	53.665000
2094.854927	55.279000
2096.522882	53.812000
2098.190504	54.935000
2099.856092	55.454000
2101.523048	55.447000
2103.187971	54.976000
2104.852561	56.462000
2106.515120	54.964000
2108.179048	54.561000
2109.840944	55.293000
2111.502509	56.647000
2113.163744	54.963000
2114.822949	55.488000
2116.481825	55.351000
2118.140370	54.313000
2119.798586	55.723000
2121.453078	55.754000
2123.110636	55.422000
2124.767863	56.112000
2126.421370	57.278000
2128.076244	54.770000
2129.727399	57.377000
2131.381617	55.331000
2133.032117	55.787000
2134.683985	54.375000
2136.330444	55.569000
2137.981657	55.176000
2139.629157	55.975000
2141.278025	55.181000
2142.924873	56.995000
2144.571395	56.580000
2146.217592	56.583000
2147.860081	56.788000
2149.505628	56.778000
2151.147468	57.868000
2152.792365	56.364000
2154.433557	55.447000
2156.074425	55.459000
2157.714970	55.448000
2159.353502	55.743000
2160.993400	57.996000
2162.629598	55.772000
2164.267162	55.939000
2165.904404	58.567000
2167.539636	56.110000
2169.174546	56.933000
2170.809135	57.459000
2172.443403	56.300000
2174.073977	57.698000
2175.707602	56.946000
2177.337536	57.095000
2178.968835	56.849000
2180.598130	58.760000
2182.227104	57.410000
2183.855760	59.128000
2185.484096	57.560000
2187.110429	56.736000
2188.736444	57.352000
2190.360458	58.088000
2191.985837	57.131000
2193.609215	56.729000
2195.233958	58.472000
2196.855019	57.358000
2198.475765	55.638000
2200.097874	58.107000
2201.717986	56.827000
2203.336102	55.331000
2204.953902	55.020000
2206.571386	56.595000
2208.188555	57.084000
2209.805409	57.176000
2211.421948	58.625000
2213.036493	55.262000
2214.649046	59.699000
2216.262964	57.093000
2217.874889	57.809000
2219.488179	56.616000
2221.099477	59.244000
2222.708787	58.651000
2224.319459	57.506000
2225.928143	57.909000
2227.536515	58.007000
2229.142899	57.526000
2230.750647	59.088000
2232.356408	57.546000
2233.961858	58.801000
2235.565324	59.316000
2237.170152	58.745000
2238.772996	58.108000
2240.373857	59.115000
2241.976081	58.123000
2243.576322	59.421000
2245.177927	59.259000
2246.775878	59.670000
2248.375192	61.217000
2249.972526	59.779000
2251.569552	59.211000
2253.167939	59.119000
2254.762678	61.914000
2256.355441	59.649000
2257.949565	60.107000
2259.545051	60.338000
2261.136893	59.080000
2262.728428	58.656000
2264.321324	61.521000
2265.908911	60.329000
2267.501195	58.896000
2269.088171	60.803000
2270.678176	59.835000
2272.262876	61.289000
2273.852270	59.388000
2275.436361	60.597000
2277.021814	59.425000
2278.605298	60.657000
2280.191807	59.295000
2281.774683	61.827000
2283.357255	57.899000
2284.939525	59.412000
2286.518164	60.146000
2288.099827	60.386000
2289.677862	61.186000
2291.258921	60.972000
2292.836352	61.530000
2294.411820	62.088000
2295.990310	59.500000
2297.565175	59.915000
2299.139740	60.820000
2300.714005	61.361000
2302.287969	58.987000
2303.861633	61.290000
2305.434996	61.575000
2307.004741	59.649000
2308.574187	58.888000
2310.146652	60.190000
2311.713842	59.007000
2313.284049	60.813000
2314.850642	61.445000
2316.418595	61.982000
2317.984593	60.639000
2319.550293	62.661000
2321.115695	60.834000
2322.679144	62.085000
2324.243952	61.317000
2325.805151	61.752000
2327.369365	63.994000
2328.928318	60.546000
2330.490284	62.597000
2332.050300	62.540000
2333.610020	61.809000
2335.167791	64.851000
2336.725268	62.039000
2338.282449	63.986000
2339.837684	62.437000
2341.392624	64.038000
2342.947271	62.499000
2344.501624	62.237000
2346.055683	62.857000
2347.609449	63.607000
2349.161270	63.354000
2350.711148	62.181000
2352.264034	62.271000
2353.811678	62.856000
2355.362329	62.803000
2356.909390	63.730000
2358.457808	61.983000
2360.005934	61.514000
2361.550473	62.650000
2363.096369	63.639000
2364.640326	65.076000
2366.185641	63.758000
2367.727371	63.592000
2369.270459	64.510000
2370.811610	64.346000
2372.352472	65.049000
2373.893045	64.871000
2375.433329	63.297000
2376.973324	64.718000
2378.509740	63.520000
2380.049158	65.772000
2381.584999	65.442000
2383.122196	65.446000
2384.655819	65.602000
2386.192441	64.691000
2387.727132	64.120000
2389.259894	64.981000
2390.792370	66.061000
2392.322917	66.014000
2393.856462	65.563000
2395.384796	65.751000
2396.914486	66.766000
2398.443891	67.169000
2399.973011	65.280000
2401.501845	65.454000
2403.025475	67.446000
2404.553740	66.859000
2406.076802	66.275000
2407.604499	67.614000
2409.125355	66.527000
2410.650845	66.846000
2412.172774	69.711000
2413.696059	67.456000
2415.217423	67.686000
2416.736867	67.055000
2418.257666	67.036000
2419.776546	68.730000
2421.295144	67.270000
2422.811825	69.160000
2424.329861	68.788000
2425.847615	67.889000
2427.361817	67.782000
2428.875739	69.057000
2430.389382	71.032000
2431.904378	68.775000
2433.415826	69.199000
2434.928629	69.911000
2436.439519	69.847000
2437.950129	70.086000
2439.458828	70.393000
2440.970514	68.665000
2442.478656	71.826000
2443.986519	71.338000
2445.494105	69.675000
2446.998151	71.512000
2448.505181	71.546000
2450.010303	70.023000
2451.515148	69.528000
2453.018086	72.253000
2454.520747	72.357000
2456.023132	71.613000
2457.523612	73.262000
2459.025445	72.696000
2460.525374	72.918000
2462.025027	74.546000
2463.524405	73.691000
2465.021880	75.378000
2466.517453	75.034000
2468.016006	74.482000
2469.511030	72.922000
2471.007408	72.838000
2472.500259	72.788000
2473.994462	73.173000
2475.488392	72.714000
2476.978799	72.324000
2478.472183	73.848000
2479.963668	72.917000
2481.453257	74.046000
2482.942574	68.947000
2484.429996	71.734000
2485.920393	71.728000
2487.407271	73.474000
2488.895501	71.508000
2490.380215	71.503000
2491.864658	70.918000
2493.350453	72.731000
2494.834355	71.387000
2496.319609	71.559000
2497.799729	71.643000
2499.282821	71.424000
2500.764023	70.502000
2502.244956	69.460000
2503.724000	70.349000
2505.202776	72.446000
2506.681283	70.026000
2508.159521	71.790000
2509.637491	70.505000
2511.111957	69.517000
2512.589391	69.156000
2514.063322	69.638000
2515.538604	68.372000
2517.013618	67.831000
2518.485131	67.849000
2519.957995	69.725000
2521.428975	68.035000
2522.901306	68.307000
2524.368524	68.537000
2525.838708	67.903000
2527.307010	66.609000
2528.775048	67.235000
2530.242821	68.771000
2531.710329	66.593000
2533.177572	66.884000
2534.641324	67.831000
2536.106425	66.896000
2537.569649	68.380000
2539.034222	66.829000
2540.495306	67.367000
2541.957741	67.796000
2543.419912	67.815000
2544.878596	67.063000
2546.341853	65.969000
2547.800013	68.376000
2549.259522	66.863000
2550.713938	68.498000
2552.172924	67.793000
2553.630037	67.771000
2555.085280	68.408000
2556.540262	67.869000
2557.993374	66.702000
2559.447835	69.269000
2560.900427	67.934000
2562.352759	67.667000
2563.803223	66.016000
2565.256643	67.626000
2566.704981	69.080000
2568.156275	66.992000
2569.605702	67.892000
2571.051658	65.679000
2572.500568	67.285000
2573.946007	67.287000
2575.392795	67.682000
2576.837719	66.821000
2578.282386	67.465000
2579.728400	67.128000
2581.170947	67.106000
2582.614842	68.812000
2584.055272	68.717000
2585.497050	68.007000
2586.936968	67.336000
2588.378233	66.945000
2589.816036	66.309000
2591.256789	66.832000
2592.692479	67.853000
2594.131119	67.642000
2595.567902	68.599000
2597.002828	68.013000
2598.440703	66.547000
2599.873520	68.181000
2601.307684	67.038000
2602.739993	67.802000
2604.173649	68.581000
2605.605452	66.646000
2607.037002	68.367000
2608.468298	66.611000
2609.897743	69.472000
2611.326935	66.643000
2612.754276	67.317000
2614.182964	67.636000
2615.611399	68.937000
2617.036388	67.998000
2618.462722	69.286000
2619.887208	67.355000
2621.313040	67.844000
2622.735428	68.057000
2624.159162	67.988000
2625.581050	69.180000
2627.002687	70.463000
2628.422479	67.847000
2629.843617	67.885000
2631.264505	68.109000
2632.681955	67.093000
2634.102344	67.378000
2635.519296	68.664000
2636.936000	69.199000
2638.352455	68.325000
2639.768662	67.673000
2641.184620	67.426000
2642.598738	67.909000
2644.012609	69.070000
2645.424640	68.251000
2646.838016	67.694000
2648.247962	67.858000
2649.660844	67.866000
2651.070297	69.321000
2652.479504	67.876000
2653.886875	68.268000
2655.297180	67.831000
2656.705649	68.799000
2658.112283	68.502000
2659.518672	68.490000
2660.923227	69.119000
2662.329126	68.341000
2663.733192	70.446000
2665.137014	69.066000
2666.540591	69.051000
2667.942336	68.981000
2669.345425	71.387000
2670.745097	69.786000
2672.146112	69.885000
2673.543710	68.853000
2674.944239	67.521000
2676.341353	66.942000
2677.739810	67.919000
2679.136439	66.985000
2680.532827	65.929000
2681.928972	67.512000
2683.323291	66.292000
2684.718953	66.215000
2686.111205	65.580000
2687.504801	65.284000
2688.896572	67.232000
2690.289685	66.446000
2691.680975	66.272000
2693.070442	64.670000
2694.459670	64.156000
2695.848657	65.272000
2697.238987	66.686000
2698.624332	65.712000
2700.012602	64.915000
2701.399050	65.996000
2702.785261	66.650000
2704.171232	66.037000
2705.553805	65.971000
2706.937719	66.164000
2708.321396	66.384000
2709.704835	66.323000
2711.084878	65.941000
2712.466263	65.704000
2713.845832	65.769000
2715.226743	67.459000
2716.605839	67.454000
2717.983120	65.763000
2719.361743	67.065000
2720.738553	67.947000
2722.115127	67.038000
2723.491465	66.835000
2724.865991	68.624000
2726.241858	66.711000
2727.614338	66.066000
2728.989735	66.655000
2730.360170	66.535000
2731.731947	66.569000
2733.103490	66.368000
2734.473224	67.627000
2735.844298	67.253000
2737.213565	69.205000
2738.582598	67.703000
2739.949824	68.825000
2741.316818	68.867000
2742.683579	68.141000
2744.050107	68.962000
2745.414830	67.395000
2746.779322	69.638000
2748.143581	67.911000
2749.507609	68.854000
2750.871404	68.340000
2752.231826	69.839000
2753.595159	68.405000
2754.953549	67.663000
2756.314849	67.390000
2757.672778	69.483000
2759.033617	69.802000
2760.392655	67.326000
2761.748325	68.942000
2763.106903	68.517000
2764.462115	69.647000
2765.817097	68.676000
2767.170282	67.314000
2768.526374	69.134000
2769.879102	68.033000
2771.231601	68.064000
2772.583872	66.363000
2773.937482	68.997000
2775.287730	68.049000
2776.636185	69.615000
2777.987544	69.452000
2779.335544	70.781000
2780.684883	69.437000
2782.032429	69.192000
2783.379748	70.700000
2784.726841	68.643000
2786.072143	68.114000
2787.417219	70.638000
2788.762069	69.148000
2790.106693	69.144000
2791.447964	69.932000
2792.790574	68.701000
2794.132959	70.182000
2795.475118	71.020000
2796.813928	68.724000
2798.155638	70.051000
2799.493999	70.624000
2800.833698	71.088000
2802.171611	71.674000
2803.507740	71.032000
2804.843646	70.866000
2806.180888	70.550000
2807.516347	71.136000
2808.851583	70.932000
2810.185037	70.001000
2811.519827	72.528000
2812.851276	70.474000
2814.185621	70.802000
2815.515068	71.737000
2816.845852	73.210000
2818.176414	71.100000
2819.505197	71.170000
2820.835317	69.643000
2822.163657	69.527000
2823.491777	71.907000
2824.818120	71.830000
2826.145798	70.916000
2827.470144	73.343000
2828.795825	70.091000
2830.119732	71.680000
2831.443418	70.632000
2832.768440	70.904000
2834.090133	69.841000
2835.411606	71.502000
2836.732861	71.323000
2838.053897	70.866000
2839.373161	71.534000
2840.693760	72.672000
2842.012587	70.773000
2843.331196	71.461000
2844.648035	71.838000
2845.964656	70.362000
2847.281059	71.763000
2848.595694	71.121000
2849.911663	71.174000
2851.224312	71.753000
2852.538297	68.820000
2853.852065	70.793000
2855.165616	70.204000
2856.477400	72.872000
2857.787419	70.302000
2859.098772	70.656000
2860.406809	72.842000
2861.716182	72.777000
2863.025339	72.744000
2864.334281	72.494000
2865.641460	74.032000
2866.946875	71.691000
2868.253625	72.431000
2869.558612	73.269000
2870.863386	72.220000
2872.166398	72.927000
2873.472292	72.725000
2874.773331	73.967000
2876.075703	72.431000
2877.376316	72.819000
2878.678263	72.589000
2879.979997	72.836000
2881.278427	73.004000
2882.578190	72.743000
2883.876196	72.220000
2885.173990	72.576000
2886.470027	73.408000
2887.767398	71.990000
2889.063013	71.637000
2890.358418	72.539000
2891.653611	72.513000
2892.945506	73.620000
2894.240278	72.834000
2895.531754	72.553000
2896.824562	71.712000
2898.117160	72.699000
2899.406463	73.606000
2900.697099	73.876000
2901.985985	73.265000
2903.276202	71.423000
2904.563128	72.799000
2905.851386	72.750000
2907.137895	73.673000
2908.424195	72.585000
2909.710287	72.924000
2910.994631	74.812000
2912.281847	73.631000
2913.564236	73.528000
2914.847957	72.924000
2916.129931	71.582000
2917.411699	72.744000
2918.691721	73.621000
2919.974613	73.154000
2921.255760	73.583000
2922.533625	73.444000
2923.814359	74.858000
2925.091812	72.485000
2926.369060	73.063000
2927.644565	73.508000
2928.922938	74.122000
2930.196496	72.601000
2931.472922	71.725000
2932.747607	74.058000
2934.020552	72.453000
2935.294827	72.607000
2936.567363	73.326000
2937.839695	72.925000
2939.108754	72.917000
2940.380678	75.857000
2941.650863	73.560000
2942.920846	71.949000
2944.190625	74.399000
2945.458667	73.729000
2946.724974	70.889000
2947.991078	72.833000
2949.258513	73.931000
2950.524212	74.118000
2951.789709	74.666000
2953.055004	73.429000
2954.317035	72.135000
2955.580395	73.213000
2956.843554	72.347000
2958.104980	73.381000
2959.367736	71.745000
2960.628761	72.863000
2961.888055	73.688000
2963.147148	73.585000
2964.406041	73.950000
2965.664734	72.651000
2966.923227	73.026000
2968.179991	73.238000
2969.436555	74.401000
2970.691392	74.913000
2971.947558	75.510000
2973.200468	74.418000
2974.454708	75.562000
2975.708749	74.205000
2976.961064	74.352000
2978.213181	74.888000
2979.463573	73.491000
2980.716820	73.013000
2981.965290	77.293000
2983.216614	76.498000
2984.464690	74.976000
2985.712568	75.277000
2986.960249	74.866000
2988.207734	74.799000
2989.453497	75.153000
2990.699063	75.127000
2991.945958	75.343000
2993.189607	72.446000
2994.434585	75.861000
2995.676320	75.341000
2996.920906	75.044000
2998.163773	73.398000
2999.403398	75.876000
3000.645875	75.722000
3001.885111	75.207000
3003.125675	74.266000
3004.364522	75.390000
3005.603175	76.597000
3006.840112	76.514000
3008.078376	76.654000
3009.314926	77.685000
3010.551282	75.420000
3011.787444	75.839000
3013.021892	74.889000
3014.256147	75.804000
3015.490209	77.448000
3016.722559	76.140000
3017.953197	75.532000
3019.186681	77.160000
3020.418454	76.408000
3021.648515	76.956000
3022.878385	76.161000
3024.106545	76.090000
3025.336032	77.018000
3026.563809	76.851000
3027.791395	77.519000
3029.020307	76.589000
3030.244477	76.377000
3031.471490	79.182000
3032.695280	75.857000
3033.920395	75.646000
3035.143804	76.209000
3036.367024	74.892000
3037.588538	76.263000
3038.812893	78.521000
3040.032513	75.149000
3041.253459	76.252000
3042.474215	76.686000
3043.693268	77.261000
3044.913647	78.247000
3046.130809	79.360000
3047.349296	78.177000
3048.566082	79.174000
3049.782679	79.822000
3050.999089	78.286000
3052.212285	79.055000
3053.428319	79.130000
3054.641141	78.520000
3055.856800	78.397000
3057.067736	78.291000
3058.279998	77.359000
3059.492072	76.655000
3060.703960	77.403000
3061.914150	76.882000
3063.124155	77.583000
3064.333973	78.760000
3065.542095	78.988000
3066.750031	78.724000
3067.956273	78.291000
3069.163839	78.850000
3070.369710	79.151000
3071.575396	79.452000
3072.780897	78.960000
3073.984706	79.871000
3075.189838	79.533000
3076.393277	81.681000
3077.595024	77.967000
3078.796588	79.268000
3079.997968	78.876000
3081.199164	79.131000
3082.398670	80.182000
3083.597992	78.664000
3084.798638	81.617000
3085.997595	80.613000
3087.193356	80.294000
3088.391947	79.798000
3089.587344	79.534000
3090.784065	79.640000
3091.977593	80.036000
3093.173949	79.664000
3094.368618	79.949000
3095.560097	78.779000
3096.755907	80.268000
3097.947024	79.182000
3099.139464	79.568000
3100.328715	79.890000
3101.520793	78.845000
3102.711187	77.904000
3103.898394	79.210000
3105.086925	81.258000
3106.276778	80.371000
3107.463446	79.493000
3108.649935	80.180000
3109.836244	79.979000
3111.023876	78.910000
3112.208325	80.140000
3113.391094	78.650000
3114.576687	80.040000
3115.760599	79.733000
3116.942833	79.433000
3118.124889	78.974000
3119.306766	79.201000
3120.488465	79.291000
3121.668487	80.182000
3122.846831	79.404000
3124.027997	81.738000
3125.205987	81.809000
3126.383800	80.591000
3127.561436	81.089000
3128.737397	80.925000
3129.913182	80.448000
3131.090287	82.474000
3132.265719	78.783000
3133.439477	81.252000
3134.611562	79.610000
3135.784968	79.541000
3136.958199	80.319000
3138.129757	80.805000
3139.302637	80.477000
3140.472349	80.287000
3141.643382	81.601000
3142.812744	81.086000
3143.980437	81.118000
3145.150945	81.395000
3146.316794	81.036000
3147.486953	80.407000
3148.652454	79.141000
3149.817782	81.682000
3150.982936	82.515000
3152.147917	80.420000
3153.314217	81.573000
3154.475864	81.997000
3155.638832	79.439000
3156.801626	79.836000
3157.964248	79.304000
3159.125205	79.191000
3160.285989	79.196000
3161.446601	80.485000
3162.605550	78.199000
3163.764326	78.658000
3164.922931	80.692000
3166.081364	77.261000
3167.239625	80.826000
3168.396224	78.712000
3169.551162	79.591000
3170.707419	79.817000
3171.862016	78.962000
3173.016441	78.570000
3174.169207	79.868000
3175.321803	79.133000
3176.474229	80.190000
3177.626484	79.130000
3178.778570	81.057000
3179.927509	79.105000
3181.079255	82.835000
3182.229344	79.258000
3183.377775	80.567000
3184.526038	79.585000
3185.674132	81.064000
3186.822056	79.668000
3187.968326	81.612000
3189.114427	82.391000
3190.258874	82.989000
3191.403152	83.221000
3192.547263	82.814000
3193.692692	82.725000
3194.834982	82.022000
3195.977104	79.968000
3197.119060	79.992000
3198.260848	80.906000
3199.402469	81.835000
3200.540954	81.526000
3201.680758	81.746000
3202.821878	82.105000
3203.959864	81.046000
3205.096201	81.784000
3206.232372	82.763000
3207.369861	82.832000
3208.505701	81.412000
3209.642857	81.839000
3210.775401	83.038000
3211.912227	81.858000
3213.044441	84.823000
3214.177973	81.758000
3215.311339	82.675000
3216.441578	80.958000
3217.574615	82.399000
3218.704526	81.251000
3219.835754	81.899000
3220.963856	80.949000
3222.094756	83.933000
3223.224011	82.817000
3224.351622	79.099000
3225.476112	80.753000
3226.604877	81.558000
3227.730520	80.657000
3228.856000	82.430000
3229.979839	81.439000
3231.106473	81.978000
3232.228508	81.697000
3233.351860	81.442000
3234.475050	81.587000
3235.598078	81.184000
3236.719466	82.519000
3237.840693	80.806000
3238.960281	82.413000
3240.079708	80.877000
3241.197497	83.188000
3242.318079	82.567000
3243.435547	81.351000
3244.552854	82.123000
3245.670000	84.267000
3246.785511	83.138000
3247.902337	83.589000
3249.016052	85.420000
3250.132558	86.765000
3251.247428	84.289000
3252.359190	84.767000
3253.470793	85.523000
3254.583711	84.026000
3255.696469	84.837000
3256.806121	84.416000
3257.917088	84.197000
3259.027896	83.660000
3260.137072	85.129000
3261.244617	85.188000
3262.353477	84.197000
3263.462178	84.592000
3264.567777	86.070000
3265.674691	86.377000
3266.779975	84.882000
3267.886573	85.365000
3268.990071	85.543000
3270.094883	84.653000
3271.199538	87.167000
3272.301095	85.793000
3273.402495	85.853000
3274.505209	87.544000
3275.607766	85.938000
3276.707228	87.300000
3277.809472	86.722000
3278.908622	87.710000
3280.006146	86.470000
3281.103515	88.014000
3282.203667	87.035000
3283.300725	87.998000
3284.397629	87.451000
3285.494377	85.942000
3286.586566	84.873000
3287.683005	86.830000
3288.777821	86.598000
3289.872482	87.183000
3290.965522	86.974000
3292.058408	88.320000
3293.149673	87.588000
3294.242251	88.052000
3295.333209	87.662000
3296.422547	85.029000
3297.511732	88.186000
3298.602229	85.492000
3299.689642	88.607000
3300.776903	86.340000
3301.865476	86.194000
3302.953896	86.905000
3304.037769	87.990000
3305.125884	87.447000
3306.210918	87.323000
3307.294336	87.831000
3308.379066	89.189000
3309.462180	87.948000
3310.546606	89.333000
3311.627954	86.858000
3312.710614	87.976000
3313.791660	86.195000
3314.872555	87.588000
3315.951837	87.547000
3317.030968	89.019000
3318.111410	88.447000
3319.188779	89.354000
3320.267459	87.522000
3321.344527	88.256000
3322.421445	88.977000
3323.496753	87.932000
3324.571911	88.305000
3325.648380	89.222000
3326.721778	89.365000
3327.795028	88.668000
3328.869589	88.376000
3329.942540	89.964000
3331.013884	88.980000
3332.086538	88.918000
3333.156125	89.952000
3334.227023	89.994000
3335.296314	90.084000
3336.366916	89.620000
3337.435911	89.653000
3338.503300	90.000000
3339.569084	88.126000
3340.639094	88.924000
3341.706041	87.888000
3342.769926	88.245000
3343.836579	89.024000
3344.901628	88.443000
3345.965073	89.528000
3347.028371	87.794000
3348.091524	87.492000
3349.154530	89.113000
3350.217389	89.660000
3351.278647	89.521000
3352.336848	89.599000
3353.399270	89.935000
3354.458635	88.261000
3355.517856	89.302000
3356.578385	87.621000
3357.634405	91.234000
3358.693190	89.435000
3359.747467	88.726000
3360.804508	88.850000
3361.859950	91.006000
3362.916701	90.347000
3363.971855	89.975000
3365.025411	90.485000
3366.077370	90.033000
3367.132091	90.837000
3368.183764	91.059000
3369.235292	90.134000
3370.288130	90.118000
3371.337920	91.032000
3372.389019	90.061000
3373.437071	91.689000
3374.487884	90.251000
3375.535651	90.863000
3376.583276	89.889000
3377.630759	92.071000
3378.676648	92.089000
3379.723847	90.633000
3380.768002	91.455000
3381.814916	92.084000
3382.860238	93.719000
3383.902520	92.935000
3384.944660	92.875000
3385.988109	93.416000
3387.031416	92.999000
3388.073133	90.896000
3389.114709	92.710000
3390.156145	90.323000
3391.195992	92.166000
3392.234250	91.204000
3393.273816	91.641000
3394.313242	93.234000
3395.351080	92.105000
3396.387331	91.962000
3397.423442	91.453000
3398.460861	91.905000
3399.495247	92.886000
3400.530941	92.575000
3401.566495	93.328000
3402.599017	93.679000
3403.634293	92.282000
3404.666538	91.192000
3405.698645	92.088000
3406.729168	92.653000
3407.760999	93.199000
3408.792691	93.922000
3409.821355	92.760000
3410.849881	93.300000
3411.879715	94.312000
3412.909410	93.131000
3413.936080	93.888000
3414.964057	93.275000
3415.989009	94.088000
3417.016711	95.307000
3418.041390	93.395000
3419.067375	93.672000
3420.091781	94.601000
3421.116049	93.109000
3422.138739	93.910000
3423.161293	93.589000
3424.185153	94.743000
3425.205993	92.500000
3426.226698	94.035000
3427.248708	92.363000
3428.267700	92.387000
3429.286557	94.322000
3430.306719	92.463000
3431.323865	94.355000
