-116.707459	36.000000
-114.037859	-0.333333
-111.371194	19.000000
-108.705281	5.666667
-106.042300	22.666667
-103.377890	13.000000
-100.716410	0.333333
-98.053501	21.666667
-95.395698	-7.333333
-92.736466	-23.000000
-90.077982	3.333333
-87.422422	-33.000000
-84.765434	24.666667
-82.113544	-32.000000
-79.460224	8.000000
-76.809823	6.333333
-74.157993	42.666667
-71.511254	35.333333
-68.863086	1.333333
-66.215660	-1.000000
-63.571148	10.000000
-60.925208	-14.666667
-58.284349	41.000000
-55.642061	7.333333
-53.002682	-23.333333
-50.361873	27.666667
-47.721805	17.000000
-45.086809	-18.000000
-42.450385	8.666667
-39.816863	21.666667
-37.181913	28.333333
-34.552028	24.666667
-31.918551	58.333333
-29.290136	41.666667
-26.662455	53.000000
-24.033345	52.666667
-21.409292	95.666667
-18.781650	52.333333
-16.159061	56.666667
-13.537204	120.000000
-10.916077	235.000000
-8.295680	540.333333
-5.678172	1953.333333
-3.059235	5576.666667
-0.443183	13858.666667
2.172140	26099.333333
4.786736	12588.000000
7.398449	1624.000000
10.011591	215.000000
12.619699	74.000000
15.231389	93.666667
17.838048	71.333333
20.446135	61.666667
23.053498	38.666667
25.655836	60.000000
28.261752	8.000000
30.862646	35.666667
33.464968	-20.333333
36.062273	22.666667
38.663153	22.666667
41.259018	46.666667
43.856312	-17.666667
46.452886	1.333333
49.044451	10.333333
51.637444	38.000000
54.227576	18.333333
56.819136	5.000000
59.407836	-24.000000
61.997963	5.333333
64.583091	27.333333
67.169647	1.666667
69.755489	5.333333
72.338477	27.666667
74.922891	24.333333
77.500177	31.666667
80.081029	29.000000
82.659032	30.000000
85.236325	-10.333333
87.815044	16.333333
90.388781	5.666667
92.963946	30.666667
95.536267	-7.666667
98.107880	10.333333
100.676653	-4.333333
103.246853	31.333333
105.814215	3.000000
108.383002	18.333333
110.948953	-0.333333
113.512069	34.000000
116.078741	-4.000000
118.636192	25.000000
121.199328	5.000000
123.757504	31.000000
126.319235	41.333333
128.876009	45.666667
131.434210	79.333333
133.987457	91.666667
136.540007	162.000000
139.096107	250.333333
141.647259	258.666667
144.197714	327.333333
146.747471	355.000000
149.294409	483.000000
151.840652	404.000000
154.388320	463.333333
156.935292	441.666667
159.477329	458.333333
162.018672	446.666667
164.559322	464.666667
167.101398	407.000000
169.640662	463.666667
172.177118	424.333333
174.712882	431.333333
177.250072	395.000000
179.786571	378.333333
182.320264	384.333333
184.851153	412.000000
187.381355	369.000000
189.912981	429.666667
192.441806	377.666667
194.967832	441.666667
197.493172	425.000000
200.019937	394.000000
202.543906	390.666667
205.067190	403.666667
207.589789	407.333333
210.109595	403.000000
212.628718	438.000000
215.147158	409.000000
217.667022	407.333333
220.179885	437.000000
222.696279	439.333333
225.211991	486.333333
227.722813	462.333333
230.235060	465.000000
232.744525	482.000000
235.253311	505.333333
237.761418	478.333333
240.270950	474.333333
242.775601	492.666667
245.279576	475.333333
247.784975	475.000000
250.285499	496.666667
252.789547	494.000000
255.286623	531.666667
257.787223	477.000000
260.285051	504.000000
262.782206	497.333333
265.278688	506.333333
267.770307	507.000000
270.265446	508.333333
272.757818	519.000000
275.249520	504.333333
277.738459	525.000000
280.228822	492.333333
282.716422	550.000000
285.201263	534.333333
287.689619	523.000000
290.171035	531.666667
292.655965	543.333333
295.136050	557.000000
297.619647	579.333333
300.098401	654.333333
302.578579	635.333333
305.056004	690.666667
307.532766	660.000000
310.008865	617.333333
312.482215	605.000000
314.954903	586.000000
317.426930	594.333333
319.898296	675.333333
322.366917	658.333333
324.834880	654.333333
327.304264	603.333333
329.768826	570.666667
332.236892	552.666667
334.700138	541.333333
337.162726	530.333333
339.624658	546.000000
342.085933	537.333333
344.544474	579.000000
347.004437	509.000000
349.461667	520.666667
351.918243	487.000000
354.374165	517.666667
356.827357	507.666667
359.281972	488.666667
361.731785	478.333333
364.185094	500.000000
366.633605	542.333333
369.081464	530.000000
371.530746	457.666667
373.975234	505.000000
376.421144	457.666667
378.866404	524.000000
381.308946	488.000000
383.750840	495.000000
386.192087	429.000000
388.630618	498.666667
391.070571	471.666667
393.507810	482.666667
395.942337	474.666667
398.380352	488.000000
400.813590	483.000000
403.248249	505.333333
405.678136	456.666667
408.111508	456.666667
410.540110	485.000000
412.968070	503.666667
415.397452	503.333333
417.822068	511.666667
420.248106	499.666667
422.673503	489.000000
425.098260	519.000000
427.518259	481.333333
429.939679	495.000000
432.358402	501.000000
434.778546	482.333333
437.195995	487.333333
439.614864	475.000000
442.031040	513.333333
444.442468	450.666667
446.857374	472.333333
449.269589	464.666667
451.681170	437.000000
454.092117	421.000000
456.500378	426.666667
458.908006	404.000000
461.315002	430.333333
463.721367	391.666667
466.125049	447.666667
468.528101	464.666667
470.930523	462.000000
473.332315	448.666667
475.731430	460.333333
478.131964	436.000000
480.531869	457.666667
482.927051	494.000000
485.325700	498.666667
487.719629	506.333333
490.112932	507.666667
492.505609	526.666667
494.897661	574.333333
497.291131	593.333333
499.679889	654.666667
502.065981	756.000000
504.453493	873.000000
506.840382	1048.000000
509.224607	1401.333333
511.610250	2050.333333
513.993232	3480.000000
516.373553	6447.000000
518.755293	12220.333333
521.134374	17862.333333
523.514874	17277.666667
525.892716	11144.333333
528.267903	5429.666667
530.642472	2971.333333
533.018459	1932.333333
535.391794	1471.000000
537.766546	1208.000000
540.136613	988.000000
542.506064	878.333333
544.876933	722.000000
547.243122	722.000000
549.610729	627.666667
551.975690	562.000000
554.340038	539.000000
556.703773	463.666667
559.068926	472.666667
561.429407	438.000000
563.791306	422.000000
566.150564	396.000000
568.507185	383.666667
570.867250	422.666667
573.220624	401.666667
575.577443	400.666667
577.931627	367.333333
580.285202	387.333333
582.638170	345.666667
584.988505	348.000000
587.340258	341.333333
589.685334	358.000000
592.035874	370.333333
594.379740	342.000000
596.729068	334.666667
599.073747	360.666667
601.415802	360.666667
603.759274	310.000000
606.100123	315.000000
608.440370	321.333333
610.777996	336.000000
613.119057	380.333333
615.455480	323.000000
617.793320	354.000000
620.128543	357.666667
622.461150	322.000000
624.795173	332.333333
627.126582	323.666667
629.457393	342.666667
631.787607	341.000000
634.117222	290.333333
636.442214	308.666667
638.772648	264.666667
641.098461	327.000000
643.421666	304.333333
645.746288	320.000000
648.068304	298.666667
650.389726	313.666667
652.708546	262.666667
655.028781	292.000000
657.348423	286.333333
659.665464	302.666667
661.981913	283.333333
664.295764	324.000000
666.611031	253.666667
668.923701	304.000000
671.237786	314.000000
673.547271	282.333333
675.858172	319.666667
678.166480	289.333333
680.474200	305.333333
682.783334	292.000000
685.087876	292.000000
687.391832	279.333333
689.695202	261.666667
691.999986	268.666667
694.300184	212.333333
696.601796	272.666667
698.902823	211.666667
701.199269	251.333333
703.497130	230.666667
705.794407	241.333333
708.091101	192.000000
710.383219	264.000000
712.678748	229.333333
714.969703	263.666667
717.262073	230.333333
719.551868	240.666667
721.841082	202.000000
724.129717	239.333333
726.415779	238.333333
728.703256	222.666667
730.988161	236.333333
733.272489	256.333333
735.554248	224.000000
737.837421	232.666667
740.120017	225.666667
742.398057	240.666667
744.677512	229.000000
746.956390	220.333333
749.234694	243.666667
751.508448	252.333333
753.783615	245.333333
756.058209	213.666667
758.330244	276.666667
760.603692	215.333333
762.874582	219.333333
765.142916	244.333333
767.412663	247.666667
769.679856	219.333333
771.946478	255.000000
774.212530	265.000000
776.476031	262.333333
778.740945	279.333333
781.005289	271.666667
783.265104	288.666667
785.526331	237.333333
787.786991	279.666667
790.045105	221.333333
792.300674	284.000000
794.559634	217.000000
796.812095	272.000000
799.069922	249.666667
801.323231	266.666667
803.574000	236.333333
805.826181	253.333333
808.075823	263.666667
810.326878	272.666667
812.573421	230.333333
814.821376	281.000000
817.066797	256.333333
819.313629	287.333333
821.559900	248.666667
823.801666	237.333333
826.046816	261.000000
828.285493	290.333333
830.527552	248.666667
832.765113	243.000000
835.004086	253.333333
837.240532	261.333333
839.478389	202.666667
841.713721	234.666667
843.946530	237.333333
846.180750	286.666667
848.412447	229.000000
850.643590	270.333333
852.874178	203.666667
855.104212	265.666667
857.333692	255.666667
859.558690	239.666667
861.787063	211.666667
864.010956	286.666667
866.236261	263.666667
868.457090	267.666667
870.681291	233.000000
872.901019	237.666667
875.122157	236.333333
877.342745	300.333333
879.560824	228.000000
881.780312	251.333333
883.995334	251.666667
886.209808	258.666667
888.423735	238.333333
890.637115	262.666667
892.849947	234.666667
895.062233	262.000000
897.272016	275.000000
899.481254	242.333333
901.689947	241.666667
903.896141	255.333333
906.103744	266.000000
908.308849	263.333333
910.513411	264.000000
912.715478	254.333333
914.918954	246.666667
917.119936	263.333333
919.320376	264.333333
921.522225	302.000000
923.717683	254.666667
925.916500	294.000000
928.110878	335.666667
930.308614	355.666667
932.501914	420.666667
934.696623	504.000000
936.888846	580.333333
939.080530	609.666667
941.271677	662.000000
943.460341	707.666667
945.648469	691.666667
947.834116	701.000000
950.023115	664.333333
952.207691	703.666667
954.391732	673.000000
956.579123	643.000000
958.758210	685.333333
960.940648	695.666667
963.122552	648.666667
965.301981	724.000000
967.478938	723.333333
969.657303	732.666667
971.837075	708.000000
974.010498	743.000000
976.187267	695.666667
978.359629	698.333333
980.533399	714.666667
982.702765	741.000000
984.875475	682.666667
987.045720	688.333333
989.215436	625.333333
991.384623	576.000000
993.549413	494.666667
995.717544	505.000000
997.881281	446.000000
1000.046424	441.333333
1002.209108	410.000000
1004.371267	413.333333
1006.530969	376.333333
1008.690146	404.666667
1010.850730	376.333333
1013.008859	331.333333
1015.166465	365.666667
1017.323547	394.666667
1019.480105	317.333333
1021.632284	354.333333
1023.785870	316.333333
1025.938934	309.666667
1028.089549	311.666667
1030.241571	312.666667
1032.389219	317.666667
1034.540199	311.000000
1036.686808	307.000000
1038.832898	312.000000
1040.978470	248.333333
1043.125447	294.333333
1045.266135	246.666667
1047.410153	291.333333
1049.551730	267.000000
1051.692791	268.666667
1053.835256	272.333333
1055.971442	266.666667
1058.110953	266.333333
1060.246110	251.000000
1062.384591	295.666667
1064.518718	257.000000
1066.652332	266.000000
1068.787351	285.333333
1070.918020	257.000000
1073.050094	267.666667
1075.179739	252.666667
1077.308872	285.666667
1079.437493	252.000000
1081.565603	271.333333
1083.691287	275.666667
1085.816461	275.666667
1087.943039	226.666667
1090.065279	242.000000
1092.188924	227.333333
1094.308234	272.333333
1096.432774	275.333333
1098.551068	280.000000
1100.670767	230.333333
1102.788047	243.666667
1104.904821	214.333333
1107.021088	243.333333
1109.134939	240.333333
1111.250195	242.000000
1113.361127	201.666667
1115.475372	285.000000
1117.585296	251.333333
1119.696624	215.000000
1121.807447	227.333333
1123.913954	249.333333
1126.023771	198.333333
1128.129273	212.000000
1130.236178	180.000000
1132.336868	229.666667
1134.442770	201.333333
1136.544363	231.000000
1138.647359	207.000000
1140.749854	218.333333
1142.846142	231.333333
1144.947637	220.000000
1147.044830	224.000000
1149.141525	264.333333
1151.237721	213.000000
1153.333420	211.000000
1155.428620	220.666667
1157.521424	195.000000
1159.615631	220.333333
1161.703646	238.000000
1163.796859	224.000000
1165.883884	210.000000
1167.974208	205.666667
1170.060244	193.333333
1172.149579	179.333333
1174.232732	225.333333
1176.317287	202.666667
1178.403244	229.333333
1180.484919	206.666667
1182.567996	216.333333
1184.648687	217.333333
1186.728886	231.000000
1188.808594	209.000000
1190.887811	221.666667
1192.964646	184.333333
1195.039100	207.000000
1197.116845	227.000000
1199.190321	209.000000
1201.265197	184.333333
1203.335806	213.333333
1205.407816	186.666667
1207.477451	212.666667
1209.548486	213.000000
1211.619033	203.000000
1213.685319	173.666667
1215.753006	210.000000
1217.818321	206.666667
1219.885036	210.333333
1221.947495	177.333333
1224.013239	184.000000
1226.074729	164.666667
1228.137620	188.333333
1230.198143	142.000000
1232.258182	203.666667
1234.317739	178.000000
1236.374930	223.666667
1238.431640	148.000000
1240.485986	193.333333
1242.543614	178.000000
1244.598879	198.666667
1246.649903	182.666667
1248.702327	190.333333
1250.754271	197.000000
1252.803857	193.666667
1254.852964	178.333333
1256.901593	191.666667
1258.949743	170.333333
1260.997414	187.000000
1263.040855	191.000000
1265.087572	192.000000
1267.131935	184.666667
1269.175822	184.666667
1271.217357	179.666667
1273.256543	191.666667
1275.299002	146.000000
1277.337238	200.333333
1279.376873	184.333333
1281.416033	197.666667
1283.450974	180.333333
1285.487314	202.666667
1287.521310	174.333333
1289.556703	195.333333
1291.587884	184.000000
1293.620462	199.666667
1295.652569	178.333333
1297.682335	188.333333
1299.713498	170.000000
1301.740455	188.000000
1303.768809	192.666667
1305.792958	187.333333
1307.820373	144.000000
1309.843585	167.666667
1311.868195	132.333333
1313.890471	203.666667
1315.914144	189.000000
1317.935484	193.000000
1319.956356	167.333333
1321.976761	191.333333
1323.992973	162.666667
1326.010582	235.000000
1328.025863	130.666667
1330.044403	189.000000
1332.058754	180.000000
1334.070779	151.000000
1336.086061	181.333333
1338.097158	191.333333
1340.109652	178.333333
1342.117963	187.666667
1344.129529	170.333333
1346.135057	196.333333
1348.143840	148.333333
1350.148445	168.000000
1352.156304	173.333333
1354.163701	214.333333
1356.165067	159.666667
1358.167829	176.333333
1360.170132	177.333333
1362.171975	177.333333
1364.173358	179.000000
1366.172428	125.666667
1368.171039	155.666667
1370.169192	172.333333
1372.166886	145.333333
1374.160418	199.000000
1376.155345	183.666667
1378.149816	203.000000
1380.143830	195.000000
1382.135537	178.666667
1384.126789	170.666667
1386.115735	191.000000
1388.106076	201.000000
1390.095962	187.333333
1392.083544	166.000000
1394.070673	211.000000
1396.055500	164.333333
1398.041722	214.000000
1400.025644	155.666667
1402.009113	161.666667
1403.992129	163.000000
1405.972848	208.333333
1407.954961	199.333333
1409.934778	165.000000
1411.914143	133.000000
1413.889370	181.333333
1415.867835	153.000000
1417.844007	210.000000
1419.819730	180.666667
1421.795003	179.000000
1423.767985	176.000000
1425.740519	196.333333
1427.712605	161.666667
1429.684244	194.666667
1431.651754	195.666667
1433.624338	166.000000
1435.589116	176.333333
1437.558967	205.333333
1439.524694	181.000000
1441.491813	182.000000
1443.456649	168.666667
1445.417365	174.000000
1447.383149	179.666667
1449.342978	193.333333
1451.304201	191.666667
1453.266816	174.000000
1455.225316	164.666667
1457.183373	182.000000
1459.140989	199.333333
1461.098162	181.666667
1463.053060	171.333333
1465.009351	183.333333
1466.963367	156.000000
1468.916942	202.333333
1470.868245	172.666667
1472.820941	192.000000
1474.771364	152.000000
1476.721349	189.000000
1478.670895	141.666667
1480.618172	175.666667
1482.563181	146.333333
1484.509583	168.333333
1486.455547	178.666667
1488.401074	185.666667
1490.344335	195.000000
1492.287161	201.333333
1494.227723	170.333333
1496.169676	179.000000
1498.109367	161.333333
1500.048624	197.000000
1501.987445	156.666667
1503.924007	159.000000
1505.861960	157.333333
1507.797654	185.333333
1509.732915	175.000000
1511.665920	172.333333
1513.598492	172.000000
1515.530632	196.000000
1517.462340	149.000000
1519.391794	192.333333
1521.322639	174.333333
1523.253052	175.000000
1525.179393	150.000000
1527.107125	180.666667
1529.032606	181.000000
1530.957658	192.666667
1532.882281	164.666667
1534.806475	204.000000
1536.728421	159.333333
1538.651758	174.666667
1540.572848	181.333333
1542.491694	174.666667
1544.411930	176.333333
1546.329923	152.333333
1548.247489	194.333333
1550.162813	184.000000
1552.079527	171.333333
1553.992186	198.333333
1555.908049	198.000000
1557.821672	167.666667
1559.733057	174.666667
1561.645832	201.666667
1563.554557	177.666667
1565.464671	204.000000
1567.374362	154.333333
1569.283630	176.333333
1571.190664	158.000000
1573.095465	191.333333
1575.001655	171.333333
1576.905613	183.666667
1578.809150	172.666667
1580.712267	198.000000
1582.613154	174.000000
1584.515430	194.666667
1586.415478	194.333333
1588.316913	185.666667
1590.214315	151.666667
1592.111298	176.333333
1594.007863	172.333333
1595.905816	160.666667
1597.797934	168.666667
1599.693245	177.666667
1601.588139	140.333333
1603.480811	181.000000
1605.373066	182.000000
1607.263102	156.000000
1609.152722	138.000000
1611.041927	182.666667
1612.930717	157.333333
1614.817289	181.666667
1616.705249	180.333333
1618.589192	217.666667
1620.474522	192.666667
1622.359439	156.000000
1624.242142	199.000000
1626.126232	199.333333
1628.006310	144.333333
1629.887776	205.000000
1631.767031	184.333333
1633.647672	168.000000
1635.522509	180.666667
1637.402327	201.666667
1639.278141	173.666667
1641.153544	181.333333
1643.030333	152.333333
1644.901326	169.666667
1646.775500	169.000000
1648.645675	185.666667
1650.519032	143.000000
1652.390184	200.666667
1654.259136	175.333333
1656.129472	131.000000
1657.995816	173.000000
1659.863545	185.666667
1661.729075	139.666667
1663.595991	162.333333
1665.458918	153.333333
1667.323230	184.000000
1669.185346	188.333333
1671.047057	182.000000
1672.910154	175.666667
1674.771055	190.333333
1676.629764	185.000000
1678.488069	164.000000
1680.347759	179.000000
1682.201681	181.333333
1684.058777	171.333333
1685.915470	182.000000
1687.768186	171.666667
1689.624074	218.666667
1691.475988	146.666667
1693.327501	163.666667
1695.178613	147.666667
1697.029325	166.666667
1698.879635	176.333333
1700.727762	191.000000
1702.577273	177.333333
1704.421035	180.666667
1706.269746	181.000000
1708.112711	165.666667
1709.958843	180.666667
1711.801012	177.333333
1713.646347	199.666667
1715.485941	184.666667
1717.326919	147.000000
1719.169280	179.666667
1721.007685	128.000000
1722.847473	165.000000
1724.685086	197.333333
1726.522303	152.333333
1728.357347	181.000000
1730.193774	192.666667
1732.028029	157.333333
1733.861889	193.333333
1735.695355	168.333333
1737.524876	170.000000
1739.357555	162.666667
1741.186290	198.000000
1743.018182	152.000000
1744.846132	200.333333
1746.673691	163.333333
1748.500857	177.666667
1750.327632	140.666667
1752.154015	205.666667
1753.976462	144.666667
1755.802064	169.333333
1757.623731	200.333333
1759.446780	140.000000
1761.267667	148.000000
1763.088166	171.333333
1764.910045	147.000000
1766.726226	172.333333
1768.545558	171.333333
1770.360963	155.333333
1772.179518	155.666667
1773.994148	190.333333
1775.808391	147.000000
1777.622248	149.333333
1779.435718	154.666667
1781.247035	172.333333
1783.059732	184.000000
1784.872044	171.000000
1786.680438	157.333333
1788.490212	184.333333
1790.296072	186.333333
1792.105077	191.666667
1793.910169	131.000000
1795.716642	188.666667
1797.522731	172.000000
1799.324909	184.666667
1801.130232	168.666667
1802.931646	155.666667
1804.734440	173.666667
1806.533328	156.333333
1808.333597	186.000000
1810.133484	182.333333
1811.931229	162.666667
1813.728594	200.333333
1815.525579	160.333333
1817.322183	189.000000
1819.116648	143.000000
1820.912492	168.666667
1822.702681	156.666667
1824.497767	174.333333
1826.287201	176.333333
1828.079771	150.333333
1829.870206	164.666667
1831.658507	179.666667
1833.449943	166.000000
1835.235733	173.666667
1837.022903	145.000000
1838.807941	144.333333
1840.596113	131.333333
1842.380399	169.666667
1844.162555	175.666667
1845.946091	167.000000
1847.727498	166.333333
1849.510284	151.333333
1851.289189	138.333333
1853.069474	199.666667
1854.847632	160.000000
1856.627169	188.333333
1858.404581	174.000000
1860.179869	163.000000
1861.956535	154.333333
1863.731079	169.333333
1865.507001	140.333333
1867.277302	160.333333
1869.050731	181.000000
1870.822040	176.000000
1872.592978	169.000000
1874.365294	179.000000
1876.131996	150.000000
1877.901824	185.000000
1879.667788	137.666667
1881.436875	174.000000
1883.202101	178.000000
1884.966959	174.333333
1886.733194	164.666667
1888.495570	179.000000
1890.257579	166.000000
1892.019220	156.666667
1893.780495	128.666667
1895.541402	169.333333
1897.301943	154.333333
1899.060374	145.666667
1900.818439	128.000000
1902.574397	179.333333
1904.331731	156.666667
1906.088700	192.666667
1907.843562	127.666667
1909.596320	196.333333
1911.348713	160.000000
1913.102483	206.000000
1914.854149	154.666667
1916.603713	172.666667
1918.354652	130.666667
1920.105229	160.666667
1921.851966	128.333333
1923.600080	153.333333
1925.346094	139.333333
1927.093483	181.000000
1928.838775	163.000000
1930.581969	178.000000
1932.326538	187.000000
1934.069012	176.666667
1935.811125	138.333333
1937.552878	165.000000
1939.294271	177.333333
1941.033571	175.666667
1942.772512	133.666667
1944.511094	164.000000
1946.247585	159.000000
1947.983718	160.166667
1949.721225	161.333333
1951.454910	149.000000
1953.189970	158.333333
1954.922941	171.333333
1956.655556	136.000000
1958.387815	137.333333
1960.119717	173.666667
1961.849533	172.666667
1963.577264	151.333333
1965.306370	170.666667
1967.035121	160.333333
1968.761788	186.000000
1970.488101	156.000000
1972.215787	201.000000
1973.937937	164.333333
1975.663188	144.666667
1977.384632	200.666667
1979.109177	170.666667
1980.831641	142.000000
1982.550303	175.333333
1984.272063	166.666667
1985.990021	162.000000
1987.709352	183.333333
1989.424884	146.000000
1991.145236	156.666667
1992.861790	181.333333
1994.574547	151.000000
1996.290400	191.666667
1998.004181	162.333333
1999.717612	210.000000
2001.428972	144.000000
2003.141704	219.000000
2004.850646	171.000000
2006.562680	172.000000
2008.269206	146.000000
2009.978823	157.333333
2011.686374	164.333333
2013.393576	156.666667
2015.098713	148.333333
2016.803504	166.333333
2018.509666	151.333333
2020.212046	170.666667
2021.915797	147.333333
2023.617486	194.000000
2025.318830	150.000000
2027.019828	146.666667
2028.718765	126.000000
2030.419074	153.333333
2032.115608	145.000000
2033.813513	189.000000
2035.509359	169.666667
2037.208291	187.666667
2038.901737	158.333333
2040.596554	176.666667
2042.291029	162.333333
2043.981735	174.000000
2045.675525	147.000000
2047.365548	213.000000
2049.056942	125.666667
2050.746283	144.000000
2052.436994	151.000000
2054.123942	142.666667
2055.810551	162.000000
2057.498529	152.333333
2059.182748	153.000000
2060.868338	131.333333
2062.553588	160.666667
2064.236789	160.666667
2065.921361	170.666667
2067.600470	140.666667
2069.284364	144.333333
2070.962797	149.000000
2072.644308	169.666667
2074.322067	164.666667
2075.999490	148.000000
2077.678282	186.333333
2079.355032	140.666667
2081.029740	167.666667
2082.705817	157.000000
2084.379853	140.666667
2086.053555	163.666667
2087.726921	165.666667
2089.398248	148.000000
2091.069241	132.333333
2092.739900	144.666667
2094.410225	160.000000
2096.080216	155.666667
2097.748171	152.666667
2099.415793	128.333333
2101.081380	145.000000
2102.748336	151.333333
2104.413259	146.666667
2106.077850	157.000000
2107.740409	170.333333
2109.404336	178.333333
2111.066232	150.333333
2112.727798	149.000000
2114.389032	124.000000
2116.048238	142.666667
2117.707113	164.333333
2119.365659	160.000000
2121.023874	160.000000
2122.678367	156.666667
2124.335924	162.000000
2125.993152	176.000000
2127.646658	205.333333
2129.301532	177.666667
2130.952687	182.666667
2132.606905	140.666667
2134.257406	152.666667
2135.909273	141.666667
2137.555732	174.666667
2139.206946	184.666667
2140.854446	166.333333
2142.503313	176.000000
2144.150161	146.333333
2145.796684	152.333333
2147.442881	178.000000
2149.085370	148.000000
2150.730917	162.333333
2152.372757	161.666667
2154.017654	143.333333
2155.658845	150.000000
2157.299714	168.000000
2158.940258	174.333333
2160.578790	189.333333
2162.218688	163.333333
2163.854886	185.333333
2165.492450	169.666667
2167.129692	161.333333
2168.764924	150.666667
2170.399835	139.666667
2172.034423	148.333333
2173.668691	148.000000
2175.299265	182.666667
2176.932891	162.000000
2178.562825	176.000000
2180.194124	127.666667
2181.823418	147.333333
2183.452393	152.000000
2185.081048	161.000000
2186.709384	166.000000
2188.335718	169.000000
2189.961733	139.333333
2191.585746	141.666667
2193.211125	150.333333
2194.834503	157.666667
2196.459246	146.000000
2198.080308	148.666667
2199.701053	207.000000
2201.323163	133.000000
2202.943275	186.000000
2204.561390	151.333333
2206.179190	170.666667
2207.796675	140.333333
2209.413844	140.000000
2211.030698	159.666667
2212.647236	159.666667
2214.261782	168.000000
2215.874335	161.000000
2217.488252	166.000000
2219.100178	164.666667
2220.713467	146.666667
2222.324766	183.333333
2223.934075	161.000000
2225.544748	171.000000
2227.153432	159.000000
2228.761803	137.333333
2230.368188	152.333333
2231.975936	155.666667
2233.581697	137.666667
2235.187147	168.000000
2236.790612	147.666667
2238.395440	156.666667
2239.998284	157.000000
2241.599145	189.666667
2243.201369	177.666667
2244.801611	158.666667
2246.403215	139.000000
2248.001166	148.666667
2249.600480	129.333333
2251.197814	174.000000
2252.794840	157.000000
2254.393228	156.000000
2255.987967	137.666667
2257.580729	155.333333
2259.174854	126.333333
2260.770340	159.000000
2262.362181	148.333333
2263.953716	161.000000
2265.546613	158.000000
2267.134200	160.666667
2268.726483	165.666667
2270.313460	173.666667
2271.903464	128.666667
2273.488164	170.333333
2275.077558	139.000000
2276.661650	166.000000
2278.247102	126.333333
2279.830586	207.000000
2281.417095	140.666667
2282.999971	135.666667
2284.582544	130.000000
2286.164813	157.000000
2287.743452	152.333333
2289.325116	145.333333
2290.903151	174.333333
2292.484209	131.000000
2294.061640	153.500000
2295.637108	176.000000
2297.215598	155.666667
2298.790464	164.000000
2300.365029	147.000000
2301.939294	167.666667
2303.513258	163.333333
2305.086921	158.333333
2306.660285	152.000000
2308.230030	162.000000
2309.799476	156.000000
2311.371940	135.333333
2312.939130	166.000000
2314.509338	144.666667
2316.075931	98.666667
2317.643884	136.666667
2319.209881	137.666667
2320.775581	169.666667
2322.340983	139.333333
2323.904432	168.666667
2325.469240	132.666667
2327.030440	193.333333
2328.594654	141.000000
2330.153606	158.333333
2331.715573	202.666667
2333.275588	163.666667
2334.835309	140.333333
2336.393080	158.666667
2337.950556	171.333333
2339.507738	133.333333
2341.062972	127.000000
2342.617913	128.666667
2344.172559	126.333333
2345.726912	152.666667
2347.280972	138.666667
2348.834737	152.666667
2350.386558	188.666667
2351.936437	133.333333
2353.489323	123.666667
2355.036966	163.666667
2356.587618	156.000000
2358.134678	142.333333
2359.683096	145.000000
2361.231223	204.000000
2362.775761	146.333333
2364.321657	157.666667
2365.865615	152.666667
2367.410930	152.666667
2368.952660	142.666667
2370.495747	116.000000
2372.036898	157.666667
2373.577760	157.000000
2375.118333	169.000000
2376.658617	174.666667
2378.198612	145.000000
2379.735029	151.000000
2381.274447	146.000000
2382.810287	162.333333
2384.347485	152.000000
2385.881107	125.333333
2387.417729	143.666667
2388.952421	131.666667
2390.485183	120.000000
2392.017658	170.000000
2393.548205	154.000000
2395.081750	122.666667
2396.610084	122.000000
2398.139774	131.333333
2399.669179	150.666667
2401.198299	145.000000
2402.727134	148.333333
2404.250763	129.333333
2405.779028	117.000000
2407.302091	155.000000
2408.829787	129.666667
2410.350644	154.333333
2411.876134	138.666667
2413.398063	123.333333
2414.921348	144.000000
2416.442711	150.000000
2417.962155	167.000000
2419.482954	137.333333
2421.001835	149.333333
2422.520433	157.666667
2424.037114	130.000000
2425.555149	139.666667
2427.072903	115.666667
2428.587106	153.333333
2430.101028	124.000000
2431.614670	190.666667
2433.129667	101.333333
2434.641115	127.000000
2436.153918	134.333333
2437.664807	144.666667
2439.175418	132.000000
2440.684117	132.000000
2442.195802	155.000000
2443.703944	170.000000
2445.211808	119.000000
2446.719394	143.000000
2448.223439	124.333333
2449.730469	132.666667
2451.235591	159.666667
2452.740436	176.000000
2454.243374	128.666667
2455.746036	180.000000
2457.248421	84.000000
2458.748901	142.333333
2460.250734	130.000000
2461.750662	161.333333
2463.250315	123.000000
2464.749693	133.666667
2466.247168	129.333333
2467.742741	128.333333
2469.241294	119.666667
2470.736319	119.333333
2472.232696	125.666667
2473.725547	169.000000
2475.219751	102.333333
2476.713681	148.666667
2478.204087	168.333333
2479.697471	118.000000
2481.188957	146.333333
2482.678546	121.000000
2484.167863	112.666667
2485.655284	169.000000
2487.145681	143.333333
2488.632560	129.666667
2490.120790	151.333333
2491.605503	146.333333
2493.089947	149.333333
2494.575741	164.000000
2496.059644	129.333333
2497.544897	179.666667
2499.025017	148.000000
2500.508110	153.333333
2501.989312	84.666667
2503.470245	165.333333
2504.949289	168.000000
2506.428064	146.000000
2507.906571	147.666667
2509.384810	125.666667
2510.862780	113.333333
2512.337245	150.333333
2513.814680	145.666667
2515.288611	158.666667
2516.763892	105.333333
2518.238906	170.666667
2519.710419	144.333333
2521.183283	161.666667
2522.654264	149.000000
2524.126595	137.000000
2525.593812	148.333333
2527.063996	147.333333
2528.532299	135.666667
2530.000337	116.333333
2531.468110	128.666667
2532.935618	162.666667
2534.402861	121.666667
2535.866612	130.000000
2537.331713	140.000000
2538.794937	141.333333
2540.259510	131.000000
2541.720595	131.000000
2543.183029	152.666667
2544.645200	162.000000
2546.103885	123.333333
2547.567141	145.333333
2549.025302	145.666667
2550.484811	155.000000
2551.939226	110.333333
2553.398212	145.000000
2554.855326	125.666667
2556.310569	161.333333
2557.765550	129.333333
2559.218663	131.000000
2560.673124	108.666667
2562.125715	151.333333
2563.578047	150.000000
2565.028512	153.000000
2566.481932	143.333333
2567.930270	122.000000
2569.381563	116.666667
2570.830991	145.000000
2572.276946	115.666667
2573.725856	119.666667
2575.171296	126.000000
2576.618083	153.666667
2578.063008	119.666667
2579.507674	159.333333
2580.953688	111.666667
2582.396236	115.666667
2583.840131	149.666667
2585.280561	159.333333
2586.722338	156.000000
2588.162256	143.666667
2589.603521	131.000000
2591.041324	142.666667
2592.482077	114.666667
2593.917768	185.333333
2595.356408	136.333333
2596.793190	114.333333
2598.228117	127.333333
2599.665991	138.000000
2601.098808	161.666667
2602.532972	114.333333
2603.965282	159.000000
2605.398938	157.666667
2606.830741	134.333333
2608.262290	134.666667
2609.693587	146.666667
2611.123031	142.000000
2612.552223	114.000000
2613.979565	141.333333
2615.408252	119.666667
2616.836688	137.000000
2618.261676	131.666667
2619.688011	129.333333
2621.112497	96.333333
2622.538329	158.000000
2623.960717	111.000000
2625.384451	125.666667
2626.806338	134.333333
2628.227976	128.333333
2629.647768	124.000000
2631.068906	127.666667
2632.489794	114.000000
2633.907244	123.666667
2635.327633	135.000000
2636.744585	156.000000
2638.161288	103.333333
2639.577743	123.666667
2640.993950	141.000000
2642.409909	126.333333
2643.824027	111.333333
2645.237897	123.333333
2646.649929	127.000000
2648.063304	144.333333
2649.473250	109.000000
2650.886132	128.333333
2652.295585	111.333333
2653.704792	147.000000
2655.112163	113.666667
2656.522468	135.333333
2657.930938	131.000000
2659.337572	132.000000
2660.743961	129.000000
2662.148516	153.333333
2663.554415	96.333333
2664.958481	139.000000
2666.362302	136.666667
2667.765879	157.333333
2669.167625	143.666667
2670.570714	138.666667
2671.970385	135.000000
2673.371400	137.666667
2674.768999	124.333333
2676.169527	129.666667
2677.566641	117.333333
2678.965098	154.333333
2680.361728	127.666667
2681.758115	128.000000
2683.154260	119.000000
2684.548579	168.000000
2685.944241	120.666667
2687.336494	120.000000
2688.730089	134.666667
2690.121860	94.333333
2691.514974	132.333333
2692.906264	139.000000
2694.295731	99.000000
2695.684958	138.000000
2697.073946	141.333333
2698.464275	139.000000
2699.849621	98.666667
2701.237890	100.000000
2702.624339	95.666667
2704.010549	127.333333
2705.396520	122.333333
2706.779093	122.000000
2708.163008	137.666667
2709.546685	122.000000
2710.930123	144.000000
2712.310167	140.000000
2713.691551	112.000000
2715.071121	159.000000
2716.452031	148.000000
2717.831127	131.666667
2719.208409	148.666667
2720.587032	107.666667
2721.963842	91.000000
2723.340415	106.333333
2724.716753	122.666667
2726.091280	131.000000
2727.467147	131.000000
2728.839627	112.666667
2730.215023	114.000000
2731.585459	145.333333
2732.957236	122.000000
2734.328778	131.333333
2735.698512	141.000000
2737.069587	151.666667
2738.438853	131.000000
2739.807886	126.333333
2741.175113	98.666667
2742.542106	111.000000
2743.908867	121.333333
2745.275396	171.000000
2746.640119	102.000000
2748.004610	179.666667
2749.368870	126.333333
2750.732897	133.666667
2752.096693	118.000000
2753.457115	143.000000
2754.820447	128.333333
2756.178837	126.000000
2757.540137	89.333333
2758.898067	110.666667
2760.258905	99.666667
2761.617944	147.000000
2762.973614	138.666667
2764.332192	150.000000
2765.687403	143.000000
2767.042385	163.000000
2768.395571	103.000000
2769.751662	137.333333
2771.104390	103.000000
2772.456890	116.000000
2773.809161	93.000000
2775.162770	135.666667
2776.513019	152.333333
2777.861473	84.333333
2779.212833	109.333333
2780.560833	145.000000
2781.910171	121.666667
2783.257717	88.666667
2784.605037	88.666667
2785.952130	123.333333
2787.297432	85.000000
2788.642507	119.000000
2789.987357	123.666667
2791.331981	115.666667
2792.673253	101.333333
2794.015863	121.666667
2795.358247	114.000000
2796.700406	117.666667
2798.039216	114.333333
2799.380926	92.333333
2800.719288	90.666667
2802.058986	143.666667
2803.396900	97.666667
2804.733029	154.000000
2806.068934	109.000000
2807.406177	125.333333
2808.741636	138.333333
2810.076872	101.333333
2811.410325	127.333333
2812.745115	118.666667
2814.076565	131.666667
2815.410910	135.000000
2816.740357	87.000000
2818.071141	103.666667
2819.401703	115.666667
2820.730486	156.666667
2822.060605	115.000000
2823.388946	118.666667
2824.717066	121.000000
2826.043408	110.333333
2827.371087	101.333333
2828.695432	119.666667
2830.021114	103.000000
2831.345020	131.333333
2832.668707	126.666667
2833.993729	137.333333
2835.315421	112.666667
2836.636895	97.000000
2837.958150	131.666667
2839.279186	111.666667
2840.598449	120.000000
2841.919048	113.666667
2843.237876	67.666667
2844.556485	117.000000
2845.873323	103.666667
2847.189944	88.000000
2848.506348	109.333333
2849.820982	129.000000
2851.136952	94.666667
2852.449601	103.666667
2853.763585	125.666667
2855.077353	103.333333
2856.390904	83.333333
2857.702689	136.666667
2859.012707	126.000000
2860.324060	119.333333
2861.632098	113.666667
2862.941470	93.000000
2864.250628	94.666667
2865.559570	113.666667
2866.866748	101.666667
2868.172164	115.000000
2869.478913	87.666667
2870.783901	91.333333
2872.088675	108.666667
2873.391687	125.666667
2874.697580	118.000000
2875.998619	109.666667
2877.300992	101.666667
2878.601605	120.666667
2879.903552	123.333333
2881.205285	97.000000
2882.503715	128.000000
2883.803478	92.000000
2885.101484	83.000000
2886.399278	114.333333
2887.695316	102.666667
2888.992687	126.666667
2890.288302	107.666667
2891.583706	96.333333
2892.878899	103.333333
2894.170795	117.333333
2895.465567	82.666667
2896.757042	95.000000
2898.049850	85.333333
2899.342448	107.666667
2900.631752	90.333333
2901.922388	112.000000
2903.211273	98.666667
2904.501490	113.666667
2905.788416	86.666667
2907.076674	138.000000
2908.363183	97.666667
2909.649483	77.333333
2910.935576	96.666667
2912.219920	146.666667
2913.507135	104.666667
2914.789524	94.333333
2916.073245	96.000000
2917.355220	127.000000
2918.636987	90.000000
2919.917010	109.666667
2921.199902	120.666667
2922.481049	99.000000
2923.758914	88.333333
2925.039648	137.666667
2926.317101	133.333333
2927.594348	117.000000
2928.869853	86.666667
2930.148226	116.666667
2931.421785	95.666667
2932.698211	135.333333
2933.972896	78.666667
2935.245840	128.666667
2936.520116	90.666667
2937.792652	113.333333
2939.064983	108.000000
2940.334042	111.000000
2941.605966	114.666667
2942.876152	93.666667
2944.146134	86.000000
2945.415913	113.000000
2946.683956	87.000000
2947.950262	106.333333
2949.216367	100.333333
2950.483801	153.000000
2951.749501	86.000000
2953.014998	146.333333
2954.280293	119.000000
2955.542323	129.333333
2956.805683	75.000000
2958.068842	88.666667
2959.330269	66.666667
2960.593025	107.333333
2961.854049	108.666667
2963.113343	138.333333
2964.372437	93.333333
2965.631330	124.666667
2966.890023	85.333333
2968.148516	125.000000
2969.405280	92.666667
2970.661844	132.333333
2971.916681	94.333333
2973.172846	131.000000
2974.425757	80.666667
2975.679997	125.000000
2976.934037	83.333333
2978.186353	126.000000
2979.438469	91.000000
2980.688861	117.333333
2981.942108	82.000000
2983.190578	102.000000
2984.441903	104.000000
2985.689978	131.000000
2986.937857	112.666667
2988.185538	93.000000
2989.433022	83.333333
2990.678785	139.000000
2991.924352	131.333333
2993.171246	98.000000
2994.414896	97.666667
2995.659874	127.666667
2996.901608	106.000000
2998.146194	112.333333
2999.389061	102.666667
3000.628687	102.333333
3001.871163	79.666667
3003.110399	162.666667
3004.350963	91.666667
3005.589810	108.666667
3006.828463	94.000000
3008.065400	118.000000
3009.303665	106.666667
3010.540214	104.333333
3011.776570	81.333333
3013.012732	89.000000
3014.247180	100.666667
3015.481436	131.000000
3016.715498	91.000000
3017.947848	112.333333
3019.178486	82.333333
3020.411970	76.000000
3021.643742	98.000000
3022.873804	126.333333
3024.103673	124.000000
3025.331833	86.666667
3026.561320	88.333333
3027.789097	131.000000
3029.016683	112.666667
3030.245596	120.666667
3031.469766	102.666667
3032.696779	111.666667
3033.920568	79.333333
3035.145684	108.333333
3036.369093	88.666667
3037.592312	97.666667
3038.813826	75.333333
3040.038181	103.666667
3041.257801	129.000000
3042.478747	123.000000
3043.699504	104.000000
3044.918557	91.666667
3046.138935	60.000000
3047.356097	111.000000
3048.574585	80.333333
3049.791370	124.000000
3051.007968	109.333333
3052.224377	82.666667
3053.437574	120.000000
3054.653608	111.000000
3055.866430	66.000000
3057.082089	109.000000
3058.293025	64.333333
3059.505286	91.000000
3060.717361	95.333333
3061.929248	83.666667
3063.139439	84.333333
3064.349443	124.333333
3065.559261	72.333333
3066.767383	98.333333
3067.975320	129.333333
3069.181561	111.666667
3070.389127	69.666667
3071.594998	62.333333
3072.800685	55.000000
3074.006186	80.333333
3075.209994	82.666667
3076.415126	103.333333
3077.618565	87.666667
3078.820313	123.666667
3080.021876	118.000000
3081.223256	91.666667
3082.424452	94.000000
3083.623958	93.666667
3084.823281	92.666667
3086.023927	113.000000
3087.222883	71.000000
3088.418645	88.666667
3089.617236	99.333333
3090.812633	105.666667
3092.009353	102.000000
3093.202881	100.666667
3094.399237	80.333333
3095.593907	114.000000
3096.785385	98.000000
3097.981196	76.666667
3099.172312	94.000000
3100.364752	118.666667
3101.554004	117.333333
3102.746081	95.666667
3103.936475	71.333333
3105.123683	86.333333
3106.312213	118.000000
3107.502066	134.000000
3108.688735	73.666667
3109.875223	93.000000
3111.061533	89.000000
3112.249164	101.666667
3113.433613	83.333333
3114.616383	90.000000
3115.801975	96.333333
3116.985888	83.333333
3118.168122	104.666667
3119.350177	84.666667
3120.532054	87.333333
3121.713753	76.666667
3122.893775	92.666667
3124.072120	71.666667
3125.253285	86.000000
3126.431275	98.666667
3127.609089	76.000000
3128.786725	81.666667
3129.962686	84.000000
3131.138470	85.000000
3132.315576	79.666667
3133.491007	89.333333
3134.664765	97.333333
3135.836850	90.333333
3137.010257	80.333333
3138.183487	82.000000
3139.355046	85.000000
3140.527925	121.666667
3141.697637	65.333333
3142.868670	84.000000
3144.038033	60.666667
3145.205725	93.666667
3146.376233	81.333333
3147.542083	102.666667
3148.712241	78.666667
3149.877743	89.000000
3151.043070	111.333333
3152.208224	136.000000
3153.373205	91.666667
3154.539505	76.333333
3155.701153	118.666667
3156.864120	109.666667
3158.026915	82.000000
3159.189537	119.333333
3160.350494	68.333333
3161.511278	90.000000
3162.671890	79.000000
3163.830838	85.333333
3164.989615	67.333333
3166.148220	115.333333
3167.306652	86.666667
3168.464914	79.000000
3169.621513	95.666667
3170.776451	103.000000
3171.932708	77.333333
3173.087304	107.333333
3174.241730	83.000000
3175.394496	85.000000
3176.547091	76.000000
3177.699517	106.000000
3178.851773	50.000000
3180.003858	99.000000
3181.152798	78.000000
3182.304544	83.333333
3183.454632	99.666667
3184.603064	90.000000
3185.751326	93.333333
3186.899420	84.666667
3188.047345	75.000000
3189.193614	81.000000
3190.339715	91.333333
3191.484162	67.000000
3192.628441	75.333333
3193.772552	120.333333
3194.917980	73.666667
3196.060270	119.666667
3197.202393	99.666667
3198.344348	92.333333
3199.486136	94.000000
3200.627757	115.666667
3201.766243	58.666667
3202.906046	90.333333
3204.047167	84.333333
3205.185153	95.000000
3206.321490	32.666667
3207.457661	70.666667
3208.595149	56.666667
3209.730989	106.666667
3210.868146	47.333333
3212.000690	89.666667
3213.137516	103.000000
3214.269730	81.000000
3215.403261	63.333333
3216.536628	95.333333
3217.666867	87.666667
3218.799904	85.000000
3219.929815	88.000000
3221.061042	91.000000
3222.189145	53.333333
3223.320044	60.666667
3224.449299	113.666667
3225.576911	96.000000
3226.701400	91.666667
3227.830165	68.333333
3228.955808	92.666667
3230.081289	65.000000
3231.205128	85.000000
3232.331761	79.000000
3233.453797	77.000000
3234.577149	75.333333
3235.700339	61.333333
3236.823366	93.000000
3237.944755	56.333333
3239.065981	91.666667
3240.185570	81.000000
3241.304997	65.666667
3242.422786	61.333333
3243.543367	108.333333
3244.660835	101.333333
3245.778142	97.333333
3246.895289	57.000000
3248.010800	80.666667
3249.127625	99.333333
3250.241341	122.000000
3251.357846	89.666667
3252.472717	107.333333
3253.584479	80.000000
3254.696081	144.000000
3255.808999	74.000000
3256.921757	96.333333
3258.031409	70.000000
3259.142376	65.666667
3260.253184	86.333333
3261.362360	70.000000
3262.469906	67.666667
3263.578765	84.333333
3264.687467	63.333333
3265.793066	76.666667
3266.899979	69.000000
3268.005263	66.000000
3269.111861	91.666667
3270.215359	94.000000
3271.320172	69.333333
3272.424827	144.000000
3273.526383	86.000000
3274.627783	80.333333
3275.730497	52.333333
3276.833055	72.666667
3277.932516	52.000000
3279.034761	59.666667
3280.133910	80.666667
3281.231435	99.666667
3282.328804	74.000000
3283.428955	97.666667
3284.526014	54.000000
3285.622917	91.333333
3286.719665	50.666667
3287.811855	78.666667
3288.908293	55.333333
3290.003109	93.666667
3291.097771	96.000000
3292.190811	98.000000
3293.283696	83.000000
3294.374962	105.000000
3295.467539	69.333333
3296.558497	67.000000
3297.647835	75.333333
3298.737020	93.666667
3299.827518	89.000000
3300.914931	112.000000
3302.002191	74.333333
3303.090764	90.000000
3304.179185	49.333333
3305.263058	73.000000
3306.351173	74.333333
3307.436206	78.333333
3308.519624	70.333333
3309.604354	96.666667
3310.687468	68.333333
3311.771895	95.333333
3312.853243	83.333333
3313.935903	84.333333
3315.016949	68.000000
3316.097844	76.666667
3317.177125	69.333333
3318.256256	78.333333
3319.336699	61.333333
3320.414067	73.333333
3321.492747	77.000000
3322.569815	103.000000
3323.646734	58.666667
3324.722041	53.333333
3325.797199	95.333333
3326.873668	80.333333
3327.947067	78.666667
3329.020317	82.000000
3330.094877	63.666667
3331.167829	85.000000
3332.239172	76.000000
3333.311826	105.000000
3334.381414	65.333333
3335.452312	83.000000
3336.521603	83.333333
3337.592205	94.000000
3338.661200	27.333333
3339.728589	91.333333
3340.794373	57.666667
3341.864383	101.666667
3342.931330	64.666667
3343.995215	61.333333
3345.061868	40.666667
3346.126916	71.000000
3347.190361	75.333333
3348.253660	89.666667
3349.316812	90.333333
3350.379818	55.666667
3351.442678	56.000000
3352.503936	52.666667
3353.562137	68.000000
3354.624558	81.000000
3355.683924	74.666667
3356.743144	84.666667
3357.803673	63.000000
3358.859694	95.666667
3359.918478	95.666667
3360.972755	137.333333
3362.029796	67.000000
3363.085238	77.333333
3364.141990	41.000000
3365.197143	95.000000
3366.250699	49.333333
3367.302659	59.000000
3368.357380	63.000000
3369.409052	85.666667
3370.460581	68.000000
3371.513418	75.666667
3372.563208	50.000000
3373.614307	69.000000
3374.662360	70.333333
3375.713172	96.333333
3376.760940	95.000000
3377.808565	79.000000
3378.856047	69.333333
3379.901937	72.000000
3380.949135	85.333333
3381.993291	48.333333
3383.040205	49.000000
3384.085527	93.000000
3385.127808	68.666667
3386.169949	58.333333
3387.213397	57.000000
3388.256704	76.000000
3389.298422	44.666667
3390.339998	84.666667
3391.381433	36.000000
3392.421280	91.666667
3393.459538	65.000000
3394.499104	41.333333
3395.538530	29.666667
3396.576368	91.000000
3397.612619	78.000000
3398.648731	79.666667
3399.686150	75.333333
3400.720536	74.666667
3401.756229	74.333333
3402.791783	83.000000
3403.824306	63.000000
3404.859582	47.666667
3405.891827	23.666667
3406.923934	65.666667
3407.954457	80.333333
3408.986287	72.666667
3410.017979	54.000000
3411.046643	67.333333
3412.075170	35.666667
3413.105003	89.666667
3414.134699	41.333333
3415.161369	111.000000
3416.189346	44.333333
3417.214298	63.333333
3418.242000	62.000000
3419.266679	79.333333
3420.292664	104.666667
3421.317069	78.000000
3422.341338	78.333333
3423.364028	78.666667
3424.386582	76.000000
3425.410442	95.666667
3426.431282	59.000000
3427.451986	64.666667
3428.473997	68.000000
3429.492989	82.666667
3430.511845	51.333333
3431.532008	87.666667
3432.549154	70.333333
