-118.146553	50.067582
-115.476953	52.919780
-112.810288	54.784216
-110.144375	55.938162
-107.481395	56.658891
-104.816984	57.223676
-102.155504	57.909790
-99.492595	59.147552
-96.834792	64.646853
-94.175560	67.517483
-91.517076	68.922378
-88.861517	67.211888
-86.204528	67.972727
-83.552638	68.318182
-80.899318	71.567133
-78.248917	70.644056
-75.597088	77.174126
-72.950349	72.520979
-70.302180	71.143357
-67.654754	70.222378
-65.010243	69.195804
-62.364302	65.323077
-59.723443	68.019580
-57.081155	70.646154
-54.441776	73.102797
-51.800967	75.079021
-49.160899	81.053147
-46.525904	85.404895
-43.889479	96.852448
-41.255957	99.147552
-38.621007	107.013986
-35.991122	111.717483
-33.357645	124.262937
-30.729230	131.432867
-28.101549	142.425874
-25.472439	112.932168
-22.848386	-120.444755
-20.220744	-1142.971329
-17.598155	-3572.925874
-14.976298	-2511.420280
-12.355171	2425.290909
-9.734775	14041.772028
-7.117266	24329.929371
-4.498329	31600.188811
-1.882277	35800.773427
0.733046	36898.035664
3.347641	34908.351748
5.959355	29852.945455
8.572497	21875.237762
11.180605	11560.764336
13.792295	1206.500699
16.398954	-3834.320280
19.007041	-4460.209091
21.614404	-582.051748
24.216742	157.923776
26.822658	163.963636
29.423552	161.693007
32.025874	149.321678
34.623179	137.287413
37.224059	124.639860
39.819924	115.003497
42.417218	108.213986
45.013792	104.279021
47.605357	98.037063
50.198350	95.310490
52.788482	87.782517
55.380041	87.871329
57.968742	84.293007
60.558869	87.055245
63.143997	84.897203
65.730553	82.351748
68.316395	80.211888
70.899383	81.753846
73.483797	84.102797
76.061083	84.141259
78.641935	83.874825
81.219938	86.069231
83.797231	84.097902
86.375950	90.045455
88.949687	87.945455
91.524852	89.828671
94.097173	86.600699
96.668786	81.870629
99.237559	82.917483
101.807759	82.597203
104.375120	81.094406
106.943908	78.227972
109.509859	82.906993
112.072975	90.270629
114.639647	97.538462
117.197098	112.784615
119.760234	132.433566
122.318410	173.654545
124.880141	239.479021
127.436915	350.786713
129.995115	514.132168
132.548363	722.589510
135.100913	974.569231
137.657013	1249.552448
140.208165	1527.337762
142.758620	1797.092308
145.308377	2047.060140
147.855315	2252.199301
150.401558	2407.421678
152.949226	2512.634266
155.496198	2562.889510
158.038235	2585.260839
160.579578	2582.616084
163.120228	2563.169231
165.662304	2532.951049
168.201568	2498.058741
170.738023	2455.494406
173.273788	2433.769930
175.810978	2426.423776
178.347477	2431.671329
180.881170	2443.004196
183.412059	2459.932168
185.942260	2479.102098
188.473887	2503.886713
191.002712	2537.689510
193.528738	2571.606294
196.054078	2595.715385
198.580843	2623.197203
201.104812	2635.697203
203.628096	2643.720280
206.150695	2647.507692
208.670501	2656.967133
211.189623	2663.461538
213.708064	2670.885315
216.227928	2680.259441
218.740791	2686.236364
221.257185	2682.437762
223.772897	2672.216084
226.283719	2647.886713
228.795966	2632.027273
231.305431	2611.393706
233.814216	2587.305594
236.322324	2579.276923
238.831856	2582.940559
241.336507	2596.902797
243.840482	2607.997203
246.345881	2617.787413
248.846405	2641.725175
251.350452	2811.253147
253.847529	3292.401399
256.348129	4056.308392
258.845957	4886.423077
261.343112	5574.725175
263.839594	6024.988811
266.331213	6207.767133
268.826352	6103.020979
271.318724	5726.044056
273.810426	5123.369231
276.299365	4386.316783
278.789727	3668.808392
281.277328	3168.990909
283.762169	2974.179720
286.250525	2957.079021
288.731941	2941.698601
291.216871	2862.881119
293.696956	2747.787413
296.180553	2619.873427
298.659307	2485.226573
301.139484	2369.626573
303.616910	2291.615385
306.093672	2265.253846
308.569770	2307.362238
311.043121	2385.179720
313.515809	2474.863636
315.987836	2555.423776
318.459202	2629.147552
320.927823	2674.748951
323.395785	2703.232867
325.865170	2702.538462
328.329732	2675.028671
330.797798	2625.383217
333.261044	2556.797902
335.723632	2492.180420
338.185564	2457.692308
340.646839	2435.388811
343.105380	2422.430769
345.565343	2413.493706
348.022573	2409.835664
350.479149	2407.244056
352.935071	2404.069930
355.388263	2390.255245
357.842878	2384.197902
360.292691	2371.303497
362.746000	2356.527273
365.194510	2339.279720
367.642370	2323.965035
370.091652	2303.169930
372.536140	2287.131469
374.982050	2267.804895
377.427310	2263.441259
379.869852	2251.413986
382.311746	2237.386014
384.752993	2226.359441
387.191524	2226.453846
389.631476	2222.800000
392.068715	2224.618182
394.503243	2221.528671
396.941258	2224.654545
399.374496	2220.084615
401.809155	2216.642657
404.239042	2217.535664
406.672414	2223.388811
409.101016	2224.693007
411.528976	2230.250350
413.958358	2236.734965
416.382974	2243.446853
418.809012	2244.295105
421.234409	2253.657343
423.659166	2260.758042
426.079165	2268.683916
428.500584	2267.819580
430.919308	2269.046154
433.339452	2275.644056
435.756901	2276.603497
438.175770	2280.861538
440.591946	2282.076224
443.003374	2282.537762
445.418279	2278.205594
447.830495	2277.469930
450.242076	2277.234965
452.653023	2272.693706
455.061284	2268.009091
457.468912	2258.258042
459.875908	2251.525175
462.282273	2243.637063
464.685955	2234.689510
467.089007	2228.655944
469.491429	2220.444755
471.893221	2218.944755
474.292335	2218.558741
476.692869	2224.239161
479.092774	2229.899301
481.487957	2229.753147
483.886606	2234.311888
486.280534	2230.588811
488.673837	2231.480420
491.066515	2223.242657
493.458567	2215.527273
495.852037	2200.055245
498.240795	2179.973427
500.626887	2150.956643
503.014399	2116.669231
505.401288	2073.607692
507.785513	2031.288811
510.171156	1980.629371
512.554138	1935.248252
514.934459	1892.150350
517.316199	1865.449650
519.695280	1848.184615
522.075779	1849.509790
524.453622	1847.436364
526.828808	1854.898601
529.203378	1846.806294
531.579365	1841.537762
533.952700	1823.649650
536.327452	1807.647552
538.697519	1777.866434
541.066970	1752.365035
543.437839	1722.233566
545.804027	1703.632168
548.171634	1687.076224
550.536596	1678.985315
552.900944	1667.195105
555.264679	1662.570629
557.629832	1654.419580
559.990313	1649.446853
562.352212	1644.509091
564.711470	1642.117483
567.068090	1633.744755
569.428156	1632.817483
571.781530	1618.671329
574.138349	1608.212587
576.492533	1597.731469
578.846108	1591.537762
581.199076	1586.223077
583.549411	1580.172727
585.901164	1572.028671
588.246240	1568.325175
590.596779	1570.855245
592.940646	1571.993706
595.289974	1577.855245
597.634653	1585.879021
599.976708	1585.492308
602.320180	1585.375524
604.661029	1589.921678
607.001275	1592.190909
609.338902	1585.123077
611.679963	1579.295105
614.016386	1567.688811
616.354226	1561.527273
618.689449	1549.488811
621.022056	1543.848252
623.356079	1540.476224
625.687488	1539.669231
628.018299	1529.504895
630.348513	1527.979720
632.678128	1531.565035
635.003120	1534.541958
637.333554	1541.923776
639.659367	1552.577622
641.982572	1560.732168
644.307194	1567.888112
646.629210	1566.557343
648.950632	1568.938462
651.269452	1563.451748
653.589687	1555.770629
655.909329	1544.822378
658.226370	1540.009091
660.542819	1529.295105
662.856670	1530.153846
665.171937	1535.832867
667.484607	1537.116084
669.798692	1540.855944
672.108177	1538.886713
674.419078	1535.486713
676.727386	1529.665734
679.035106	1523.339860
681.344240	1520.139860
683.648782	1516.219580
685.952738	1507.181119
688.256108	1495.593706
690.560892	1495.683916
692.861089	1490.540559
695.162702	1490.562937
697.463729	1483.360839
699.760175	1472.511189
702.058036	1461.532168
704.355313	1452.627273
706.652007	1448.435664
708.944125	1443.939161
711.239654	1434.988112
713.530609	1425.104895
715.822979	1419.288811
718.112774	1416.841958
720.401988	1415.761538
722.690623	1422.913986
724.976685	1421.920979
727.264162	1423.664336
729.549067	1424.003497
731.833395	1433.710490
734.115154	1436.188112
736.398327	1431.799301
738.680923	1425.601399
740.958963	1417.811189
743.238418	1416.427273
745.517296	1416.092308
747.795600	1416.286014
750.069354	1421.012587
752.344521	1423.313986
754.619115	1424.863636
756.891150	1419.100000
759.164598	1415.640559
761.435488	1413.452448
763.703822	1412.111189
765.973569	1411.712587
768.240761	1412.776923
770.507384	1419.281119
772.773436	1429.874126
775.036937	1439.900699
777.301851	1454.000699
779.566195	1463.515385
781.826010	1465.337762
784.087237	1456.504895
786.347897	1458.806993
788.606011	1462.452448
790.861580	1463.835664
793.120540	1454.041259
795.373000	1443.123077
797.630828	1429.160839
799.884137	1418.660839
802.134906	1406.669930
804.387087	1399.072727
806.636729	1392.556643
808.887784	1389.283217
811.134327	1390.139161
813.382282	1398.131469
815.627703	1392.478322
817.874535	1398.264336
820.120806	1386.258741
822.362572	1381.891608
824.607722	1374.882517
826.846399	1368.983916
829.088458	1363.390210
831.326019	1360.620280
833.564992	1354.784615
835.801438	1357.628671
838.039295	1361.767133
840.274627	1364.625874
842.507436	1364.878322
844.741656	1364.501399
846.973353	1358.700699
849.204496	1353.896503
851.435084	1348.283217
853.665118	1341.739860
855.894598	1341.885315
858.119596	1333.174126
860.347969	1316.172028
862.571862	1318.700699
864.797167	1333.079720
867.017996	1349.420280
869.242197	1352.339161
871.461925	1346.978322
873.683063	1351.032867
875.903651	1346.632867
878.121730	1346.939860
880.341218	1348.536364
882.556240	1341.958042
884.770714	1341.989510
886.984641	1335.782517
889.198021	1340.511189
891.410853	1359.455944
893.623139	1370.419580
895.832922	1365.632168
898.042160	1357.581818
900.250853	1352.511189
902.457046	1354.174825
904.664650	1348.409091
906.869755	1346.716084
909.074317	1339.277622
911.276384	1349.865734
913.479860	1341.623776
915.680842	1357.515385
917.881282	1374.513287
920.083131	1378.708392
922.278589	1388.134965
924.477406	1383.530070
926.671784	1391.092308
928.869520	1403.534266
931.062820	1404.485315
933.257529	1389.520979
935.449752	1388.143357
937.641436	1384.588112
939.832583	1372.497902
942.021247	1373.262238
944.209375	1381.846154
946.395022	1372.058741
948.584021	1382.434965
950.768597	1376.141259
952.952638	1382.716084
955.140029	1398.727972
957.319116	1422.988811
959.501554	1423.272028
961.683458	1447.148951
963.862887	1452.127273
966.039844	1456.918182
968.218209	1480.962937
970.397981	1508.944755
972.571404	1498.837762
974.748173	1513.313287
976.920535	1519.940559
979.094305	1515.432867
981.263671	1539.202098
983.436381	1549.744056
985.606626	1538.782517
987.776341	1534.970629
989.945529	1511.068531
992.110319	1506.323077
994.278450	1524.134266
996.442186	1521.295105
998.607330	1523.811189
1000.770014	1551.568531
1002.932173	1563.834266
1005.091875	1560.221678
1007.251052	1592.916783
1009.411636	1574.913986
1011.569765	1595.579021
1013.727371	1573.495804
1015.884453	1550.995804
1018.041011	1528.552448
1020.193190	1552.199301
1022.346776	1565.351049
1024.499840	1556.137063
1026.650455	1527.769231
1028.802477	1468.190909
1030.950125	1414.316084
1033.101105	1378.832168
1035.247714	1286.240559
1037.393804	1230.504895
1039.539376	1123.163636
1041.686353	1037.325874
1043.827041	971.906993
1045.971059	950.593007
1048.112636	916.963636
1050.253697	879.628671
1052.396162	857.127273
1054.532347	839.893706
1056.671859	841.983916
1058.807016	856.554545
1060.945497	850.480420
1063.079624	868.333566
1065.213238	890.354545
1067.348256	935.591608
1069.478926	993.231469
1071.611000	1059.012587
1073.740645	1131.527273
1075.869778	1223.985315
1077.998399	1329.618881
1080.126509	1415.527273
1082.252193	1468.005594
1084.377367	1495.941259
1086.503945	1517.266434
1088.626185	1540.772028
1090.749830	1567.841958
1092.869140	1584.179021
1094.993679	1600.855245
1097.111974	1606.664336
1099.231673	1626.769930
1101.348953	1650.209790
1103.465726	1684.585315
1105.581994	1691.293007
1107.695845	1658.331469
1109.811101	1615.376224
1111.922033	1592.109790
1114.036278	1566.239860
1116.146202	1569.774126
1118.257530	1561.778322
1120.368353	1557.953147
1122.474860	1556.222378
1124.584676	1586.302098
1126.690179	1583.545455
1128.797084	1596.081119
1130.897774	1608.192308
1133.003676	1589.788811
1135.105269	1589.188811
1137.208265	1579.481818
1139.310760	1578.178322
1141.407048	1597.784615
1143.508543	1601.111888
1145.605736	1595.546853
1147.702431	1600.585315
1149.798627	1598.037762
1151.894325	1567.602797
1153.989526	1543.776923
1156.082330	1530.466434
1158.176536	1502.976923
1160.264551	1505.231469
1162.357765	1488.457343
1164.444790	1501.082517
1166.535114	1521.839860
1168.621150	1527.776923
1170.710485	1530.837762
1172.793638	1542.516783
1174.878193	1562.946154
1176.964150	1553.351748
1179.045825	1536.404895
1181.128901	1542.211189
1183.209592	1533.974126
1185.289792	1536.582517
1187.369500	1533.154545
1189.448717	1537.562937
1191.525552	1524.213986
1193.600005	1493.031469
1195.677751	1487.913986
1197.751227	1494.130070
1199.826103	1494.459441
1201.896712	1486.214685
1203.968722	1467.408392
1206.038357	1473.674126
1208.109391	1466.472727
1210.179939	1480.361538
1212.246225	1474.697203
1214.313912	1490.634266
1216.379227	1477.814685
1218.445942	1475.633566
1220.508401	1489.758741
1222.574145	1491.533566
1224.635635	1493.269231
1226.698526	1497.318182
1228.759049	1472.702797
1230.819088	1467.634965
1232.878644	1465.376224
1234.935836	1463.580420
1236.992546	1450.781818
1239.046892	1467.776224
1241.104520	1448.779720
1243.159785	1466.135664
1245.210809	1474.263636
1247.263233	1476.763636
1249.315177	1488.361538
1251.364763	1488.814685
1253.413870	1491.095105
1255.462498	1504.207692
1257.510648	1512.102098
1259.558320	1509.256643
1261.601761	1513.009091
1263.648478	1529.164336
1265.692841	1520.709790
1267.736728	1538.139860
1269.778263	1540.302098
1271.817449	1520.972028
1273.859908	1510.435664
1275.898144	1508.551748
1277.937779	1505.956643
1279.976939	1491.056643
1282.011880	1475.982517
1284.048220	1463.383217
1286.082216	1461.099301
1288.117609	1451.885315
1290.148790	1449.784615
1292.181368	1476.347552
1294.213475	1477.093706
1296.243241	1463.475524
1298.274404	1466.969930
1300.301361	1476.676923
1302.329715	1481.811189
1304.353864	1473.283217
1306.381279	1489.788112
1308.404491	1499.844056
1310.429101	1498.067832
1312.451377	1505.532168
1314.475049	1527.598601
1316.496389	1528.228671
1318.517262	1508.433566
1320.537667	1502.554545
1322.553879	1484.077622
1324.571488	1483.286713
1326.586769	1463.746154
1328.605309	1448.008392
1330.619660	1466.349650
1332.631684	1463.220280
1334.646967	1455.886014
1336.658064	1465.312587
1338.670558	1472.939161
1340.678869	1470.613986
1342.690435	1466.838462
1344.695963	1468.854545
1346.704746	1474.279021
1348.709351	1480.460140
1350.717210	1459.524476
1352.724607	1469.224476
1354.725973	1484.700000
1356.728735	1486.524476
1358.731038	1485.542657
1360.732881	1488.534266
1362.734264	1489.257343
1364.733334	1482.157343
1366.731945	1469.869231
1368.730097	1461.209790
1370.727792	1465.555944
1372.721324	1457.516783
1374.716251	1444.259441
1376.710722	1448.520280
1378.704736	1452.090909
1380.696443	1443.474825
1382.687694	1427.823077
1384.676640	1429.884615
1386.666982	1418.389510
1388.656868	1418.259441
1390.644450	1414.724476
1392.631579	1411.530769
1394.616406	1414.141958
1396.602628	1427.927273
1398.586549	1437.443357
1400.570018	1458.703497
1402.553035	1473.448951
1404.533754	1463.049650
1406.515867	1455.112587
1408.495684	1468.748951
1410.475049	1469.987413
1412.450276	1465.110490
1414.428741	1462.716783
1416.404913	1459.426573
1418.380635	1463.517483
1420.355909	1481.954545
1422.328891	1481.149650
1424.301425	1496.493706
1426.273511	1495.191608
1428.245150	1482.390909
1430.212660	1480.974126
1432.185244	1494.780420
1434.150022	1495.534266
1436.119873	1486.461538
1438.085600	1483.782517
1440.052719	1487.920280
1442.017555	1495.200000
1443.978271	1505.969930
1445.944055	1511.446853
1447.903884	1517.244056
1449.865107	1521.223776
1451.827721	1527.153147
1453.786221	1530.413986
1455.744279	1536.340559
1457.701895	1534.602098
1459.659068	1529.044755
1461.613966	1527.038462
1463.570257	1530.914685
1465.524273	1536.153147
1467.477848	1538.518881
1469.429151	1533.744056
1471.381846	1521.193706
1473.332270	1517.632168
1475.282255	1499.681119
1477.231801	1495.289510
1479.179078	1496.662238
1481.124087	1509.011189
1483.070489	1523.009790
1485.016453	1533.095804
1486.961980	1543.672727
1488.905241	1543.769231
1490.848067	1548.432867
1492.788628	1547.620979
1494.730582	1545.131469
1496.670273	1519.970629
1498.609529	1501.495804
1500.548351	1493.255245
1502.484913	1493.255944
1504.422866	1505.646853
1506.358560	1509.688811
1508.293821	1508.818182
1510.226825	1516.195105
1512.159398	1516.472028
1514.091538	1532.006993
1516.023246	1535.115385
1517.952700	1537.829371
1519.883545	1515.169231
1521.813958	1527.273427
1523.740299	1534.451049
1525.668030	1550.593007
1527.593512	1554.495804
1529.518564	1551.127273
1531.443187	1553.283217
1533.367380	1556.625175
1535.289327	1570.185315
1537.212664	1570.520280
1539.133754	1561.896503
1541.052600	1553.656643
1542.972836	1546.274126
1544.890829	1574.018182
1546.808394	1583.042657
1548.723719	1590.125874
1550.640433	1580.851049
1552.553092	1591.132867
1554.468955	1597.459441
1556.382578	1612.404196
1558.293963	1616.901399
1560.206738	1614.723776
1562.115463	1592.144755
1564.025577	1586.330070
1565.935268	1586.323077
1567.844536	1577.874126
1569.751570	1554.441259
1571.656371	1565.308392
1573.562561	1569.820979
1575.466519	1579.989510
1577.370056	1577.156643
1579.273173	1591.523776
1581.174060	1583.225874
1583.076336	1617.116084
1584.976384	1616.067832
1586.877819	1632.777622
1588.775221	1639.571329
1590.672204	1618.790210
1592.568769	1605.904895
1594.466721	1618.769930
1596.358839	1613.615385
1598.254151	1604.585315
1600.149045	1596.980420
1602.041717	1606.071329
1603.933972	1610.497902
1605.824008	1642.954545
1607.713628	1663.560839
1609.602833	1680.348951
1611.491623	1700.128671
1613.378195	1702.206294
1615.266155	1705.157343
1617.150098	1698.644755
1619.035428	1701.401399
1620.920345	1695.698601
1622.803048	1671.193706
1624.687138	1666.541259
1626.567216	1663.009091
1628.448682	1682.362937
1630.327937	1685.664336
1632.208578	1677.901399
1634.083415	1690.922378
1635.963233	1702.202797
1637.839047	1707.030070
1639.714450	1703.625874
1641.591239	1732.267133
1643.462232	1722.274126
1645.336406	1722.398601
1647.206581	1738.796503
1649.079937	1769.074825
1650.951090	1794.067832
1652.820042	1796.960839
1654.690378	1780.491608
1656.556722	1772.403497
1658.424451	1765.267133
1660.289981	1745.106294
1662.156897	1732.895105
1664.019823	1705.358042
1665.884136	1674.853147
1667.746252	1664.072028
1669.607963	1646.544056
1671.471060	1653.241259
1673.331961	1649.206993
1675.190670	1672.297203
1677.048975	1670.946853
1678.908664	1653.701399
1680.762587	1690.383217
1682.619683	1699.922378
1684.476375	1704.479021
1686.329092	1692.927273
1688.184980	1707.469231
1690.036894	1700.749650
1691.888407	1714.009091
1693.739519	1716.779021
1695.590230	1684.044755
1697.440541	1713.614685
1699.288668	1692.204196
1701.138179	1642.827972
1702.981940	1675.852448
1704.830652	1661.870629
1706.673617	1648.300699
1708.519749	1634.124476
1710.361918	1648.521678
1712.207253	1632.739860
1714.046847	1661.115385
1715.887825	1647.640559
1717.730186	1614.446853
1719.568591	1631.986014
1721.408379	1619.981119
1723.245991	1618.921678
1725.083209	1643.945455
1726.918253	1632.302797
1728.754680	1613.767832
1730.588935	1611.201399
1732.422795	1614.011888
1734.256261	1596.868531
1736.085782	1598.409790
1737.918461	1594.967133
1739.747196	1576.587413
1741.579088	1551.686014
1743.407038	1559.146853
1745.234596	1595.286713
1747.061763	1604.956643
1748.888538	1585.320280
1750.714921	1587.744755
1752.537368	1612.435664
1754.362970	1616.491608
1756.184637	1638.327972
1758.007686	1640.193706
1759.828573	1673.430769
1761.649072	1671.750350
1763.470951	1644.967832
1765.287132	1688.464336
1767.106464	1746.424476
1768.921868	1758.019580
1770.740424	1757.032867
1772.555054	1796.623776
1774.369297	1818.030070
1776.183154	1807.335664
1777.996624	1805.558741
1779.807941	1799.963636
1781.620638	1797.138462
1783.432950	1750.693007
1785.241343	1720.788112
1787.051118	1716.063636
1788.856978	1717.747552
1790.665983	1707.065035
1792.471075	1722.703497
1794.277548	1775.265035
1796.083637	1796.900000
1797.885815	1804.316084
1799.691138	1833.419580
1801.492552	1852.826573
1803.295346	1837.209790
1805.094234	1808.944056
1806.894503	1783.653846
1808.694390	1764.243357
1810.492135	1761.546853
1812.289500	1744.326573
1814.086484	1740.805594
1815.883089	1760.897203
1817.677554	1778.576224
1819.473398	1798.396503
1821.263587	1826.343357
1823.058673	1841.819580
1824.848106	1832.201399
1826.640677	1818.933566
1828.431112	1828.754545
1830.219413	1830.279720
1832.010849	1809.173427
1833.796639	1786.356643
1835.583809	1757.835664
1837.368847	1752.579021
1839.157019	1768.482517
1840.941305	1769.997902
1842.723461	1767.799301
1844.506997	1776.504895
1846.288404	1757.012587
1848.071190	1757.928671
1849.850095	1746.251049
1851.630379	1721.553846
1853.408538	1703.238462
1855.188075	1714.683217
1856.965486	1727.846154
1858.740775	1740.561538
1860.517441	1755.537762
1862.291985	1764.430769
1864.067907	1788.762238
1865.838208	1811.288112
1867.611637	1830.986014
1869.382946	1833.876923
1871.153884	1798.444755
1872.926200	1806.076224
1874.692902	1800.054545
1876.462729	1797.808392
1878.228693	1798.084615
1879.997781	1780.137063
1881.763007	1760.703497
1883.527865	1760.531469
1885.294100	1762.212587
1887.056476	1772.951748
1888.818484	1793.555245
1890.580126	1773.429371
1892.341401	1759.728671
1894.102308	1760.208392
1895.862849	1749.730769
1897.621280	1746.043357
1899.379345	1736.642657
1901.135303	1734.397203
1902.892637	1739.718881
1904.649606	1737.365734
1906.404468	1737.424476
1908.157226	1742.627972
1909.909619	1745.670629
1911.663389	1737.025874
1913.415055	1740.181119
1915.164619	1736.781818
1916.915558	1733.059441
1918.666135	1737.156643
1920.412872	1736.614685
1922.160986	1735.651049
1923.907000	1747.101399
1925.654389	1727.046853
1927.399681	1714.126573
1929.142875	1716.678322
1930.887444	1720.085315
1932.629917	1715.048951
1934.372031	1699.883916
1936.113784	1697.254196
1937.855177	1710.309091
1939.594477	1734.071678
1941.333418	1749.372727
1943.072000	1742.354895
1944.808491	1767.190210
1946.544624	1759.319930
1948.282131	1764.175524
1950.015816	1786.545105
1951.750876	1774.172028
1953.483847	1767.306643
1955.216462	1748.964336
1956.948721	1752.573776
1958.680623	1764.395804
1960.410439	1786.320280
1962.138170	1776.518881
1963.867276	1775.148252
1965.596026	1762.747552
1967.322694	1748.940559
1969.049007	1739.798601
1970.776693	1731.786713
1972.498843	1716.018881
1974.224094	1732.132867
1975.945538	1723.600699
1977.670082	1723.343357
1979.392547	1739.448951
1981.111209	1751.422378
1982.832969	1751.937063
1984.550927	1776.564336
1986.270258	1757.429371
1987.985790	1768.443357
1989.706142	1773.300000
1991.422696	1769.622378
1993.135453	1782.061538
1994.851306	1797.676224
1996.565087	1795.577622
1998.278518	1805.024476
1999.989878	1817.383217
2001.702610	1822.081119
2003.411552	1818.875524
2005.123586	1825.562937
2006.830111	1812.195105
2008.539729	1809.188811
2010.247279	1793.146154
2011.954482	1770.471329
2013.659619	1763.948951
2015.364410	1761.061538
2017.070572	1762.361538
2018.772952	1783.508392
2020.476703	1793.356643
2022.178392	1787.376923
2023.879735	1768.825874
2025.580734	1781.153846
2027.279671	1784.627273
2028.979980	1767.205594
2030.676513	1757.939161
2032.374418	1768.809790
2034.070265	1769.294406
2035.769197	1777.750350
2037.462643	1775.654545
2039.157460	1779.090909
2040.851935	1769.330070
2042.542641	1759.108392
2044.236431	1763.439161
2045.926454	1765.696503
2047.617848	1773.353147
2049.307189	1777.606294
2050.997900	1794.307692
2052.684848	1804.270629
2054.371457	1804.230769
2056.059435	1804.786014
2057.743654	1785.978322
2059.429244	1780.841958
2061.114494	1779.183916
2062.797695	1775.613986
2064.482267	1785.995105
2066.161375	1775.146154
2067.845270	1785.683916
2069.523703	1778.130769
2071.205214	1782.348252
2072.882973	1762.651748
2074.560396	1763.962937
2076.239188	1758.694406
2077.915938	1745.474126
2079.590645	1739.333566
2081.266723	1739.776923
2082.940759	1733.760839
2084.614461	1738.301399
2086.287827	1739.776923
2087.959154	1746.473427
2089.630147	1755.695105
2091.300806	1752.531469
2092.971131	1757.258741
2094.641122	1756.747552
2096.309077	1763.260140
2097.976698	1756.044755
2099.642286	1762.470629
2101.309242	1786.009790
2102.974165	1789.461538
2104.638756	1794.934965
2106.301315	1805.243357
2107.965242	1811.485315
2109.627138	1825.082517
2111.288704	1821.835664
2112.949938	1836.146154
2114.609144	1815.154545
2116.268019	1821.316084
2117.926565	1832.248252
2119.584780	1841.334266
2121.239273	1831.115385
2122.896830	1816.067133
2124.554057	1786.241958
2126.207564	1783.898601
2127.862438	1783.127273
2129.513593	1771.620280
2131.167811	1773.956643
2132.818311	1763.867133
2134.470179	1765.055245
2136.116638	1797.349650
2137.767852	1824.983916
2139.415352	1834.032168
2141.064219	1830.634266
2142.711067	1836.478322
2144.357590	1827.347552
2146.003787	1833.688811
2147.646276	1815.944056
2149.291823	1797.602098
2150.933663	1779.174825
2152.578560	1773.186713
2154.219751	1796.459441
2155.860620	1809.265035
2157.501164	1818.106294
2159.139696	1815.975524
2160.779594	1822.606294
2162.415792	1828.883916
2164.053356	1827.281818
2165.690598	1823.456643
2167.325830	1827.110490
2168.960740	1827.234965
2170.595329	1821.762937
2172.229597	1834.440559
2173.860171	1841.237762
2175.493797	1838.295804
2177.123731	1831.689510
2178.755030	1828.511189
2180.384324	1827.900699
2182.013299	1827.434965
2183.641954	1829.313986
2185.270290	1824.476923
2186.896624	1828.724476
2188.522639	1821.396503
2190.146652	1824.175524
2191.772031	1821.968531
2193.395409	1827.808392
2195.020152	1833.502098
2196.641214	1817.877622
2198.261959	1825.337063
2199.884068	1813.537762
2201.504180	1827.984615
2203.122296	1840.782517
2204.740096	1852.613287
2206.357581	1862.748951
2207.974750	1879.913287
2209.591604	1898.628671
2211.208142	1897.641958
2212.822688	1895.295804
2214.435241	1878.737762
2216.049158	1860.490909
2217.661084	1842.124476
2219.274373	1826.295804
2220.885672	1833.488112
2222.494981	1835.509790
2224.105654	1836.507692
2225.714338	1850.071329
2227.322709	1863.642657
2228.929094	1875.083916
2230.536841	1876.718182
2232.142603	1882.574126
2233.748053	1878.296503
2235.351518	1892.665734
2236.956346	1890.709790
2238.559190	1895.418182
2240.160051	1904.727273
2241.762275	1917.886713
2243.362517	1919.557343
2244.964121	1919.101399
2246.562072	1922.754545
2248.161386	1933.293706
2249.758720	1939.786014
2251.355746	1937.083217
2252.954134	1934.961538
2254.548873	1947.213287
2256.141635	1947.303497
2257.735760	1953.458741
2259.331246	1972.206294
2260.923087	1992.330769
2262.514622	1999.646154
2264.107519	2002.095804
2265.695106	2015.936364
2267.287389	2031.437063
2268.874366	2059.682517
2270.464370	2064.558042
2272.049070	2059.676923
2273.638464	2065.662238
2275.222556	2049.878322
2276.808008	2033.798601
2278.391492	2023.035664
2279.978001	2015.433566
2281.560877	2008.551748
2283.143450	1996.226224
2284.725719	1986.148951
2286.304358	1995.642308
2287.886022	2009.179720
2289.464057	2015.627622
2291.045115	2030.123776
2292.622546	2038.756294
2294.198014	2057.664336
2295.776504	2061.982867
2297.351370	2057.839161
2298.925935	2056.845105
2300.500199	2046.074126
2302.074164	2032.454196
2303.647827	2017.548951
2305.221191	2009.413986
2306.790936	2005.360140
2308.360382	2015.721678
2309.932846	2030.934266
2311.500036	2016.700000
2313.070244	2026.244755
2314.636837	2000.804895
2316.204790	1987.508392
2317.770787	1975.988811
2319.336487	1984.441259
2320.901889	2008.901399
2322.465338	2059.979720
2324.030146	2099.262937
2325.591346	2124.299301
2327.155560	2143.447552
2328.714512	2166.141259
2330.276478	2166.391608
2331.836494	2161.281119
2333.396215	2126.379021
2334.953986	2095.006993
2336.511462	2061.207692
2338.068644	2050.436364
2339.623878	2043.281818
2341.178819	2067.762937
2342.733465	2050.398601
2344.287818	2065.791608
2345.841877	2071.901399
2347.395643	2090.461538
2348.947464	2119.958042
2350.497343	2135.511888
2352.050229	2105.525175
2353.597872	2101.802797
2355.148524	2069.631469
2356.695584	2061.943357
2358.244002	2062.468531
2359.792129	2095.151748
2361.336667	2115.197203
2362.882563	2124.388811
2364.426521	2140.469231
2365.971835	2147.860140
2367.513566	2143.764336
2369.056653	2129.181818
2370.597804	2098.000000
2372.138666	2093.921678
2373.679239	2084.097902
2375.219523	2101.099301
2376.759518	2105.595105
2378.295935	2150.760140
2379.835353	2189.775524
2381.371193	2174.595804
2382.908391	2204.344755
2384.442013	2213.564336
2385.978635	2186.095105
2387.513327	2189.883916
2389.046089	2168.344056
2390.578564	2165.401399
2392.109111	2183.246853
2393.642656	2167.878322
2395.170990	2165.812587
2396.700680	2175.212587
2398.230085	2195.630070
2399.759205	2198.735664
2401.288039	2209.879720
2402.811669	2230.269231
2404.339934	2237.669231
2405.862997	2245.431469
2407.390693	2216.730769
2408.911550	2231.064336
2410.437039	2235.239161
2411.958969	2215.416084
2413.482253	2208.829371
2415.003617	2213.087413
2416.523061	2213.423077
2418.043860	2221.034965
2419.562740	2238.637063
2421.081339	2262.679021
2422.598020	2272.895105
2424.116055	2262.046154
2425.633809	2250.535664
2427.148011	2255.801399
2428.661934	2244.771329
2430.175576	2248.048252
2431.690573	2271.272727
2433.202021	2235.689510
2434.714823	2197.339161
2436.225713	2218.563636
2437.736324	2241.496503
2439.245023	2243.161538
2440.756708	2213.369930
2442.264850	2215.639860
2443.772714	2210.611189
2445.280299	2201.602797
2446.784345	2198.168531
2448.291375	2218.111189
2449.796497	2265.079021
2451.301342	2250.707692
2452.804280	2291.197902
2454.306942	2343.735664
2455.809327	2373.223077
2457.309807	2388.701399
2458.811640	2370.813986
2460.311568	2383.272727
2461.811221	2349.411189
2463.310599	2306.339161
2464.808074	2277.076224
2466.303647	2273.206294
2467.802200	2283.244056
2469.297225	2264.951049
2470.793602	2244.886014
2472.286453	2248.483916
2473.780657	2251.240559
2475.274587	2256.411888
2476.764993	2229.469930
2478.258377	2227.734965
2479.749863	2203.027273
2481.239452	2198.209091
2482.728769	2219.650350
2484.216190	2216.199301
2485.706587	2205.448252
2487.193466	2208.920979
2488.681696	2189.669930
2490.166409	2216.840559
2491.650853	2240.802098
2493.136647	2230.630070
2494.620550	2186.932867
2496.105803	2192.607692
2497.585923	2223.039161
2499.069016	2240.948951
2500.550218	2253.130769
2502.031151	2220.656643
2503.510195	2199.209091
2504.988970	2214.758741
2506.467477	2181.985315
2507.945716	2196.843357
2509.423686	2190.204895
2510.898151	2160.164336
2512.375586	2138.603497
2513.849517	2183.837063
2515.324798	2220.376224
2516.799812	2241.127273
2518.271325	2230.119580
2519.744189	2233.814685
2521.215170	2232.177622
2522.687501	2248.358741
2524.154718	2227.260839
2525.624902	2236.176923
2527.093205	2227.630070
2528.561243	2222.987413
2530.029016	2207.758042
2531.496524	2202.858042
2532.963767	2177.241259
2534.427518	2195.206294
2535.892619	2179.881818
2537.355843	2208.962238
2538.820416	2199.316783
2540.281501	2221.284615
2541.743935	2252.595105
2543.206106	2291.784615
2544.664791	2310.741259
2546.128047	2310.934266
2547.586208	2275.313287
2549.045717	2280.575524
2550.500132	2291.045455
2551.959118	2294.486014
2553.416232	2280.681818
2554.871474	2277.183217
2556.326456	2258.006294
2557.779569	2285.455245
2559.234029	2300.024476
2560.686621	2303.604895
2562.138953	2319.260140
2563.589418	2299.448951
2565.042838	2271.493706
2566.491176	2310.778322
2567.942469	2293.174126
2569.391897	2271.890210
2570.837852	2253.146154
2572.286762	2244.696503
2573.732202	2250.927273
2575.178989	2268.079021
2576.623913	2268.097902
2578.068580	2277.127972
2579.514594	2290.768531
2580.957142	2287.153147
2582.401037	2266.313287
2583.841466	2278.831469
2585.283244	2241.288811
2586.723162	2241.143357
2588.164427	2206.435664
2589.602230	2210.248951
2591.042983	2231.015385
2592.478674	2246.195804
2593.917314	2253.613986
2595.354096	2259.162937
2596.789023	2254.462937
2598.226897	2276.060839
2599.659714	2282.055944
2601.093878	2314.505594
2602.526188	2292.498601
2603.959844	2290.016084
2605.391647	2271.976224
2606.823196	2296.535664
2608.254493	2293.189510
2609.683937	2308.512587
2611.113129	2306.923776
2612.540471	2278.290210
2613.969158	2255.993007
2615.397594	2276.660140
2616.822582	2296.266434
2618.248917	2315.241259
2619.673403	2294.635664
2621.099235	2290.958741
2622.521623	2293.840559
2623.945357	2306.776923
2625.367244	2285.230070
2626.788882	2291.053846
2628.208674	2295.024476
2629.629812	2242.870629
2631.050700	2235.400000
2632.468149	2252.990909
2633.888539	2262.293007
2635.305491	2278.961538
2636.722194	2273.337063
2638.138649	2271.550350
2639.554856	2265.810490
2640.970815	2265.137762
2642.384933	2245.916084
2643.798803	2237.777622
2645.210834	2252.201399
2646.624210	2231.859441
2648.034156	2237.224476
2649.447038	2248.337762
2650.856491	2255.109091
2652.265698	2262.788811
2653.673069	2268.233566
2655.083374	2274.268531
2656.491844	2278.940559
2657.898478	2286.322378
2659.304867	2280.869231
2660.709422	2268.071329
2662.115321	2292.588811
2663.519387	2311.706294
2664.923208	2300.452448
2666.326785	2292.869231
2667.728531	2293.556643
2669.131620	2295.092308
2670.531291	2312.774126
2671.932306	2300.487413
2673.329905	2307.737063
2674.730433	2305.540559
2676.127547	2313.197203
2677.526004	2328.109790
2678.922634	2354.769231
2680.319021	2361.400699
2681.715166	2378.876923
2683.109485	2403.473427
2684.505147	2427.047552
2685.897400	2438.206993
2687.290995	2431.001399
2688.682766	2413.424476
2690.075880	2403.951049
2691.467170	2396.909790
2692.856637	2375.647552
2694.245864	2370.406294
2695.634852	2354.201399
2697.025181	2351.459441
2698.410527	2357.779720
2699.798796	2367.365734
2701.185245	2366.207692
2702.571455	2349.102797
2703.957426	2322.021678
2705.339999	2318.809790
2706.723914	2292.780420
2708.107591	2289.760140
2709.491029	2270.415385
2710.871072	2294.697203
2712.252457	2291.268531
2713.632027	2317.060839
2715.012937	2322.717483
2716.392033	2351.179021
2717.769315	2372.135664
2719.147938	2378.795105
2720.524747	2391.273427
2721.901321	2400.368531
2723.277659	2395.681119
2724.652186	2391.164336
2726.028053	2397.939860
2727.400533	2405.252448
2728.775929	2407.255245
2730.146365	2422.382517
2731.518142	2428.648252
2732.889684	2446.387413
2734.259418	2443.923776
2735.630493	2442.697203
2736.999759	2416.061538
2738.368792	2408.290909
2739.736019	2403.058042
2741.103012	2366.860839
2742.469773	2365.923077
2743.836301	2383.279021
2745.201025	2388.019580
2746.565516	2395.941259
2747.929776	2411.377622
2749.293803	2400.211888
2750.657599	2381.987413
2752.018021	2388.515385
2753.381353	2368.439161
2754.739743	2378.510490
2756.101043	2368.144056
2757.458973	2365.607692
2758.819811	2381.500000
2760.178850	2403.362937
2761.534520	2405.941958
2762.893098	2416.221678
2764.248309	2387.983916
2765.603291	2366.874126
2766.956476	2367.900000
2768.312568	2363.113986
2769.665296	2328.786713
2771.017796	2318.519580
2772.370067	2295.993706
2773.723676	2328.409790
2775.073925	2347.018182
2776.422379	2373.351049
2777.773738	2414.546853
2779.121739	2416.280420
2780.471077	2389.582517
2781.818623	2406.193706
2783.165943	2406.804196
2784.513036	2404.100699
2785.858337	2393.111888
2787.203413	2389.326573
2788.548263	2366.183217
2789.892887	2376.498601
2791.234159	2374.906993
2792.576769	2379.246154
2793.919153	2382.031469
2795.261312	2359.309790
2796.600122	2342.561538
2797.941832	2357.324476
2799.280193	2364.323077
2800.619892	2374.443357
2801.957806	2380.610490
2803.293934	2398.589510
2804.629840	2402.304895
2805.967083	2406.667832
2807.302542	2401.527972
2808.637778	2421.435664
2809.971231	2434.840559
2811.306021	2461.719580
2812.637471	2496.313287
2813.971816	2505.599301
2815.301263	2529.952448
2816.632046	2535.334965
2817.962609	2531.014685
2819.291392	2515.392308
2820.621511	2484.199301
2821.949852	2450.114685
2823.277972	2419.969930
2824.604314	2417.812587
2825.931993	2409.973427
2827.256338	2408.870629
2828.582020	2406.208392
2829.905926	2400.456643
2831.229612	2412.323077
2832.554635	2419.551748
2833.876327	2419.379720
2835.197801	2413.629371
2836.519056	2388.960140
2837.840092	2413.880420
2839.159355	2402.886713
2840.479954	2403.539860
2841.798782	2383.672727
2843.117391	2394.708392
2844.434229	2388.190210
2845.750850	2387.286014
2847.067254	2378.660839
2848.381888	2414.409091
2849.697858	2389.855245
2851.010507	2371.395105
2852.324491	2351.526573
2853.638259	2378.132168
2854.951810	2365.406294
2856.263595	2380.728671
2857.573613	2411.955944
2858.884966	2483.425874
2860.193004	2492.355245
2861.502376	2482.143357
2862.811534	2500.323776
2864.120476	2526.374825
2865.427654	2487.287413
2866.733070	2511.244755
2868.039819	2512.484615
2869.344807	2518.769930
2870.649580	2521.953846
2871.952593	2551.288811
2873.258486	2575.470629
2874.559525	2589.648252
2875.861898	2575.467832
2877.162511	2562.100000
2878.464458	2557.713986
2879.766191	2546.321678
2881.064621	2541.659441
2882.364384	2533.844755
2883.662390	2515.825874
2884.960184	2519.788112
2886.256222	2483.845455
2887.553593	2472.946853
2888.849208	2465.332168
2890.144612	2463.907692
2891.439805	2464.530769
2892.731701	2468.095105
2894.026473	2449.618881
2895.317948	2448.025874
2896.610756	2462.374825
2897.903354	2475.416783
2899.192658	2468.783916
2900.483294	2484.485315
2901.772179	2469.421678
2903.062396	2480.508392
2904.349322	2500.624476
2905.637580	2495.815385
2906.924089	2494.046853
2908.210389	2494.129371
2909.496482	2496.014685
2910.780826	2491.971329
2912.068041	2512.373427
2913.350430	2556.065734
2914.634151	2548.460140
2915.916126	2596.722378
2917.197893	2647.066434
2918.477915	2676.863636
2919.760808	2682.672727
2921.041955	2668.420280
2922.319820	2676.095105
2923.600554	2679.825175
2924.878007	2665.561538
2926.155254	2642.178322
2927.430759	2628.627273
2928.709132	2610.597203
2929.982691	2577.967832
2931.259117	2578.253147
2932.533802	2601.497902
2933.806746	2604.750350
2935.081022	2591.709790
2936.353558	2596.758042
2937.625889	2611.323077
2938.894948	2629.861538
2940.166872	2621.471329
2941.437058	2622.118182
2942.707040	2588.380420
2943.976819	2555.848252
2945.244862	2552.530070
2946.511168	2547.900000
2947.777273	2553.415385
2949.044707	2551.767832
2950.310406	2509.941259
2951.575904	2495.931469
2952.841199	2489.371329
2954.103229	2497.209091
2955.366589	2492.107692
2956.629748	2491.558741
2957.891175	2502.013986
2959.153931	2520.167133
2960.414955	2543.989510
2961.674249	2564.006294
2962.933343	2584.055944
2964.192236	2591.481119
2965.450929	2581.198601
2966.709422	2592.318182
2967.966186	2624.368531
2969.222750	2600.404895
2970.477586	2569.174126
2971.733752	2543.736364
2972.986663	2549.181818
2974.240902	2548.470629
2975.494943	2513.278322
2976.747258	2520.314685
2977.999375	2544.681119
2979.249767	2569.872727
2980.503014	2593.054545
2981.751484	2596.031469
2983.002809	2617.411888
2984.250884	2602.612587
2985.498762	2608.085315
2986.746444	2585.301399
2987.993928	2584.527972
2989.239691	2575.066434
2990.485258	2520.318881
2991.732152	2534.427273
2992.975802	2527.731469
2994.220780	2523.249650
2995.462514	2524.153846
2996.707100	2535.200699
2997.949967	2567.758741
2999.189593	2609.829371
3000.432069	2638.545455
3001.671305	2633.432168
3002.911869	2668.595804
3004.150716	2674.900699
3005.389369	2663.791608
3006.626306	2669.138462
3007.864571	2641.744755
3009.101120	2644.347552
3010.337476	2658.239161
3011.573638	2678.395804
3012.808086	2677.820979
3014.042342	2692.201399
3015.276404	2698.879720
3016.508753	2701.172727
3017.739392	2702.727273
3018.972876	2677.295105
3020.204648	2657.854545
3021.434710	2629.536364
3022.664579	2604.071329
3023.892739	2609.480420
3025.122226	2622.035664
3026.350003	2623.853147
3027.577589	2621.945455
3028.806501	2620.311189
3030.030671	2639.437063
3031.257685	2652.051748
3032.481474	2641.663636
3033.706590	2643.015385
3034.929999	2637.818182
3036.153218	2628.670629
3037.374732	2627.618881
3038.599087	2630.712587
3039.818707	2640.179021
3041.039653	2649.953846
3042.260410	2654.658042
3043.479463	2640.298601
3044.699841	2660.572727
3045.917003	2654.865734
3047.135491	2633.246154
3048.352276	2615.098601
3049.568874	2608.165734
3050.785283	2613.718182
3051.998479	2605.849650
3053.214514	2588.613986
3054.427336	2597.100699
3055.642994	2606.864336
3056.853931	2581.720280
3058.066192	2575.257343
3059.278266	2585.497203
3060.490154	2592.793706
3061.700345	2591.300000
3062.910349	2581.661888
3064.120167	2590.997203
3065.328289	2622.693357
3066.536226	2626.033566
3067.742467	2619.010839
3068.950033	2618.049650
3070.155904	2617.424825
3071.361590	2592.528671
3072.567092	2594.417832
3073.770900	2595.812587
3074.976032	2595.133217
3076.179471	2581.976224
3077.381219	2546.175874
3078.582782	2525.067832
3079.784162	2520.946154
3080.985358	2489.215385
3082.184864	2490.203497
3083.384187	2474.494406
3084.584833	2478.001399
3085.783789	2476.124476
3086.979551	2486.706993
3088.178142	2511.360839
3089.373539	2519.248252
3090.570259	2521.288112
3091.763787	2515.032168
3092.960143	2515.900000
3094.154812	2511.051049
3095.346291	2490.062238
3096.542102	2499.548951
3097.733218	2491.653147
3098.925658	2507.544056
3100.114910	2526.177622
3101.306987	2529.965035
3102.497381	2554.255944
3103.684589	2551.301399
3104.873119	2559.672727
3106.062972	2557.776923
3107.249641	2549.744056
3108.436129	2543.213986
3109.622439	2531.677622
3110.810070	2544.605594
3111.994519	2557.860140
3113.177289	2564.212587
3114.362881	2575.916783
3115.546794	2560.486014
3116.729028	2568.190210
3117.911083	2558.993007
3119.092960	2542.958741
3120.274659	2529.997902
3121.454681	2536.160839
3122.633026	2545.377622
3123.814191	2535.100699
3124.992181	2556.992308
3126.169994	2576.131469
3127.347630	2591.209790
3128.523592	2603.813287
3129.699376	2589.016084
3130.876482	2586.990909
3132.051913	2579.937762
3133.225671	2545.006993
3134.397756	2547.081119
3135.571163	2530.548951
3136.744393	2516.427972
3137.915952	2513.438462
3139.088831	2551.044056
3140.258543	2566.072727
3141.429576	2593.392308
3142.598939	2597.016084
3143.766631	2604.964336
3144.937139	2617.112587
3146.102989	2623.025874
3147.273147	2614.547552
3148.438649	2636.645455
3149.603976	2634.639161
3150.769130	2646.818881
3151.934111	2667.944755
3153.100411	2660.826573
3154.262059	2652.343357
3155.425026	2656.144755
3156.587821	2647.818182
3157.750443	2646.120280
3158.911399	2627.429371
3160.072184	2629.569930
3161.232796	2639.683217
3162.391744	2644.344056
3163.550521	2640.665734
3164.709125	2655.169231
3165.867558	2665.848252
3167.025820	2668.338462
3168.182419	2667.920979
3169.337357	2673.188112
3170.493614	2681.367133
3171.648210	2678.187413
3172.802636	2668.830070
3173.955402	2666.267133
3175.107997	2666.095105
3176.260423	2634.913287
3177.412679	2653.077622
3178.564764	2676.097902
3179.713703	2691.888811
3180.865450	2691.076923
3182.015538	2694.958741
3183.163970	2707.397902
3184.312232	2715.427972
3185.460326	2725.684615
3186.608251	2723.018182
3187.754520	2732.668531
3188.900621	2725.931469
3190.045068	2709.414685
3191.189347	2727.720280
3192.333458	2726.853147
3193.478886	2710.565035
3194.621176	2695.218182
3195.763299	2712.558042
3196.905254	2719.330769
3198.047042	2725.900000
3199.188663	2719.495804
3200.327149	2713.414685
3201.466952	2721.090210
3202.608072	2717.946853
3203.746059	2724.254545
3204.882396	2719.728671
3206.018567	2742.327972
3207.156055	2734.650350
3208.291895	2753.822378
3209.429052	2773.102797
3210.561596	2781.593007
3211.698422	2763.100699
3212.830636	2724.464336
3213.964167	2721.478322
3215.097534	2686.806294
3216.227773	2680.161538
3217.360810	2660.851748
3218.490721	2647.882517
3219.621948	2669.977622
3220.750051	2668.077622
3221.880950	2680.695804
3223.010205	2685.394406
3224.137817	2706.849650
3225.262306	2715.225874
3226.391071	2735.493706
3227.516714	2763.609790
3228.642195	2776.609091
3229.766033	2818.683916
3230.892667	2846.536364
3232.014703	2846.659441
3233.138055	2846.755245
3234.261245	2825.672028
3235.384272	2792.206993
3236.505661	2753.920979
3237.626887	2732.002098
3238.746476	2699.771329
3239.865903	2700.751748
3240.983692	2685.833566
3242.104273	2696.044755
3243.221741	2732.262937
3244.339048	2761.467832
3245.456195	2759.324476
3246.571705	2762.702797
3247.688531	2754.298601
3248.802247	2764.566434
3249.918752	2767.098601
3251.033623	2778.871329
3252.145384	2783.321678
3253.256987	2812.779021
3254.369905	2804.947552
3255.482663	2824.232867
3256.592315	2851.740559
3257.703282	2860.348252
3258.814090	2866.617483
3259.923266	2855.943357
3261.030811	2845.225175
3262.139671	2857.986014
3263.248373	2880.637762
3264.353972	2906.662937
3265.460885	2940.310490
3266.566169	2966.677622
3267.672767	2970.076923
3268.776265	2991.530769
3269.881077	2983.960140
3270.985732	2988.094406
3272.087289	2996.516783
3273.188689	2974.447552
3274.291403	2947.976923
3275.393961	2939.272028
3276.493422	2920.523776
3277.595667	2921.286014
3278.694816	2918.633566
3279.792341	2889.927972
3280.889710	2867.016783
3281.989861	2866.708392
3283.086920	2850.000699
3284.183823	2844.232168
3285.280571	2848.792308
3286.372760	2852.765734
3287.469199	2852.945455
3288.564015	2853.917483
3289.658677	2839.613287
3290.751717	2853.656643
3291.844602	2840.217483
3292.935867	2820.575524
3294.028445	2812.858042
3295.119403	2809.904196
3296.208741	2793.272028
3297.297926	2803.286014
3298.388424	2811.030070
3299.475837	2827.777622
3300.563097	2836.324476
3301.651670	2866.864336
3302.740090	2878.104895
3303.823964	2893.288112
3304.912079	2904.681119
3305.997112	2918.397902
3307.080530	2936.207692
3308.165260	2937.994406
3309.248374	2941.992308
3310.332801	2962.170629
3311.414149	2941.500000
3312.496809	2932.859441
3313.577855	2927.305594
3314.658750	2937.986713
3315.738031	2922.344056
3316.817162	2935.952448
3317.897605	2939.642657
3318.974973	2953.225175
3320.053653	2955.062238
3321.130721	2950.025175
3322.207640	2970.934965
3323.282947	2994.288811
3324.358105	2992.583217
3325.434574	3006.252448
3326.507973	3022.200699
3327.581222	3050.381818
3328.655783	3064.259441
3329.728735	3079.880420
3330.800078	3078.499301
3331.872732	3079.735664
3332.942320	3066.162937
3334.013218	3069.306993
3335.082509	3085.786014
3336.153111	3100.973427
3337.222106	3098.047552
3338.289495	3106.826573
3339.355279	3116.748252
3340.425289	3131.849650
3341.492236	3136.119580
3342.556121	3144.369231
3343.622773	3136.720280
3344.687822	3115.183916
3345.751267	3093.100699
3346.814566	3088.858741
3347.877718	3070.049650
3348.940724	3064.620979
3350.003584	3070.392308
3351.064842	3047.318881
3352.123043	3046.002098
3353.185464	3057.432168
3354.244830	3069.354545
3355.304050	3077.231469
3356.364579	3073.655245
3357.420600	3078.936364
3358.479384	3090.020280
3359.533661	3108.214685
3360.590702	3103.627972
3361.646144	3105.860140
3362.702896	3107.413287
3363.758049	3087.322378
3364.811605	3105.097902
3365.863565	3098.051748
3366.918286	3092.609790
3367.969958	3087.658741
3369.021487	3088.283217
3370.074324	3090.581818
3371.124114	3083.060839
3372.175213	3054.930070
3373.223266	3039.165035
3374.274078	3017.565734
3375.321846	3004.711888
3376.369470	2991.032867
3377.416953	2992.551049
3378.462843	2976.674126
3379.510041	2986.911888
3380.554197	3006.148252
3381.601111	3015.460839
3382.646433	3033.475524
3383.688714	3027.524476
3384.730854	3022.130769
3385.774303	3035.362937
3386.817610	3041.736364
3387.859327	3026.267832
3388.900904	3021.458042
3389.942339	3012.450350
3390.982186	3012.534266
3392.020444	3009.286713
3393.060010	3014.462937
3394.099436	3006.373427
3395.137274	3007.463636
3396.173525	2999.300000
3397.209637	3000.289510
3398.247056	2987.203497
3399.281442	2996.318182
3400.317135	2980.558042
3401.352689	2990.149650
3402.385212	2995.471329
3403.420487	3028.790210
3404.452733	3044.373427
3405.484840	3061.278322
3406.515363	3075.452448
3407.547193	3088.321678
3408.578885	3104.938462
3409.607549	3105.551748
3410.636076	3092.831469
3411.665909	3080.337063
3412.695605	3071.186014
3413.722275	3046.202098
3414.750251	3046.475524
3415.775204	3037.704895
3416.802906	3034.157343
3417.827585	3033.216084
3418.853570	3037.651748
3419.877975	3048.837762
3420.902244	3076.456643
3421.924934	3110.137063
3422.947488	3133.651049
3423.971348	3146.100000
3424.992188	3147.398601
3426.012892	3135.806494
3427.034903	3123.934890
3428.053895	3116.330470
3429.072751	3117.539910
3430.092914	3132.109890
3431.110060	3164.587088
