-118.448435	22.100000
-115.778835	18.600000
-113.112170	32.300000
-110.446257	26.700000
-107.783276	30.500000
-105.118866	13.000000
-102.457386	41.000000
-99.794476	24.200000
-97.136674	10.700000
-94.477441	7.700000
-91.818958	27.800000
-89.163398	30.900000
-86.506410	12.900000
-83.854519	39.400000
-81.201199	34.200000
-78.550799	11.300000
-75.898969	23.800000
-73.252230	23.800000
-70.604061	14.400000
-67.956636	18.400000
-65.312124	9.700000
-62.666184	22.000000
-60.025325	23.500000
-57.383037	33.400000
-54.743657	19.300000
-52.102849	16.800000
-49.462781	42.000000
-46.827785	13.100000
-44.191360	51.000000
-41.557839	26.900000
-38.922889	49.000000
-36.293004	52.500000
-33.659527	76.900000
-31.031112	58.400000
-28.403430	60.500000
-25.774321	91.000000
-23.150268	98.000000
-20.522626	106.200000
-17.900037	148.100000
-15.278180	257.000000
-12.657053	407.600000
-10.036656	921.600000
-7.419147	3369.000000
-4.800210	11885.400000
-2.184159	27485.600000
0.431164	45764.900000
3.045760	30626.000000
5.657473	5522.500000
8.270615	481.300000
10.878723	216.400000
13.490413	140.700000
16.097072	120.900000
18.705159	109.200000
21.312522	90.700000
23.914860	83.300000
26.520776	65.000000
29.121670	70.900000
31.723992	48.500000
34.321297	57.700000
36.922177	48.100000
39.518043	50.800000
42.115336	44.200000
44.711910	41.300000
47.303475	48.300000
49.896468	38.100000
52.486600	30.800000
55.078160	32.700000
57.666860	25.100000
60.256987	20.500000
62.842116	29.300000
65.428671	18.300000
68.014513	16.000000
70.597501	19.500000
73.181915	36.200000
75.759201	12.700000
78.340053	16.600000
80.918056	38.700000
83.495349	24.600000
86.074068	32.700000
88.647806	25.600000
91.222970	16.600000
93.795291	36.600000
96.366904	50.800000
98.935677	23.500000
101.505877	30.100000
104.073239	14.100000
106.642026	49.800000
109.207977	52.100000
111.771093	41.100000
114.337765	35.000000
116.895216	61.200000
119.458352	56.200000
122.016529	98.900000
124.578259	110.700000
127.135034	156.700000
129.693234	221.900000
132.246482	312.600000
134.799031	435.500000
137.355131	606.600000
139.906284	802.900000
142.456738	967.400000
145.006496	1102.700000
147.553434	1241.900000
150.099676	1285.300000
152.647344	1335.700000
155.194317	1376.100000
157.736353	1413.600000
160.277696	1359.300000
162.818346	1402.400000
165.360422	1348.200000
167.899687	1349.900000
170.436142	1333.200000
172.971907	1341.800000
175.509097	1347.700000
178.045595	1347.800000
180.579288	1327.100000
183.110178	1343.200000
185.640379	1369.000000
188.172005	1368.600000
190.700830	1371.200000
193.226856	1381.200000
195.752197	1390.300000
198.278962	1399.400000
200.802930	1373.900000
203.326214	1425.100000
205.848813	1397.700000
208.368619	1387.300000
210.887742	1396.000000
213.406182	1396.600000
215.926046	1427.400000
218.438909	1409.400000
220.955303	1404.400000
223.471015	1454.300000
225.981838	1410.200000
228.494085	1400.100000
231.003549	1402.400000
233.512335	1391.500000
236.020443	1441.500000
238.529974	1407.000000
241.034625	1417.400000
243.538601	1422.200000
246.044000	1487.400000
248.544524	1505.900000
251.048571	1531.900000
253.545648	1651.700000
256.046247	1748.900000
258.544075	1987.700000
261.041230	2377.100000
263.537712	2878.300000
266.029331	3178.300000
268.524470	2944.000000
271.016843	2407.900000
273.508545	2011.700000
275.997483	1830.800000
278.487846	1734.800000
280.975447	1684.400000
283.460288	1688.400000
285.948643	1706.100000
288.430059	1692.400000
290.914989	1654.000000
293.395074	1557.500000
295.878671	1473.100000
298.357425	1445.400000
300.837603	1425.200000
303.315028	1432.600000
305.791790	1433.300000
308.267889	1444.400000
310.741239	1435.600000
313.213927	1467.900000
315.685954	1483.600000
318.157320	1577.900000
320.625942	1616.400000
323.093904	1668.400000
325.563289	1623.800000
328.027850	1546.100000
330.495916	1529.400000
332.959162	1532.800000
335.421750	1517.700000
337.883682	1509.100000
340.344957	1520.900000
342.803498	1513.900000
345.263461	1480.600000
347.720691	1491.300000
350.177267	1534.900000
352.633189	1507.500000
355.086382	1512.900000
357.540996	1503.600000
359.990809	1484.500000
362.444119	1503.100000
364.892629	1474.000000
367.340489	1495.700000
369.789770	1480.800000
372.234258	1487.000000
374.680168	1506.100000
377.125429	1482.700000
379.567970	1485.100000
382.009864	1471.200000
384.451111	1445.400000
386.889642	1467.500000
389.329595	1462.200000
391.766834	1428.600000
394.201361	1477.700000
396.639376	1466.100000
399.072614	1436.500000
401.507274	1461.300000
403.937160	1470.600000
406.370532	1463.800000
408.799134	1475.600000
411.227095	1501.000000
413.656476	1494.400000
416.081092	1488.700000
418.507130	1496.800000
420.932527	1512.700000
423.357284	1491.700000
425.777283	1540.300000
428.198703	1555.400000
430.617426	1541.400000
433.037570	1494.500000
435.455019	1529.200000
437.873888	1503.500000
440.290064	1572.300000
442.701493	1525.000000
445.116398	1546.500000
447.528613	1544.800000
449.940194	1521.000000
452.351141	1547.900000
454.759402	1500.300000
457.167030	1540.300000
459.574027	1539.800000
461.980391	1548.700000
464.384073	1563.300000
466.787125	1523.800000
469.189547	1523.200000
471.591340	1535.200000
473.990454	1514.800000
476.390988	1523.400000
478.790893	1523.600000
481.186075	1513.900000
483.584724	1547.000000
485.978653	1533.800000
488.371956	1541.900000
490.764633	1539.500000
493.156685	1549.500000
495.550156	1537.800000
497.938914	1518.100000
500.325006	1494.900000
502.712518	1509.700000
505.099406	1495.600000
507.483631	1462.800000
509.869275	1450.300000
512.252256	1425.600000
514.632577	1408.000000
517.014317	1406.500000
519.393398	1439.000000
521.773898	1417.000000
524.151740	1411.300000
526.526927	1445.300000
528.901496	1452.800000
531.277484	1433.300000
533.650818	1410.500000
536.025570	1424.700000
538.395637	1407.200000
540.765088	1397.300000
543.135957	1385.700000
545.502146	1360.000000
547.869753	1388.500000
550.234714	1370.100000
552.599062	1368.600000
554.962798	1364.000000
557.327951	1365.900000
559.688431	1418.600000
562.050330	1398.800000
564.409589	1389.900000
566.766209	1363.400000
569.126274	1362.700000
571.479649	1375.400000
573.836468	1382.300000
576.190651	1384.600000
578.544227	1353.400000
580.897194	1338.200000
583.247530	1360.300000
585.599282	1385.400000
587.944358	1356.400000
590.294898	1354.900000
592.638765	1355.900000
594.988092	1329.800000
597.332772	1341.900000
599.674826	1365.000000
602.018298	1386.900000
604.359147	1345.000000
606.699394	1356.400000
609.037020	1358.200000
611.378081	1380.100000
613.714504	1365.800000
616.052345	1365.100000
618.387567	1344.600000
620.720174	1378.000000
623.054197	1371.100000
625.385607	1382.600000
627.716418	1360.700000
630.046631	1365.100000
632.376246	1354.100000
634.701239	1369.200000
637.031673	1381.400000
639.357485	1371.100000
641.680691	1352.200000
644.005312	1397.600000
646.327329	1392.400000
648.648751	1394.900000
650.967570	1373.700000
653.287805	1367.400000
655.607447	1379.100000
657.924488	1384.500000
660.240937	1392.300000
662.554788	1378.200000
664.870055	1388.200000
667.182725	1391.000000
669.496810	1369.700000
671.806295	1406.900000
674.117196	1388.200000
676.425504	1392.300000
678.733224	1384.300000
681.042359	1388.500000
683.346901	1393.700000
685.650856	1361.600000
687.954226	1341.900000
690.259010	1386.100000
692.559208	1365.600000
694.860820	1388.100000
697.161848	1362.900000
699.458293	1371.000000
701.756154	1369.500000
704.053431	1375.500000
706.350125	1371.600000
708.642243	1368.900000
710.937772	1364.900000
713.228728	1355.600000
715.521098	1353.300000
717.810892	1376.800000
720.100107	1380.900000
722.388741	1349.800000
724.674804	1372.000000
726.962280	1355.300000
729.247186	1352.800000
731.531513	1381.600000
733.813272	1348.800000
736.096445	1377.600000
738.379041	1392.200000
740.657082	1365.900000
742.936536	1348.400000
745.215415	1395.900000
747.493718	1384.800000
749.767472	1421.500000
752.042640	1388.800000
754.317234	1421.900000
756.589268	1381.200000
758.862716	1394.300000
761.133606	1376.600000
763.401940	1378.700000
765.671687	1354.400000
767.938880	1375.400000
770.205502	1385.100000
772.471555	1423.400000
774.735055	1374.400000
776.999969	1381.500000
779.264313	1409.200000
781.524128	1412.500000
783.785356	1382.100000
786.046015	1402.100000
788.304129	1397.200000
790.559698	1393.600000
792.818658	1394.200000
795.071119	1386.200000
797.328947	1386.700000
799.582255	1393.000000
801.833024	1406.100000
804.085205	1354.000000
806.334848	1389.700000
808.585902	1386.400000
810.832445	1366.300000
813.080400	1390.800000
815.325821	1388.100000
817.572653	1374.900000
819.818924	1378.000000
822.060691	1376.900000
824.305840	1368.000000
826.544517	1361.300000
828.786577	1378.400000
831.024138	1342.400000
833.263110	1346.600000
835.499556	1341.200000
837.737413	1363.500000
839.972745	1376.800000
842.205554	1358.900000
844.439774	1367.500000
846.671472	1354.900000
848.902615	1371.100000
851.133203	1327.300000
853.363236	1339.600000
855.592716	1377.100000
857.817714	1324.600000
860.046087	1365.100000
862.269981	1373.200000
864.495285	1400.900000
866.716114	1380.700000
868.940315	1352.600000
871.160043	1356.100000
873.381182	1351.100000
875.601770	1361.600000
877.819848	1396.300000
880.039337	1350.100000
882.254359	1363.100000
884.468833	1353.900000
886.682760	1376.700000
888.896139	1372.100000
891.108971	1389.100000
893.321257	1367.300000
895.531040	1361.700000
897.740278	1380.700000
899.948971	1358.800000
902.155165	1350.800000
904.362768	1346.000000
906.567874	1338.600000
908.772436	1387.100000
910.974502	1366.200000
913.177978	1386.300000
915.378960	1348.900000
917.579401	1361.600000
919.781249	1378.900000
921.976707	1374.400000
924.175524	1378.700000
926.369902	1399.600000
928.567638	1371.700000
930.760938	1356.500000
932.955647	1356.700000
935.147870	1387.000000
937.339555	1377.300000
939.530702	1373.000000
941.719366	1411.300000
943.907493	1434.200000
946.093140	1382.900000
948.282139	1397.700000
950.466715	1433.000000
952.650756	1421.100000
954.838147	1407.300000
957.017234	1405.300000
959.199672	1415.900000
961.381576	1386.300000
963.561006	1442.700000
965.737963	1439.000000
967.916327	1399.100000
970.096099	1438.900000
972.269522	1446.800000
974.446291	1447.900000
976.618653	1444.800000
978.792423	1435.400000
980.961789	1449.200000
983.134500	1440.500000
985.304744	1481.900000
987.474460	1463.900000
989.643647	1473.800000
991.808437	1477.700000
993.976568	1477.800000
996.140305	1470.200000
998.305448	1488.900000
1000.468133	1481.400000
1002.630291	1506.300000
1004.789993	1478.900000
1006.949171	1496.500000
1009.109755	1479.400000
1011.267884	1487.500000
1013.425489	1455.300000
1015.582571	1496.500000
1017.739130	1485.000000
1019.891309	1496.700000
1022.044894	1507.000000
1024.197958	1498.200000
1026.348574	1470.200000
1028.500595	1489.600000
1030.648243	1489.900000
1032.799223	1479.200000
1034.945832	1506.500000
1037.091923	1514.400000
1039.237494	1537.200000
1041.384471	1524.400000
1043.525159	1523.600000
1045.669177	1501.900000
1047.810754	1496.600000
1049.951815	1539.000000
1052.094280	1498.600000
1054.230466	1543.000000
1056.369978	1538.300000
1058.505134	1536.100000
1060.643615	1524.600000
1062.777742	1505.800000
1064.911356	1532.900000
1067.046375	1518.900000
1069.177044	1525.700000
1071.309118	1514.900000
1073.438763	1509.300000
1075.567896	1488.300000
1077.696517	1525.100000
1079.824627	1501.900000
1081.950311	1490.900000
1084.075485	1515.000000
1086.202063	1462.400000
1088.324304	1537.600000
1090.447948	1494.600000
1092.567259	1474.200000
1094.691798	1459.800000
1096.810092	1502.300000
1098.929791	1521.500000
1101.047071	1472.700000
1103.163845	1456.700000
1105.280112	1520.200000
1107.393964	1458.800000
1109.509219	1476.000000
1111.620152	1475.400000
1113.734396	1458.000000
1115.844320	1460.300000
1117.955648	1473.900000
1120.066471	1472.600000
1122.172979	1443.900000
1124.282795	1473.800000
1126.388297	1456.300000
1128.495202	1464.600000
1130.595892	1433.800000
1132.701794	1450.700000
1134.803387	1446.000000
1136.906383	1458.000000
1139.008878	1467.500000
1141.105166	1453.400000
1143.206662	1467.600000
1145.303855	1456.300000
1147.400549	1410.800000
1149.496745	1458.000000
1151.592444	1457.400000
1153.687645	1437.700000
1155.780449	1425.800000
1157.874655	1429.600000
1159.962670	1428.900000
1162.055883	1412.500000
1164.142908	1452.400000
1166.233232	1434.600000
1168.319269	1424.300000
1170.408603	1434.700000
1172.491756	1444.400000
1174.576311	1411.100000
1176.662268	1442.700000
1178.743943	1437.000000
1180.827020	1444.300000
1182.907711	1434.600000
1184.987910	1441.900000
1187.067618	1427.200000
1189.146835	1422.300000
1191.223670	1435.000000
1193.298124	1446.500000
1195.375870	1447.400000
1197.449345	1442.000000
1199.524221	1449.900000
1201.594830	1438.300000
1203.666841	1434.200000
1205.736475	1435.900000
1207.807510	1429.500000
1209.878057	1467.500000
1211.944343	1433.500000
1214.012030	1441.900000
1216.077345	1394.900000
1218.144060	1415.100000
1220.206519	1441.200000
1222.272263	1414.900000
1224.333754	1402.600000
1226.396644	1423.900000
1228.457167	1401.100000
1230.517206	1424.600000
1232.576763	1404.100000
1234.633954	1430.200000
1236.690664	1394.300000
1238.745011	1440.800000
1240.802638	1405.500000
1242.857903	1405.900000
1244.908927	1418.800000
1246.961351	1385.000000
1249.013295	1414.200000
1251.062881	1410.900000
1253.111988	1389.800000
1255.160617	1427.800000
1257.208767	1436.400000
1259.256439	1406.900000
1261.299880	1425.600000
1263.346596	1409.500000
1265.390959	1387.900000
1267.434846	1399.300000
1269.476382	1418.300000
1271.515567	1399.800000
1273.558026	1419.000000
1275.596262	1421.700000
1277.635897	1388.400000
1279.675057	1437.200000
1281.709998	1423.100000
1283.746339	1389.600000
1285.780334	1408.300000
1287.815728	1409.900000
1289.846908	1405.600000
1291.879487	1437.600000
1293.911593	1438.900000
1295.941359	1441.200000
1297.972523	1411.200000
1299.999479	1422.700000
1302.027833	1393.100000
1304.051983	1408.600000
1306.079397	1429.800000
1308.102609	1409.000000
1310.127219	1411.600000
1312.149495	1425.800000
1314.173168	1395.600000
1316.194508	1412.200000
1318.215380	1398.900000
1320.235786	1413.300000
1322.251997	1414.000000
1324.269606	1400.700000
1326.284888	1387.200000
1328.303427	1412.900000
1330.317778	1382.900000
1332.329803	1410.900000
1334.345085	1417.200000
1336.356182	1403.800000
1338.368676	1391.400000
1340.376987	1421.500000
1342.388554	1394.400000
1344.394081	1419.500000
1346.402864	1372.300000
1348.407469	1379.100000
1350.415328	1375.300000
1352.422725	1385.200000
1354.424091	1372.200000
1356.426854	1382.900000
1358.429156	1369.000000
1360.430999	1391.900000
1362.432382	1386.100000
1364.431452	1390.200000
1366.430063	1400.800000
1368.428216	1403.100000
1370.425911	1369.500000
1372.419442	1391.600000
1374.414370	1393.200000
1376.408841	1407.200000
1378.402855	1387.700000
1380.394561	1388.000000
1382.385813	1394.700000
1384.374759	1405.200000
1386.365100	1369.200000
1388.354986	1388.200000
1390.342569	1370.800000
1392.329697	1390.800000
1394.314525	1398.000000
1396.300746	1389.400000
1398.284668	1377.100000
1400.268137	1369.700000
1402.251154	1376.000000
1404.231872	1391.400000
1406.213986	1353.400000
1408.193802	1406.100000
1410.173168	1386.100000
1412.148394	1372.500000
1414.126860	1379.300000
1416.103031	1399.100000
1418.078754	1376.500000
1420.054027	1372.200000
1422.027009	1391.900000
1423.999543	1404.500000
1425.971630	1400.100000
1427.943268	1383.200000
1429.910778	1409.000000
1431.883363	1409.000000
1433.848141	1402.600000
1435.817991	1393.300000
1437.783718	1390.200000
1439.750837	1404.100000
1441.715673	1361.500000
1443.676390	1352.600000
1445.642174	1387.000000
1447.602003	1390.000000
1449.563225	1388.100000
1451.525840	1393.400000
1453.484340	1347.500000
1455.442398	1436.200000
1457.400013	1407.000000
1459.357187	1373.300000
1461.312085	1425.200000
1463.268375	1420.600000
1465.222391	1379.400000
1467.175967	1403.900000
1469.127270	1403.900000
1471.079965	1393.800000
1473.030389	1401.500000
1474.980373	1371.400000
1476.929919	1413.200000
1478.877196	1371.000000
1480.822206	1390.400000
1482.768607	1367.600000
1484.714572	1365.800000
1486.660098	1413.900000
1488.603360	1400.500000
1490.546185	1388.600000
1492.486747	1378.500000
1494.428700	1399.900000
1496.368392	1382.700000
1498.307648	1364.200000
1500.246469	1402.200000
1502.183031	1383.300000
1504.120984	1404.400000
1506.056679	1401.700000
1507.991939	1400.500000
1509.924944	1386.600000
1511.857516	1386.500000
1513.789656	1381.900000
1515.721364	1392.400000
1517.650818	1387.200000
1519.581663	1383.600000
1521.512077	1373.800000
1523.438417	1391.600000
1525.366149	1385.500000
1527.291630	1363.600000
1529.216682	1378.800000
1531.141305	1370.700000
1533.065499	1359.500000
1534.987446	1363.800000
1536.910782	1378.500000
1538.831873	1383.300000
1540.750719	1392.800000
1542.670955	1393.700000
1544.588947	1375.300000
1546.506513	1369.600000
1548.421837	1385.400000
1550.338551	1387.000000
1552.251210	1398.500000
1554.167073	1396.800000
1556.080696	1409.300000
1557.992082	1425.400000
1559.904856	1390.200000
1561.813581	1387.100000
1563.723696	1378.100000
1565.633387	1383.600000
1567.542654	1398.400000
1569.449688	1320.600000
1571.354489	1379.100000
1573.260679	1400.200000
1575.164637	1393.800000
1577.068175	1380.400000
1578.971291	1402.700000
1580.872179	1393.000000
1582.774454	1389.100000
1584.674502	1376.800000
1586.575937	1403.100000
1588.473339	1379.800000
1590.370322	1396.200000
1592.266887	1364.700000
1594.164840	1361.800000
1596.056958	1392.400000
1597.952269	1363.200000
1599.847163	1377.500000
1601.739835	1355.500000
1603.632091	1359.000000
1605.522126	1388.000000
1607.411747	1369.800000
1609.300951	1366.400000
1611.189741	1383.500000
1613.076314	1361.000000
1614.964273	1348.000000
1616.848216	1374.100000
1618.733547	1366.500000
1620.618463	1380.800000
1622.501166	1387.400000
1624.385256	1386.800000
1626.265335	1361.100000
1628.146800	1371.400000
1630.026055	1380.700000
1631.906696	1362.100000
1633.781533	1382.600000
1635.661352	1376.900000
1637.537165	1366.800000
1639.412568	1376.600000
1641.289358	1366.100000
1643.160350	1383.400000
1645.034524	1365.800000
1646.904700	1372.600000
1648.778056	1381.500000
1650.649209	1356.700000
1652.518160	1354.500000
1654.388497	1406.500000
1656.254840	1384.600000
1658.122569	1350.500000
1659.988100	1340.700000
1661.855015	1367.700000
1663.717942	1378.500000
1665.582254	1338.000000
1667.444370	1361.700000
1669.306082	1353.700000
1671.169178	1358.300000
1673.030080	1376.500000
1674.888788	1341.600000
1676.747093	1356.300000
1678.606783	1358.700000
1680.460706	1353.700000
1682.317801	1354.600000
1684.174494	1349.700000
1686.027211	1320.400000
1687.883098	1333.600000
1689.735012	1335.700000
1691.586525	1368.400000
1693.437637	1350.500000
1695.288349	1359.300000
1697.138660	1315.700000
1698.986787	1321.700000
1700.836297	1339.200000
1702.680059	1328.600000
1704.528770	1331.200000
1706.371736	1329.600000
1708.217867	1336.600000
1710.060037	1325.900000
1711.905371	1337.700000
1713.744965	1317.900000
1715.585943	1318.300000
1717.428304	1326.700000
1719.266709	1297.800000
1721.106497	1328.800000
1722.944110	1313.300000
1724.781327	1322.100000
1726.616371	1334.700000
1728.452798	1326.700000
1730.287053	1358.200000
1732.120913	1294.300000
1733.954380	1323.100000
1735.783900	1315.100000
1737.616579	1340.500000
1739.445314	1293.700000
1741.277207	1329.300000
1743.105157	1328.800000
1744.932715	1303.100000
1746.759881	1313.100000
1748.586656	1323.800000
1750.413040	1312.000000
1752.235487	1320.300000
1754.061088	1300.000000
1755.882755	1323.600000
1757.705804	1303.100000
1759.526692	1280.900000
1761.347190	1300.800000
1763.169070	1306.000000
1764.985250	1329.600000
1766.804582	1263.300000
1768.619987	1326.700000
1770.438542	1314.700000
1772.253172	1312.900000
1774.067416	1317.800000
1775.881272	1301.200000
1777.694742	1328.400000
1779.506059	1342.900000
1781.318757	1284.400000
1783.131068	1348.600000
1784.939462	1313.600000
1786.749237	1303.900000
1788.555096	1335.000000
1790.364101	1309.600000
1792.169193	1314.400000
1793.975666	1316.500000
1795.781755	1327.600000
1797.583934	1305.900000
1799.389256	1305.100000
1801.190670	1314.700000
1802.993464	1294.300000
1804.792352	1305.600000
1806.592621	1321.500000
1808.392508	1279.800000
1810.190254	1317.700000
1811.987618	1327.900000
1813.784603	1308.500000
1815.581207	1293.600000
1817.375672	1293.700000
1819.171516	1314.000000
1820.961706	1301.800000
1822.756792	1280.900000
1824.546225	1306.900000
1826.338795	1336.800000
1828.129230	1298.000000
1829.917531	1295.500000
1831.708967	1323.900000
1833.494757	1279.400000
1835.281927	1310.600000
1837.066965	1307.000000
1838.855137	1297.600000
1840.639423	1304.600000
1842.421580	1289.200000
1844.205115	1293.800000
1845.986522	1305.000000
1847.769308	1302.800000
1849.548214	1301.300000
1851.328498	1310.100000
1853.106656	1295.500000
1854.886193	1294.600000
1856.663605	1321.600000
1858.438893	1275.400000
1860.215560	1298.200000
1861.990103	1309.700000
1863.766025	1310.700000
1865.536326	1318.300000
1867.309755	1309.300000
1869.081064	1320.700000
1870.852003	1309.700000
1872.624318	1333.900000
1874.391020	1320.500000
1876.160848	1296.000000
1877.926812	1314.600000
1879.695900	1328.300000
1881.461126	1279.200000
1883.225983	1295.500000
1884.992218	1306.000000
1886.754594	1311.300000
1888.516603	1288.500000
1890.278244	1309.800000
1892.039519	1285.100000
1893.800426	1315.200000
1895.560967	1282.100000
1897.319398	1293.600000
1899.077464	1296.800000
1900.833421	1298.000000
1902.590756	1266.500000
1904.347724	1310.000000
1906.102587	1281.600000
1907.855344	1297.500000
1909.607738	1278.400000
1911.361507	1307.700000
1913.113173	1272.600000
1914.862737	1288.200000
1916.613677	1251.300000
1918.364253	1294.300000
1920.110990	1286.600000
1921.859104	1299.400000
1923.605118	1255.900000
1925.352508	1288.400000
1927.097799	1246.200000
1928.840993	1276.700000
1930.585563	1282.000000
1932.328036	1273.000000
1934.070149	1276.500000
1935.811902	1309.000000
1937.553296	1282.200000
1939.292596	1296.600000
1941.031536	1305.700000
1942.770119	1316.100000
1944.506609	1294.400000
1946.242742	1290.800000
1947.980249	1287.200000
1949.713934	1312.200000
1951.448994	1282.500000
1953.181966	1330.700000
1954.914581	1337.200000
1956.646839	1300.400000
1958.378741	1314.200000
1960.108557	1313.400000
1961.836289	1301.800000
1963.565394	1319.300000
1965.294145	1310.400000
1967.020812	1307.300000
1968.747125	1297.400000
1970.474811	1321.500000
1972.196961	1286.800000
1973.922212	1291.300000
1975.643657	1316.600000
1977.368201	1281.000000
1979.090666	1321.500000
1980.809327	1289.400000
1982.531087	1336.000000
1984.249045	1301.100000
1985.968376	1325.500000
1987.683908	1292.900000
1989.404261	1306.000000
1991.120814	1317.000000
1992.833571	1332.800000
1994.549425	1287.200000
1996.263205	1308.900000
1997.976636	1300.300000
1999.687996	1320.800000
2001.400729	1321.200000
2003.109670	1316.000000
2004.821705	1328.000000
2006.528230	1315.500000
2008.237848	1317.400000
2009.945398	1303.100000
2011.652601	1297.200000
2013.357738	1329.100000
2015.062528	1299.700000
2016.768690	1283.200000
2018.471070	1314.100000
2020.174822	1319.200000
2021.876510	1328.900000
2023.577854	1311.300000
2025.278852	1326.400000
2026.977790	1288.900000
2028.678098	1304.000000
2030.374632	1313.500000
2032.072537	1303.100000
2033.768383	1311.100000
2035.467315	1297.200000
2037.160761	1308.600000
2038.855579	1317.800000
2040.550053	1305.300000
2042.240759	1331.500000
2043.934549	1297.700000
2045.624572	1289.900000
2047.315966	1285.300000
2049.005307	1304.200000
2050.696018	1284.700000
2052.382966	1289.700000
2054.069575	1314.200000
2055.757554	1302.700000
2057.441773	1263.300000
2059.127362	1329.000000
2060.812612	1295.800000
2062.495814	1291.300000
2064.180385	1276.400000
2065.859494	1290.400000
2067.543388	1295.500000
2069.221822	1303.300000
2070.903332	1318.300000
2072.581092	1302.800000
2074.258514	1311.500000
2075.937306	1269.000000
2077.614056	1305.300000
2079.288764	1296.800000
2080.964841	1276.700000
2082.638878	1288.900000
2084.312579	1271.200000
2085.985945	1297.400000
2087.657273	1272.600000
2089.328266	1306.300000
2090.998925	1263.800000
2092.669249	1312.100000
2094.339240	1294.800000
2096.007195	1284.300000
2097.674817	1304.300000
2099.340404	1278.300000
2101.007361	1288.800000
2102.672283	1315.100000
2104.336874	1295.400000
2105.999433	1310.000000
2107.663360	1327.900000
2109.325257	1305.400000
2110.986822	1323.400000
2112.648056	1287.800000
2114.307262	1303.900000
2115.966137	1281.400000
2117.624683	1293.300000
2119.282899	1314.100000
2120.937391	1288.400000
2122.594948	1327.600000
2124.252176	1301.500000
2125.905682	1307.200000
2127.560556	1310.600000
2129.211712	1283.400000
2130.865929	1294.100000
2132.516430	1306.600000
2134.168297	1314.200000
2135.814756	1298.200000
2137.465970	1281.100000
2139.113470	1277.900000
2140.762337	1277.300000
2142.409186	1288.700000
2144.055708	1295.600000
2145.701905	1293.900000
2147.344394	1302.200000
2148.989941	1289.400000
2150.631781	1283.900000
2152.276678	1275.100000
2153.917870	1282.700000
2155.558738	1292.100000
2157.199282	1282.600000
2158.837814	1298.200000
2160.477712	1292.600000
2162.113910	1277.300000
2163.751475	1275.800000
2165.388716	1270.200000
2167.023948	1287.100000
2168.658859	1279.700000
2170.293448	1248.400000
2171.927715	1273.600000
2173.558289	1295.100000
2175.191915	1274.000000
2176.821849	1303.300000
2178.453148	1258.300000
2180.082442	1278.100000
2181.711417	1288.700000
2183.340073	1275.700000
2184.968409	1268.700000
2186.594742	1255.800000
2188.220757	1252.600000
2189.844771	1256.300000
2191.470149	1279.900000
2193.093528	1248.900000
2194.718270	1259.400000
2196.339332	1265.100000
2197.960077	1265.200000
2199.582187	1260.600000
2201.202299	1257.700000
2202.820414	1254.800000
2204.438214	1251.800000
2206.055699	1246.400000
2207.672868	1266.200000
2209.289722	1256.200000
2210.906261	1257.700000
2212.520806	1272.900000
2214.133359	1263.100000
2215.747276	1238.300000
2217.359202	1266.500000
2218.972491	1252.000000
2220.583790	1267.300000
2222.193099	1265.100000
2223.803772	1243.400000
2225.412456	1257.800000
2227.020828	1237.600000
2228.627212	1254.900000
2230.234960	1248.800000
2231.840721	1278.000000
2233.446171	1243.000000
2235.049636	1228.400000
2236.654464	1241.900000
2238.257309	1233.800000
2239.858170	1253.500000
2241.460393	1242.700000
2243.060635	1253.500000
2244.662239	1235.400000
2246.260191	1255.400000
2247.859505	1269.100000
2249.456839	1269.400000
2251.053864	1250.200000
2252.652252	1264.300000
2254.246991	1235.300000
2255.839753	1298.500000
2257.433878	1266.000000
2259.029364	1274.500000
2260.621206	1236.500000
2262.212741	1261.400000
2263.805637	1253.700000
2265.393224	1266.100000
2266.985508	1246.400000
2268.572484	1242.200000
2270.162489	1266.200000
2271.747189	1243.800000
2273.336583	1265.800000
2274.920674	1229.400000
2276.506127	1224.400000
2278.089610	1272.000000
2279.676120	1218.300000
2281.258996	1226.000000
2282.841568	1224.800000
2284.423837	1247.900000
2286.002477	1261.000000
2287.584140	1233.900000
2289.162175	1270.100000
2290.743233	1253.000000
2292.320665	1231.650000
2293.896132	1210.300000
2295.474622	1229.600000
2297.049488	1261.100000
2298.624053	1222.200000
2300.198318	1241.500000
2301.772282	1189.600000
2303.345946	1226.600000
2304.919309	1209.300000
2306.489054	1216.300000
2308.058500	1211.400000
2309.630965	1209.900000
2311.198154	1198.200000
2312.768362	1216.700000
2314.334955	1200.500000
2315.902908	1237.500000
2317.468905	1187.600000
2319.034605	1208.900000
2320.600008	1225.400000
2322.163456	1229.000000
2323.728264	1229.400000
2325.289464	1252.300000
2326.853678	1262.400000
2328.412631	1269.700000
2329.974597	1265.200000
2331.534613	1232.300000
2333.094333	1210.700000
2334.652104	1230.200000
2336.209580	1220.900000
2337.766762	1198.300000
2339.321997	1207.800000
2340.876937	1204.000000
2342.431584	1220.800000
2343.985937	1225.300000
2345.539996	1234.700000
2347.093761	1206.400000
2348.645583	1198.600000
2350.195461	1194.400000
2351.748347	1225.700000
2353.295991	1239.300000
2354.846642	1212.700000
2356.393702	1215.300000
2357.942121	1217.500000
2359.490247	1210.200000
2361.034785	1224.200000
2362.580681	1230.400000
2364.124639	1208.500000
2365.669954	1176.200000
2367.211684	1207.600000
2368.754771	1243.300000
2370.295923	1205.200000
2371.836785	1181.700000
2373.377358	1192.400000
2374.917641	1212.200000
2376.457636	1200.100000
2377.994053	1219.000000
2379.533471	1194.700000
2381.069312	1194.900000
2382.606509	1205.900000
2384.140131	1209.400000
2385.676754	1178.300000
2387.211445	1201.400000
2388.744207	1199.100000
2390.276682	1211.100000
2391.807230	1207.000000
2393.340775	1207.600000
2394.869109	1214.100000
2396.398799	1168.200000
2397.928204	1201.300000
2399.457323	1161.500000
2400.986158	1186.400000
2402.509787	1187.100000
2404.038053	1180.200000
2405.561115	1193.200000
2407.088811	1209.700000
2408.609668	1185.300000
2410.135158	1205.200000
2411.657087	1185.900000
2413.180372	1202.300000
2414.701736	1190.500000
2416.221180	1184.700000
2417.741979	1207.600000
2419.260859	1187.400000
2420.779457	1196.600000
2422.296138	1193.700000
2423.814173	1215.100000
2425.331927	1200.200000
2426.846130	1213.600000
2428.360052	1178.200000
2429.873694	1217.300000
2431.388691	1184.300000
2432.900139	1206.500000
2434.412942	1225.600000
2435.923832	1209.300000
2437.434442	1207.100000
2438.943141	1177.100000
2440.454827	1193.000000
2441.962968	1209.800000
2443.470832	1185.800000
2444.978418	1202.100000
2446.482463	1210.200000
2447.989494	1199.600000
2449.494616	1176.600000
2450.999461	1184.200000
2452.502399	1180.700000
2454.005060	1212.400000
2455.507445	1211.700000
2457.007925	1195.000000
2458.509758	1180.200000
2460.009687	1173.800000
2461.509340	1175.500000
2463.008717	1163.000000
2464.506192	1168.100000
2466.001765	1171.400000
2467.500319	1151.700000
2468.995343	1165.900000
2470.491721	1167.800000
2471.984571	1156.000000
2473.478775	1132.100000
2474.972705	1162.200000
2476.463112	1149.300000
2477.956495	1165.400000
2479.447981	1148.600000
2480.937570	1147.300000
2482.426887	1171.300000
2483.914309	1186.500000
2485.404706	1138.700000
2486.891584	1153.500000
2488.379814	1174.300000
2489.864528	1160.400000
2491.348971	1139.800000
2492.834766	1171.600000
2494.318668	1157.100000
2495.803922	1183.100000
2497.284042	1162.900000
2498.767134	1145.400000
2500.248336	1161.700000
2501.729269	1175.500000
2503.208313	1145.000000
2504.687088	1159.000000
2506.165595	1169.200000
2507.643834	1147.100000
2509.121804	1169.500000
2510.596270	1169.200000
2512.073704	1154.000000
2513.547635	1162.900000
2515.022916	1146.500000
2516.497931	1174.800000
2517.969444	1150.600000
2519.442307	1152.500000
2520.913288	1154.800000
2522.385619	1144.800000
2523.852837	1151.500000
2525.323020	1167.600000
2526.791323	1133.500000
2528.259361	1165.000000
2529.727134	1165.700000
2531.194642	1150.400000
2532.661885	1174.800000
2534.125636	1163.500000
2535.590737	1176.000000
2537.053961	1148.200000
2538.518535	1170.300000
2539.979619	1163.000000
2541.442053	1173.700000
2542.904224	1141.300000
2544.362909	1142.100000
2545.826166	1167.700000
2547.284326	1173.700000
2548.743835	1163.500000
2550.198251	1146.300000
2551.657236	1152.500000
2553.114350	1170.800000
2554.569593	1164.300000
2556.024575	1161.000000
2557.477687	1162.100000
2558.932148	1161.500000
2560.384740	1188.000000
2561.837072	1174.900000
2563.287536	1168.000000
2564.740956	1160.400000
2566.189294	1163.700000
2567.640588	1158.600000
2569.090015	1151.700000
2570.535970	1168.800000
2571.984881	1190.900000
2573.430320	1173.500000
2574.877108	1156.100000
2576.322032	1170.500000
2577.766699	1183.900000
2579.212713	1139.200000
2580.655260	1168.700000
2582.099155	1144.600000
2583.539585	1156.700000
2584.981362	1154.700000
2586.421280	1159.500000
2587.862545	1155.100000
2589.300349	1146.800000
2590.741102	1182.200000
2592.176792	1171.700000
2593.615432	1164.200000
2595.052215	1172.400000
2596.487141	1163.400000
2597.925016	1134.700000
2599.357832	1151.800000
2600.791996	1128.000000
2602.224306	1158.300000
2603.657962	1164.000000
2605.089765	1133.200000
2606.521315	1138.400000
2607.952611	1153.200000
2609.382055	1172.700000
2610.811248	1141.900000
2612.238589	1140.100000
2613.667277	1143.100000
2615.095712	1137.800000
2616.520700	1133.000000
2617.947035	1149.600000
2619.371521	1139.400000
2620.797353	1126.800000
2622.219741	1155.700000
2623.643475	1156.500000
2625.065362	1176.000000
2626.487000	1156.700000
2627.906792	1138.500000
2629.327930	1141.800000
2630.748818	1163.400000
2632.166268	1135.500000
2633.586657	1195.400000
2635.003609	1159.500000
2636.420313	1152.600000
2637.836768	1143.600000
2639.252975	1142.200000
2640.668933	1130.200000
2642.083051	1154.700000
2643.496922	1159.400000
2644.908953	1133.200000
2646.322329	1112.200000
2647.732275	1114.700000
2649.145156	1143.200000
2650.554610	1147.400000
2651.963817	1146.500000
2653.371187	1133.100000
2654.781493	1144.400000
2656.189962	1101.400000
2657.596596	1130.700000
2659.002985	1142.200000
2660.407540	1136.300000
2661.813439	1142.500000
2663.217505	1142.900000
2664.621326	1159.800000
2666.024904	1164.000000
2667.426649	1133.500000
2668.829738	1156.700000
2670.229409	1167.100000
2671.630424	1148.500000
2673.028023	1173.700000
2674.428552	1141.900000
2675.825666	1147.400000
2677.224123	1146.600000
2678.620752	1159.300000
2680.017139	1147.700000
2681.413285	1171.200000
2682.807604	1153.900000
2684.203266	1152.300000
2685.595518	1139.300000
2686.989114	1136.100000
2688.380885	1161.300000
2689.773998	1168.000000
2691.165288	1108.600000
2692.554755	1153.000000
2693.943982	1106.400000
2695.332970	1150.700000
2696.723300	1146.000000
2698.108645	1111.200000
2699.496914	1140.600000
2700.883363	1110.500000
2702.269573	1123.100000
2703.655545	1146.800000
2705.038117	1137.300000
2706.422032	1141.100000
2707.805709	1118.400000
2709.189148	1133.000000
2710.569191	1092.000000
2711.950576	1122.200000
2713.330145	1136.300000
2714.711056	1116.200000
2716.090151	1118.400000
2717.467433	1139.000000
2718.846056	1128.900000
2720.222866	1147.500000
2721.599440	1139.200000
2722.975778	1127.700000
2724.350304	1116.500000
2725.726171	1137.900000
2727.098651	1131.700000
2728.474047	1163.400000
2729.844483	1157.400000
2731.216260	1134.700000
2732.587802	1143.800000
2733.957536	1117.600000
2735.328611	1162.500000
2736.697877	1130.600000
2738.066911	1143.700000
2739.434137	1139.700000
2740.801131	1117.000000
2742.167892	1129.800000
2743.534420	1140.000000
2744.899143	1163.200000
2746.263635	1162.700000
2747.627894	1128.500000
2748.991921	1145.000000
2750.355717	1134.900000
2751.716139	1157.500000
2753.079472	1154.600000
2754.437862	1136.300000
2755.799162	1121.700000
2757.157091	1120.100000
2758.517930	1110.500000
2759.876968	1128.200000
2761.232638	1109.200000
2762.591216	1124.300000
2763.946428	1115.600000
2765.301410	1118.300000
2766.654595	1116.600000
2768.010687	1116.800000
2769.363415	1134.000000
2770.715914	1112.300000
2772.068185	1123.500000
2773.421795	1095.200000
2774.772043	1140.400000
2776.120498	1121.400000
2777.471857	1102.100000
2778.819857	1132.300000
2780.169196	1121.000000
2781.516742	1158.500000
2782.864061	1120.000000
2784.211154	1146.100000
2785.556456	1100.600000
2786.901532	1123.200000
2788.246382	1117.600000
2789.591005	1110.000000
2790.932277	1073.900000
2792.274887	1115.900000
2793.617271	1101.000000
2794.959431	1116.800000
2796.298241	1101.900000
2797.639950	1119.300000
2798.978312	1136.500000
2800.318011	1125.600000
2801.655924	1102.100000
2802.992053	1111.100000
2804.327958	1126.500000
2805.665201	1125.400000
2807.000660	1131.300000
2808.335896	1141.400000
2809.669349	1128.200000
2811.004140	1137.300000
2812.335589	1126.900000
2813.669934	1146.600000
2814.999381	1131.500000
2816.330165	1149.700000
2817.660727	1130.500000
2818.989510	1142.500000
2820.319629	1135.500000
2821.647970	1144.600000
2822.976090	1118.400000
2824.302432	1134.000000
2825.630111	1107.200000
2826.954457	1112.800000
2828.280138	1099.900000
2829.604044	1107.800000
2830.927731	1114.800000
2832.252753	1096.700000
2833.574445	1112.700000
2834.895919	1110.200000
2836.217174	1098.800000
2837.538210	1117.800000
2838.857474	1096.600000
2840.178073	1109.300000
2841.496900	1081.500000
2842.815509	1094.900000
2844.132347	1073.800000
2845.448968	1089.100000
2846.765372	1076.900000
2848.080007	1090.500000
2849.395976	1068.600000
2850.708625	1097.000000
2852.022610	1092.500000
2853.336377	1091.800000
2854.649929	1093.600000
2855.961713	1094.500000
2857.271731	1091.700000
2858.583084	1131.900000
2859.891122	1084.600000
2861.200495	1110.500000
2862.509652	1122.900000
2863.818594	1098.100000
2865.125773	1088.100000
2866.431188	1078.200000
2867.737938	1090.800000
2869.042925	1125.600000
2870.347699	1109.700000
2871.650711	1150.000000
2872.956605	1109.100000
2874.257643	1167.900000
2875.560016	1133.400000
2876.860629	1121.000000
2878.162576	1144.500000
2879.464310	1140.800000
2880.762739	1115.200000
2882.062503	1101.100000
2883.360508	1109.600000
2884.658302	1112.300000
2885.954340	1065.500000
2887.251711	1112.000000
2888.547326	1074.500000
2889.842730	1108.900000
2891.137924	1113.000000
2892.429819	1103.000000
2893.724591	1101.200000
2895.016066	1101.600000
2896.308874	1095.100000
2897.601472	1103.400000
2898.890776	1114.700000
2900.181412	1122.900000
2901.470297	1085.700000
2902.760515	1085.100000
2904.047440	1132.400000
2905.335699	1094.000000
2906.622207	1111.800000
2907.908508	1117.900000
2909.194600	1078.600000
2910.478944	1086.500000
2911.766160	1079.000000
2913.048548	1094.600000
2914.332269	1131.600000
2915.614244	1084.100000
2916.896012	1111.200000
2918.176034	1088.700000
2919.458926	1109.600000
2920.740073	1106.800000
2922.017938	1102.700000
2923.298672	1100.900000
2924.576125	1086.500000
2925.853372	1100.900000
2927.128878	1085.500000
2928.407251	1117.900000
2929.680809	1087.700000
2930.957235	1105.900000
2932.231920	1092.900000
2933.504865	1104.800000
2934.779140	1071.700000
2936.051676	1083.800000
2937.324008	1090.400000
2938.593066	1092.600000
2939.864990	1077.900000
2941.135176	1124.100000
2942.405159	1072.500000
2943.674938	1090.400000
2944.942980	1092.600000
2946.209287	1088.000000
2947.475391	1094.300000
2948.742825	1113.100000
2950.008525	1090.400000
2951.274022	1096.600000
2952.539317	1092.100000
2953.801347	1069.300000
2955.064708	1055.800000
2956.327866	1083.500000
2957.589293	1097.600000
2958.852049	1064.700000
2960.113074	1081.800000
2961.372367	1072.400000
2962.631461	1067.600000
2963.890354	1071.200000
2965.149047	1065.200000
2966.407540	1080.200000
2967.664304	1054.100000
2968.920868	1088.600000
2970.175705	1075.300000
2971.431871	1083.000000
2972.684781	1112.100000
2973.939021	1081.600000
2975.193062	1099.900000
2976.445377	1088.800000
2977.697494	1093.800000
2978.947886	1099.000000
2980.201133	1107.200000
2981.449603	1082.600000
2982.700927	1112.800000
2983.949003	1104.900000
2985.196881	1125.300000
2986.444562	1103.400000
2987.692047	1104.700000
2988.937810	1115.100000
2990.183376	1100.900000
2991.430270	1105.100000
2992.673920	1091.400000
2993.918898	1112.700000
2995.160633	1124.100000
2996.405218	1115.500000
2997.648085	1099.300000
2998.887711	1123.000000
3000.130187	1129.100000
3001.369424	1125.000000
3002.609988	1120.100000
3003.848835	1131.000000
3005.087488	1130.600000
3006.324425	1127.000000
3007.562689	1141.200000
3008.799239	1132.700000
3010.035594	1091.400000
3011.271756	1111.400000
3012.506205	1120.900000
3013.740460	1118.900000
3014.974522	1143.000000
3016.206872	1147.500000
3017.437510	1130.700000
3018.670994	1127.700000
3019.902766	1106.500000
3021.132828	1126.900000
3022.362698	1121.200000
3023.590858	1110.000000
3024.820344	1141.600000
3026.048122	1168.400000
3027.275708	1126.000000
3028.504620	1155.800000
3029.728790	1138.100000
3030.955803	1124.800000
3032.179592	1127.400000
3033.404708	1141.000000
3034.628117	1107.800000
3035.851337	1124.600000
3037.072851	1106.000000
3038.297206	1120.900000
3039.516826	1122.600000
3040.737771	1112.000000
3041.958528	1102.000000
3043.177581	1087.500000
3044.397960	1117.800000
3045.615122	1099.800000
3046.833609	1114.000000
3048.050394	1107.900000
3049.266992	1145.300000
3050.483401	1104.200000
3051.696598	1113.100000
3052.912632	1112.700000
3054.125454	1108.000000
3055.341113	1097.100000
3056.552049	1118.700000
3057.764310	1113.300000
3058.976385	1106.000000
3060.188273	1097.400000
3061.398463	1107.400000
3062.608467	1123.700000
3063.818286	1133.000000
3065.026408	1134.800000
3066.234344	1128.400000
3067.440586	1103.100000
3068.648151	1107.300000
3069.854023	1101.950000
3071.059709	1096.600000
3072.265210	1126.500000
3073.469018	1101.300000
3074.674150	1113.400000
3075.877590	1092.100000
3077.079337	1096.900000
3078.280901	1096.400000
3079.482281	1105.500000
3080.683477	1097.000000
3081.882983	1105.100000
3083.082305	1074.400000
3084.282951	1095.000000
3085.481907	1105.500000
3086.677669	1064.200000
3087.876260	1093.100000
3089.071657	1087.800000
3090.268377	1091.200000
3091.461905	1103.500000
3092.658261	1123.700000
3093.852931	1106.000000
3095.044410	1056.900000
3096.240220	1071.100000
3097.431337	1075.500000
3098.623776	1082.100000
3099.813028	1106.900000
3101.005106	1082.500000
3102.195499	1088.000000
3103.382707	1088.500000
3104.571238	1102.000000
3105.761091	1094.300000
3106.947759	1117.900000
3108.134248	1120.800000
3109.320557	1105.900000
3110.508188	1117.900000
3111.692638	1080.400000
3112.875407	1103.900000
3114.061000	1113.300000
3115.244912	1134.600000
3116.427146	1111.800000
3117.609201	1097.100000
3118.791079	1121.900000
3119.972778	1078.700000
3121.152799	1142.600000
3122.331144	1155.700000
3123.512310	1122.100000
3124.690300	1141.100000
3125.868113	1109.200000
3127.045749	1116.900000
3128.221710	1120.500000
3129.397494	1085.900000
3130.574600	1084.900000
3131.750031	1121.200000
3132.923789	1111.000000
3134.095875	1083.900000
3135.269281	1131.600000
3136.442512	1100.100000
3137.614070	1110.600000
3138.786950	1100.300000
3139.956662	1115.000000
3141.127695	1120.100000
3142.297057	1125.500000
3143.464750	1142.900000
3144.635258	1098.100000
3145.801107	1134.800000
3146.971266	1135.100000
3148.136767	1132.900000
3149.302095	1160.800000
3150.467249	1133.600000
3151.632229	1128.300000
3152.798530	1142.100000
3153.960177	1164.200000
3155.123145	1126.600000
3156.285939	1152.600000
3157.448561	1134.200000
3158.609518	1116.300000
3159.770302	1160.900000
3160.930914	1132.800000
3162.089863	1133.600000
3163.248639	1123.700000
3164.407244	1120.000000
3165.565677	1095.700000
3166.723938	1141.200000
3167.880537	1136.000000
3169.035475	1116.800000
3170.191732	1095.000000
3171.346329	1098.400000
3172.500754	1110.600000
3173.653520	1150.100000
3174.806116	1121.000000
3175.958541	1141.200000
3177.110797	1123.000000
3178.262883	1127.800000
3179.411822	1132.400000
3180.563568	1134.000000
3181.713656	1133.900000
3182.862088	1146.100000
3184.010351	1137.300000
3185.158444	1150.400000
3186.306369	1151.000000
3187.452639	1125.000000
3188.598740	1152.000000
3189.743186	1174.300000
3190.887465	1143.700000
3192.031576	1131.600000
3193.177005	1131.800000
3194.319294	1140.800000
3195.461417	1132.200000
3196.603372	1175.300000
3197.745161	1130.200000
3198.886782	1165.800000
3200.025267	1144.400000
3201.165070	1163.700000
3202.306191	1124.700000
3203.444177	1120.500000
3204.580514	1156.400000
3205.716685	1155.700000
3206.854174	1130.700000
3207.990013	1141.600000
3209.127170	1132.100000
3210.259714	1111.000000
3211.396540	1146.900000
3212.528754	1096.600000
3213.662286	1141.800000
3214.795652	1140.600000
3215.925891	1117.900000
3217.058928	1126.300000
3218.188839	1121.500000
3219.320067	1118.000000
3220.448169	1122.800000
3221.579068	1092.400000
3222.708324	1100.000000
3223.835935	1094.500000
3224.960425	1095.900000
3226.089190	1130.800000
3227.214833	1090.900000
3228.340313	1144.600000
3229.464152	1117.100000
3230.590785	1156.500000
3231.712821	1140.200000
3232.836173	1169.500000
3233.959363	1144.200000
3235.082391	1168.400000
3236.203779	1159.900000
3237.325006	1156.400000
3238.444594	1141.000000
3239.564021	1132.800000
3240.681810	1130.300000
3241.802392	1099.600000
3242.919859	1119.900000
3244.037167	1127.000000
3245.154313	1122.300000
3246.269824	1142.800000
3247.386650	1123.800000
3248.500365	1155.000000
3249.616870	1150.700000
3250.731741	1137.700000
3251.843503	1140.200000
3252.955106	1146.200000
3254.068023	1139.900000
3255.180782	1141.300000
3256.290434	1153.800000
3257.401400	1148.500000
3258.512208	1163.300000
3259.621385	1152.100000
3260.728930	1159.000000
3261.837790	1154.500000
3262.946491	1156.200000
3264.052090	1160.200000
3265.159003	1186.100000
3266.264288	1196.100000
3267.370886	1172.700000
3268.474384	1187.400000
3269.579196	1175.100000
3270.683851	1202.400000
3271.785407	1185.200000
3272.886808	1205.800000
3273.989522	1171.900000
3275.092079	1207.200000
3276.191540	1194.600000
3277.293785	1189.400000
3278.392934	1195.400000
3279.490459	1191.800000
3280.587828	1165.000000
3281.687980	1180.500000
3282.785038	1183.600000
3283.881941	1163.800000
3284.978689	1170.500000
3286.070879	1187.100000
3287.167317	1172.300000
3288.262134	1154.100000
3289.356795	1171.800000
3290.449835	1116.800000
3291.542721	1137.500000
3292.633986	1120.600000
3293.726564	1137.600000
3294.817521	1120.200000
3295.906859	1122.000000
3296.996044	1135.000000
3298.086542	1122.900000
3299.173955	1127.300000
3300.261216	1138.000000
3301.349789	1137.000000
3302.438209	1133.200000
3303.522082	1128.500000
3304.610197	1171.200000
3305.695231	1162.800000
3306.778648	1178.000000
3307.863378	1142.700000
3308.946493	1169.400000
3310.030919	1178.800000
3311.112267	1180.300000
3312.194927	1184.100000
3313.275973	1192.300000
3314.356868	1188.800000
3315.436150	1150.000000
3316.515281	1163.500000
3317.595723	1173.000000
3318.673092	1188.200000
3319.751771	1192.000000
3320.828840	1187.500000
3321.905758	1180.700000
3322.981065	1192.800000
3324.056223	1206.000000
3325.132692	1179.200000
3326.206091	1210.300000
3327.279341	1194.400000
3328.353902	1173.200000
3329.426853	1206.900000
3330.498197	1234.700000
3331.570851	1200.200000
3332.640438	1204.600000
3333.711336	1218.100000
3334.780627	1203.200000
3335.851229	1218.400000
3336.920224	1223.700000
3337.987613	1230.400000
3339.053397	1204.700000
3340.123407	1219.100000
3341.190354	1198.400000
3342.254239	1220.300000
3343.320892	1272.500000
3344.385940	1233.600000
3345.449385	1256.100000
3346.512684	1244.900000
3347.575836	1232.700000
3348.638842	1212.200000
3349.701702	1224.900000
3350.762960	1230.500000
3351.821161	1257.800000
3352.883583	1252.900000
3353.942948	1199.100000
3355.002168	1256.900000
3356.062698	1223.100000
3357.118718	1220.300000
3358.177503	1228.000000
3359.231780	1246.900000
3360.288820	1239.400000
3361.344263	1218.300000
3362.401014	1225.100000
3363.456168	1245.700000
3364.509724	1252.600000
3365.561683	1239.100000
3366.616404	1198.000000
3367.668076	1224.300000
3368.719605	1229.600000
3369.772443	1219.900000
3370.822233	1231.300000
3371.873331	1226.600000
3372.921384	1219.400000
3373.972197	1220.900000
3375.019964	1214.400000
3376.067589	1214.900000
3377.115071	1223.400000
3378.160961	1234.600000
3379.208159	1213.400000
3380.252315	1194.700000
3381.299229	1232.100000
3382.344551	1179.500000
3383.386833	1233.300000
3384.428973	1224.400000
3385.472421	1217.800000
3386.515729	1223.200000
3387.557446	1205.300000
3388.599022	1225.900000
3389.640458	1198.300000
3390.680304	1203.000000
3391.718563	1222.300000
3392.758129	1224.800000
3393.797554	1233.800000
3394.835392	1233.300000
3395.871643	1222.100000
3396.907755	1204.700000
3397.945174	1211.600000
3398.979560	1181.600000
3400.015253	1219.300000
3401.050807	1192.700000
3402.083330	1198.100000
3403.118606	1209.400000
3404.150851	1218.100000
3405.182958	1236.000000
3406.213481	1199.400000
3407.245312	1227.200000
3408.277003	1207.700000
3409.305668	1233.800000
3410.334194	1224.300000
3411.364028	1233.400000
3412.393723	1210.100000
3413.420393	1240.200000
3414.448370	1235.400000
3415.473322	1247.600000
3416.501024	1250.400000
3417.525703	1253.700000
3418.551688	1273.700000
3419.576093	1285.400000
3420.600362	1262.300000
3421.623052	1294.600000
3422.645606	1251.200000
3423.669466	1297.800000
3424.690306	1276.700000
3425.711011	1296.000000
3426.733021	1307.200000
3427.752013	1276.000000
3428.770870	1305.000000
3429.791032	1316.200000
3430.808178	1337.100000
