-118.146553	41.238187
-115.476953	45.817582
-112.810288	48.440110
-110.144375	49.551748
-107.481395	49.598477
-104.816984	49.026274
-102.155504	48.281119
-99.492595	49.891608
-96.834792	52.396503
-94.175560	53.653147
-91.517076	51.306294
-88.861517	52.124476
-86.204528	52.683217
-83.552638	55.616783
-80.899318	56.865734
-78.248917	60.243357
-75.597088	56.882517
-72.950349	55.943357
-70.302180	55.356643
-67.654754	57.786014
-65.010243	60.293007
-62.364302	61.150350
-59.723443	59.027972
-57.081155	62.989510
-54.441776	66.748951
-51.800967	68.207692
-49.160899	70.599301
-46.525904	69.438462
-43.889479	66.227273
-41.255957	70.613986
-38.621007	73.497902
-35.991122	79.409790
-33.357645	87.201399
-30.729230	93.799301
-28.101549	100.580420
-25.472439	75.963636
-22.848386	-116.960140
-20.220744	-817.508392
-17.598155	-2300.113986
-14.976298	-3054.173427
-12.355171	2037.016084
-9.734775	11414.188112
-7.117266	19163.109790
-4.498329	24591.359441
-1.882277	27657.003497
0.733046	28357.213287
3.347641	26693.165734
5.959355	22692.409790
8.572497	16475.992308
11.180605	8533.192308
13.792295	447.037063
16.398954	-4374.517483
19.007041	-2964.676923
21.614404	-184.711189
24.216742	114.320979
26.822658	116.241259
29.423552	107.846853
32.025874	101.265734
34.623179	89.578322
37.224059	81.716783
39.819924	76.036364
42.417218	76.324476
45.013792	76.237063
47.605357	76.982517
50.198350	79.541958
52.788482	79.478322
55.380041	77.496503
57.968742	75.453846
60.558869	75.174126
63.143997	74.874126
65.730553	72.373427
68.316395	70.810490
70.899383	68.750350
73.483797	69.022378
76.061083	66.744755
78.641935	70.058741
81.219938	72.286014
83.797231	70.066434
86.375950	70.583916
88.949687	67.688811
91.524852	66.946154
94.097173	68.615385
96.668786	69.459441
99.237559	71.090210
101.807759	70.603497
104.375120	69.825874
106.943908	71.825175
109.509859	80.139161
112.072975	84.395804
114.639647	91.474126
117.197098	105.952448
119.760234	130.391608
122.318410	179.888112
124.880141	263.141259
127.436915	393.282517
129.995115	583.362238
132.548363	831.018881
135.100913	1124.620280
137.657013	1443.552448
140.208165	1764.876923
142.758620	2064.451748
145.308377	2329.594406
147.855315	2544.376923
150.401558	2698.375524
152.949226	2781.393706
155.496198	2825.988811
158.038235	2840.240559
160.579578	2840.149650
163.120228	2829.530070
165.662304	2812.930070
168.201568	2797.702098
170.738023	2784.766434
173.273788	2780.742657
175.810978	2783.440559
178.347477	2791.451049
180.881170	2795.566434
183.412059	2794.333566
185.942260	2809.436364
188.473887	2821.518881
191.002712	2836.146154
193.528738	2845.941958
196.054078	2854.813287
198.580843	2868.914685
201.104812	2877.465734
203.628096	2886.198601
206.150695	2891.635664
208.670501	2905.583217
211.189623	2916.915385
213.708064	2932.475524
216.227928	2956.976923
218.740791	2968.284615
221.257185	2978.272727
223.772897	2981.123776
226.283719	2983.183217
228.795966	2980.333566
231.305431	2975.448951
233.814216	2972.416783
236.322324	2978.426573
238.831856	2990.591608
241.336507	3000.901399
243.840482	3011.060839
246.345881	3027.499301
248.846405	3033.422378
251.350452	3108.134965
253.847529	3367.542657
256.348129	3830.470629
258.845957	4349.240559
261.343112	4812.690210
263.839594	5133.079021
266.331213	5293.044056
268.826352	5270.297902
271.318724	5083.266434
273.810426	4746.810490
276.299365	4320.604196
278.789727	3879.125175
281.277328	3543.802098
283.762169	3405.832168
286.250525	3407.063636
288.731941	3413.102797
291.216871	3389.460839
293.696956	3331.023077
296.180553	3261.575524
298.659307	3183.381818
301.139484	3118.118881
303.616910	3064.746853
306.093672	3049.085315
308.569770	3087.590909
311.043121	3155.669231
313.515809	3222.626573
315.987836	3287.824476
318.459202	3341.202098
320.927823	3372.466434
323.395785	3394.402797
325.865170	3391.661538
328.329732	3370.423077
330.797798	3334.254545
333.261044	3286.116783
335.723632	3251.914685
338.185564	3240.341958
340.646839	3241.962238
343.105380	3239.905594
345.565343	3241.751748
348.022573	3239.253846
350.479149	3232.850350
352.935071	3232.751049
355.388263	3228.042657
357.842878	3225.104895
360.292691	3224.813986
362.746000	3217.668531
365.194510	3213.972727
367.642370	3204.915385
370.091652	3206.030769
372.536140	3195.630070
374.982050	3190.533566
377.427310	3186.980420
379.869852	3179.978322
382.311746	3171.470629
384.752993	3172.609790
387.191524	3169.183217
389.631476	3168.747552
392.068715	3166.353846
394.503243	3166.487413
396.941258	3171.307692
399.374496	3185.812587
401.809155	3186.805594
404.239042	3200.516783
406.672414	3215.339860
409.101016	3228.365035
411.528976	3233.969930
413.958358	3242.920280
416.382974	3248.144056
418.809012	3251.368531
421.234409	3251.871329
423.659166	3253.390210
426.079165	3258.516783
428.500584	3271.081119
430.919308	3275.713986
433.339452	3286.299301
435.756901	3295.957343
438.175770	3308.130070
440.591946	3310.374825
443.003374	3318.864336
445.418279	3328.902797
447.830495	3336.147552
450.242076	3338.488112
452.653023	3343.858741
455.061284	3343.288112
457.468912	3345.276224
459.875908	3339.042657
462.282273	3333.606993
464.685955	3326.971329
467.089007	3317.760839
469.491429	3305.506993
471.893221	3306.102098
474.292335	3305.834266
476.692869	3310.323077
479.092774	3319.053846
481.487957	3328.703497
483.886606	3335.829371
486.280534	3332.908392
488.673837	3327.436364
491.066515	3326.965734
493.458567	3322.242657
495.852037	3308.300000
498.240795	3293.544056
500.626887	3281.939161
503.014399	3259.326573
505.401288	3238.148951
507.785513	3221.953846
510.171156	3201.420280
512.554138	3177.144056
514.934459	3152.605594
517.316199	3130.242657
519.695280	3124.185315
522.075779	3119.665734
524.453622	3118.569930
526.828808	3118.081119
529.203378	3117.897203
531.579365	3119.559441
533.952700	3114.581119
536.327452	3112.802098
538.697519	3102.212587
541.066970	3094.498601
543.437839	3083.365734
545.804027	3071.378322
548.171634	3067.400699
550.536596	3066.201399
552.900944	3063.193007
555.264679	3060.353147
557.629832	3062.337762
559.990313	3067.479720
562.352212	3064.555245
564.711470	3064.587413
567.068090	3063.667133
569.428156	3068.018881
571.781530	3057.441259
574.138349	3057.125175
576.492533	3059.600000
578.846108	3059.938462
581.199076	3058.774126
583.549411	3052.723077
585.901164	3051.280420
588.246240	3050.776923
590.596779	3050.225175
592.940646	3052.053846
595.289974	3056.555245
597.634653	3068.114685
599.976708	3068.358042
602.320180	3077.387413
604.661029	3082.120979
607.001275	3079.425874
609.338902	3078.697203
611.679963	3070.046853
614.016386	3069.723776
616.354226	3071.172028
618.689449	3073.405594
621.022056	3074.419580
623.356079	3075.079021
625.687488	3085.734266
628.018299	3087.172727
630.348513	3092.186014
632.678128	3095.573427
635.003120	3099.340559
637.333554	3095.955944
639.659367	3099.913986
641.982572	3106.317483
644.307194	3109.936364
646.629210	3109.353147
648.950632	3110.632867
651.269452	3115.267832
653.589687	3117.074825
655.909329	3118.813287
658.226370	3119.246154
660.542819	3127.665035
662.856670	3129.779720
665.171937	3127.117483
667.484607	3132.879720
669.798692	3135.081818
672.108177	3134.600000
674.419078	3132.341958
676.727386	3132.477622
679.035106	3138.232867
681.344240	3130.794406
683.648782	3126.009790
685.952738	3121.093007
688.256108	3123.386713
690.560892	3118.752448
692.861089	3111.918182
695.162702	3105.287413
697.463729	3096.774825
699.760175	3084.288112
702.058036	3074.030769
704.355313	3065.246853
706.652007	3063.507692
708.944125	3052.878322
711.239654	3052.422378
713.530609	3051.660839
715.822979	3057.220979
718.112774	3064.503497
720.401988	3069.981818
722.690623	3080.018881
724.976685	3083.676224
727.264162	3084.172727
729.549067	3094.827273
731.833395	3095.907692
734.115154	3104.154545
736.398327	3104.905594
738.680923	3109.965734
740.958963	3118.258042
743.238418	3125.096503
745.517296	3131.140559
747.795600	3130.064336
750.069354	3136.590210
752.344521	3132.848252
754.619115	3130.516084
756.891150	3133.008392
759.164598	3125.834266
761.435488	3126.727972
763.703822	3120.001399
765.973569	3127.802797
768.240761	3138.168531
770.507384	3146.718182
772.773436	3159.925874
775.036937	3159.755944
777.301851	3168.595804
779.566195	3171.251748
781.826010	3171.967832
784.087237	3171.012587
786.347897	3169.480420
788.606011	3163.295804
790.861580	3157.330769
793.120540	3157.702797
795.373000	3162.753147
797.630828	3161.445455
799.884137	3162.909790
802.134906	3147.746853
804.387087	3151.743357
806.636729	3148.351049
808.887784	3143.911189
811.134327	3142.027273
813.382282	3142.437063
815.627703	3137.813287
817.874535	3139.313986
820.120806	3130.533566
822.362572	3140.913986
824.607722	3131.387413
826.846399	3139.739860
829.088458	3136.461538
831.326019	3143.770629
833.564992	3130.099301
835.801438	3120.286713
838.039295	3118.631469
840.274627	3107.669930
842.507436	3106.525874
844.741656	3102.817483
846.973353	3097.255944
849.204496	3108.852448
851.435084	3111.951748
853.665118	3122.620280
855.894598	3130.186713
858.119596	3133.793007
860.347969	3133.116084
862.571862	3127.544056
864.797167	3137.110490
867.017996	3131.893007
869.242197	3136.360839
871.461925	3123.258042
873.683063	3130.210490
875.903651	3139.558042
878.121730	3146.716783
880.341218	3151.500000
882.556240	3159.274126
884.770714	3153.073427
886.984641	3157.206294
889.198021	3161.319580
891.410853	3167.019580
893.623139	3155.421678
895.832922	3148.457343
898.042160	3133.739860
900.250853	3142.997203
902.457046	3146.083916
904.664650	3151.025175
906.869755	3154.767832
909.074317	3161.867832
911.276384	3165.137063
913.479860	3187.804196
915.680842	3200.418182
917.881282	3194.493706
920.083131	3190.781818
922.278589	3191.220979
924.477406	3184.968531
926.671784	3174.931469
928.869520	3187.004895
931.062820	3187.774825
933.257529	3196.348951
935.449752	3199.980420
937.641436	3210.433566
939.832583	3220.100000
942.021247	3229.793706
944.209375	3231.943357
946.395022	3234.323776
948.584021	3252.381119
950.768597	3258.936364
952.952638	3254.137063
955.140029	3283.783916
957.319116	3286.816084
959.501554	3296.093007
961.683458	3292.285315
963.862887	3302.352448
966.039844	3287.553846
968.218209	3295.038462
970.397981	3295.881119
972.571404	3316.767832
974.748173	3339.032168
976.920535	3344.949650
979.094305	3338.795105
981.263671	3357.155245
983.436381	3379.634266
985.606626	3384.360140
987.776341	3398.177622
989.945529	3412.572028
992.110319	3393.838462
994.278450	3408.891608
996.442186	3411.289510
998.607330	3417.853846
1000.770014	3439.764336
1002.932173	3429.913986
1005.091875	3404.454545
1007.251052	3400.876923
1009.411636	3384.932168
1011.569765	3352.383217
1013.727371	3339.024476
1015.884453	3294.415385
1018.041011	3256.685315
1020.193190	3233.712587
1022.346776	3187.193706
1024.499840	3168.918182
1026.650455	3185.902797
1028.802477	3183.669231
1030.950125	3183.755944
1033.101105	3181.058042
1035.247714	3192.830769
1037.393804	3199.790210
1039.539376	3193.348252
1041.686353	3157.896503
1043.827041	3131.826573
1045.971059	3115.600699
1048.112636	3053.608392
1050.253697	3020.551049
1052.396162	3007.813287
1054.532347	3010.376224
1056.671859	3026.692308
1058.807016	3040.397902
1060.945497	3089.618881
1063.079624	3139.574825
1065.213238	3191.851748
1067.348256	3227.912587
1069.478926	3263.660839
1071.611000	3333.074126
1073.740645	3326.200000
1075.869778	3368.367133
1077.998399	3383.008392
1080.126509	3385.751748
1082.252193	3396.216084
1084.377367	3383.232168
1086.503945	3396.583916
1088.626185	3414.202098
1090.749830	3445.316084
1092.869140	3458.909091
1094.993679	3477.626573
1097.111974	3471.630070
1099.231673	3473.123077
1101.348953	3492.760140
1103.465726	3489.230769
1105.581994	3470.041259
1107.695845	3462.969930
1109.811101	3456.887413
1111.922033	3455.627273
1114.036278	3441.620280
1116.146202	3468.569930
1118.257530	3483.656643
1120.368353	3471.750350
1122.474860	3437.098601
1124.584676	3445.262937
1126.690179	3436.848951
1128.797084	3432.818182
1130.897774	3409.621678
1133.003676	3396.418182
1135.105269	3392.347552
1137.208265	3375.854545
1139.310760	3343.286713
1141.407048	3348.252448
1143.508543	3344.848951
1145.605736	3310.400000
1147.702431	3287.482517
1149.798627	3284.007692
1151.894325	3288.521678
1153.989526	3285.608392
1156.082330	3309.475524
1158.176536	3325.393007
1160.264551	3354.202098
1162.357765	3377.341259
1164.444790	3375.795105
1166.535114	3397.323077
1168.621150	3392.141958
1170.710485	3387.000699
1172.793638	3390.391608
1174.878193	3388.930769
1176.964150	3383.885315
1179.045825	3374.934266
1181.128901	3369.794406
1183.209592	3346.651049
1185.289792	3344.223077
1187.369500	3342.120280
1189.448717	3323.483217
1191.525552	3326.888112
1193.600005	3326.808392
1195.677751	3342.267832
1197.751227	3335.262238
1199.826103	3338.538462
1201.896712	3328.938462
1203.968722	3328.581818
1206.038357	3321.037762
1208.109391	3314.039161
1210.179939	3318.786014
1212.246225	3309.115385
1214.313912	3310.837762
1216.379227	3314.605594
1218.445942	3310.782517
1220.508401	3304.050350
1222.574145	3300.767832
1224.635635	3303.148252
1226.698526	3293.609790
1228.759049	3305.396503
1230.819088	3294.400000
1232.878644	3283.727273
1234.935836	3282.894406
1236.992546	3277.179720
1239.046892	3285.893007
1241.104520	3288.577622
1243.159785	3286.998601
1245.210809	3290.572028
1247.263233	3295.075524
1249.315177	3301.418881
1251.364763	3306.508392
1253.413870	3306.437762
1255.462498	3298.593706
1257.510648	3292.113986
1259.558320	3285.737762
1261.601761	3284.331469
1263.648478	3273.888811
1265.692841	3267.402797
1267.736728	3279.351748
1269.778263	3279.479021
1271.817449	3280.449650
1273.859908	3290.954545
1275.898144	3286.800699
1277.937779	3282.123077
1279.976939	3288.014685
1282.011880	3269.315385
1284.048220	3257.658741
1286.082216	3236.876224
1288.117609	3220.770629
1290.148790	3217.147552
1292.181368	3242.515385
1294.213475	3254.934965
1296.243241	3278.541259
1298.274404	3295.239161
1300.301361	3307.795105
1302.329715	3321.787413
1304.353864	3334.735664
1306.381279	3321.900000
1308.404491	3315.287413
1310.429101	3299.550350
1312.451377	3295.422378
1314.475049	3280.404196
1316.496389	3276.489510
1318.517262	3277.590210
1320.537667	3273.568531
1322.553879	3268.483217
1324.571488	3258.044056
1326.586769	3262.234965
1328.605309	3243.673427
1330.619660	3236.183217
1332.631684	3222.355245
1334.646967	3224.455245
1336.658064	3210.551748
1338.670558	3195.691608
1340.678869	3200.118881
1342.690435	3213.515385
1344.695963	3212.379720
1346.704746	3206.218182
1348.709351	3194.526573
1350.717210	3190.953846
1352.724607	3181.795804
1354.725973	3184.160140
1356.728735	3174.949650
1358.731038	3167.522378
1360.732881	3158.397203
1362.734264	3156.334266
1364.733334	3161.489510
1366.731945	3170.795105
1368.730097	3163.271329
1370.727792	3164.133566
1372.721324	3168.941958
1374.716251	3180.129371
1376.710722	3190.782517
1378.704736	3184.372028
1380.696443	3179.742657
1382.687694	3165.658042
1384.676640	3157.734266
1386.666982	3144.714685
1388.656868	3135.362937
1390.644450	3130.769231
1392.631579	3131.881818
1394.616406	3144.378322
1396.602628	3161.962937
1398.586549	3174.500699
1400.570018	3171.286014
1402.553035	3176.070629
1404.533754	3168.902098
1406.515867	3161.988811
1408.495684	3142.896503
1410.475049	3152.148951
1412.450276	3160.260839
1414.428741	3142.578322
1416.404913	3153.603497
1418.380635	3159.774126
1420.355909	3159.396503
1422.328891	3155.031469
1424.301425	3160.194406
1426.273511	3174.187413
1428.245150	3166.390909
1430.212660	3179.086713
1432.185244	3168.049650
1434.150022	3178.483916
1436.119873	3173.595804
1438.085600	3153.668531
1440.052719	3161.811189
1442.017555	3157.565734
1443.978271	3136.336364
1445.944055	3140.524476
1447.903884	3153.175524
1449.865107	3153.000699
1451.827721	3154.506294
1453.786221	3163.932168
1455.744279	3154.765035
1457.701895	3146.835664
1459.659068	3155.330769
1461.613966	3178.917483
1463.570257	3197.771329
1465.524273	3198.006993
1467.477848	3186.257343
1469.429151	3192.539161
1471.381846	3197.256643
1473.332270	3189.725874
1475.282255	3185.503497
1477.231801	3192.934965
1479.179078	3185.122378
1481.124087	3178.802098
1483.070489	3201.378322
1485.016453	3213.123776
1486.961980	3205.041958
1488.905241	3193.206993
1490.848067	3181.700000
1492.788628	3174.683916
1494.730582	3165.590909
1496.670273	3158.962238
1498.609529	3163.167832
1500.548351	3169.922378
1502.484913	3153.719580
1504.422866	3140.471329
1506.358560	3134.883217
1508.293821	3125.522378
1510.226825	3121.512587
1512.159398	3133.795804
1514.091538	3136.013986
1516.023246	3159.993007
1517.952700	3174.918881
1519.883545	3190.728671
1521.813958	3203.285315
1523.740299	3206.248252
1525.668030	3193.256643
1527.593512	3170.679720
1529.518564	3145.416783
1531.443187	3125.466434
1533.367380	3111.353147
1535.289327	3094.972028
1537.212664	3080.019580
1539.133754	3093.284615
1541.052600	3107.434266
1542.972836	3125.931469
1544.890829	3144.201399
1546.808394	3172.848951
1548.723719	3192.397902
1550.640433	3213.689510
1552.553092	3198.068531
1554.468955	3203.306993
1556.382578	3192.516084
1558.293963	3185.238462
1560.206738	3182.185315
1562.115463	3173.412587
1564.025577	3161.653846
1565.935268	3143.232867
1567.844536	3125.909091
1569.751570	3117.202797
1571.656371	3123.434965
1573.562561	3133.967832
1575.466519	3130.156643
1577.370056	3136.225175
1579.273173	3133.419580
1581.174060	3141.820979
1583.076336	3131.097902
1584.976384	3119.002797
1586.877819	3120.269930
1588.775221	3112.378322
1590.672204	3103.643357
1592.568769	3102.181818
1594.466721	3104.865035
1596.358839	3109.813986
1598.254151	3097.526573
1600.149045	3091.417483
1602.041717	3070.999301
1603.933972	3061.100699
1605.824008	3052.185315
1607.713628	3064.895105
1609.602833	3064.739161
1611.491623	3069.174126
1613.378195	3086.065734
1615.266155	3110.394406
1617.150098	3132.961538
1619.035428	3156.581818
1620.920345	3161.856643
1622.803048	3184.795804
1624.687138	3173.972727
1626.567216	3193.872727
1628.448682	3177.127972
1630.327937	3168.876224
1632.208578	3126.041259
1634.083415	3124.240559
1635.963233	3103.898601
1637.839047	3107.047552
1639.714450	3110.883916
1641.591239	3117.213986
1643.462232	3124.675524
1645.336406	3129.495804
1647.206581	3113.253846
1649.079937	3131.230070
1650.951090	3094.269930
1652.820042	3096.872727
1654.690378	3066.867832
1656.556722	3055.305594
1658.424451	3038.179720
1660.289981	3023.239161
1662.156897	3013.205594
1664.019823	3017.028671
1665.884136	3021.770629
1667.746252	2994.897203
1669.607963	2987.260140
1671.471060	3004.316084
1673.331961	2984.572028
1675.190670	3017.572727
1677.048975	3041.481818
1678.908664	3037.277622
1680.762587	3014.160140
1682.619683	2976.210490
1684.476375	2958.663636
1686.329092	2934.919580
1688.184980	2899.952448
1690.036894	2864.519580
1691.888407	2875.544056
1693.739519	2884.972727
1695.590230	2882.886014
1697.440541	2903.990909
1699.288668	2919.860140
1701.138179	2899.073427
1702.981940	2877.468531
1704.830652	2859.809790
1706.673617	2841.790909
1708.519749	2811.830070
1710.361918	2791.577622
1712.207253	2789.290909
1714.046847	2810.285315
1715.887825	2822.990909
1717.730186	2806.537063
1719.568591	2799.971329
1721.408379	2824.396503
1723.245991	2860.351049
1725.083209	2870.979720
1726.918253	2885.303497
1728.754680	2894.960839
1730.588935	2892.275524
1732.422795	2872.467133
1734.256261	2832.284615
1736.085782	2829.273427
1737.918461	2807.607692
1739.747196	2768.349650
1741.579088	2761.034965
1743.407038	2779.890909
1745.234596	2788.074126
1747.061763	2785.272028
1748.888538	2796.115385
1750.714921	2786.923776
1752.537368	2757.134965
1754.362970	2738.805594
1756.184637	2727.141958
1758.007686	2756.014685
1759.828573	2777.578322
1761.649072	2787.845455
1763.470951	2830.116084
1765.287132	2864.933566
1767.106464	2858.183916
1768.921868	2879.227273
1770.740424	2894.006294
1772.555054	2870.183916
1774.369297	2871.458042
1776.183154	2869.934266
1777.996624	2879.781119
1779.807941	2872.093706
1781.620638	2857.204895
1783.432950	2852.902098
1785.241343	2847.703497
1787.051118	2850.619580
1788.856978	2830.459441
1790.665983	2836.637762
1792.471075	2845.316084
1794.277548	2843.746853
1796.083637	2880.481119
1797.885815	2879.160140
1799.691138	2897.849650
1801.492552	2897.505594
1803.295346	2907.948951
1805.094234	2923.562937
1806.894503	2904.079720
1808.694390	2918.851748
1810.492135	2930.032168
1812.289500	2927.383916
1814.086484	2934.881119
1815.883089	2941.018182
1817.677554	2925.538462
1819.473398	2893.258741
1821.263587	2880.793706
1823.058673	2902.752448
1824.848106	2912.730070
1826.640677	2911.786014
1828.431112	2927.385315
1830.219413	2959.690210
1832.010849	2988.514685
1833.796639	3004.622378
1835.583809	3011.380420
1837.368847	2994.434965
1839.157019	2947.382517
1840.941305	2922.823776
1842.723461	2950.269930
1844.506997	2956.860839
1846.288404	2956.249650
1848.071190	2955.044755
1849.850095	2963.670629
1851.630379	2964.427972
1853.408538	2973.081119
1855.188075	2967.702797
1856.965486	2957.672028
1858.740775	2941.971329
1860.517441	2936.340559
1862.291985	2944.939161
1864.067907	2975.997203
1865.838208	2977.793007
1867.611637	3001.438462
1869.382946	3012.721678
1871.153884	3014.675524
1872.926200	3017.938462
1874.692902	3015.946154
1876.462729	2991.199301
1878.228693	3001.529371
1879.997781	2994.153147
1881.763007	2974.397203
1883.527865	2949.746154
1885.294100	2945.709790
1887.056476	2939.525175
1888.818484	2935.321678
1890.580126	2929.306294
1892.341401	2923.067133
1894.102308	2914.941958
1895.862849	2924.806294
1897.621280	2932.430769
1899.379345	2947.474126
1901.135303	2933.157343
1902.892637	2925.214685
1904.649606	2929.461538
1906.404468	2943.102098
1908.157226	2932.206294
1909.909619	2922.899301
1911.663389	2916.405594
1913.415055	2925.610490
1915.164619	2921.262937
1916.915558	2925.281818
1918.666135	2917.172727
1920.412872	2920.290210
1922.160986	2922.933566
1923.907000	2927.054545
1925.654389	2925.348252
1927.399681	2932.295804
1929.142875	2936.236364
1930.887444	2930.306993
1932.629917	2941.890909
1934.372031	2967.346154
1936.113784	2964.250350
1937.855177	2957.276224
1939.594477	2958.597203
1941.333418	2972.211888
1943.072000	2972.311888
1944.808491	2954.618881
1946.544624	2943.040559
1948.282131	2934.695105
1950.015816	2941.132867
1951.750876	2945.945455
1953.483847	2971.886713
1955.216462	2989.897203
1956.948721	2975.602797
1958.680623	2972.011888
1960.410439	2987.583916
1962.138170	2993.644056
1963.867276	3004.689510
1965.596026	3015.363636
1967.322694	3016.554545
1969.049007	3015.964336
1970.776693	3028.328671
1972.498843	3030.469231
1974.224094	3039.333566
1975.945538	3036.386713
1977.670082	3027.023077
1979.392547	3025.363636
1981.111209	3044.304196
1982.832969	3038.170629
1984.550927	3046.011888
1986.270258	3048.000699
1987.985790	3038.228671
1989.706142	3034.758741
1991.422696	3014.483916
1993.135453	3000.467133
1994.851306	2981.697902
1996.565087	2993.753846
1998.278518	2989.262238
1999.989878	2981.356643
2001.702610	2986.016783
2003.411552	2995.786713
2005.123586	3004.746154
2006.830111	3017.600699
2008.539729	3017.339161
2010.247279	3013.390210
2011.954482	3004.112587
2013.659619	3001.396503
2015.364410	2983.448252
2017.070572	3002.479021
2018.772952	2972.908392
2020.476703	2970.260839
2022.178392	2974.825175
2023.879735	3001.973427
2025.580734	3004.432168
2027.279671	3007.034965
2028.979980	2990.506294
2030.676513	2980.011888
2032.374418	2986.377622
2034.070265	2984.830769
2035.769197	2981.436364
2037.462643	2994.151049
2039.157460	2994.017483
2040.851935	3014.878322
2042.542641	3027.709091
2044.236431	3036.809091
2045.926454	3040.711189
2047.617848	3035.681818
2049.307189	3019.551748
2050.997900	3006.667133
2052.684848	3002.174825
2054.371457	2980.916084
2056.059435	2968.028671
2057.743654	2966.857343
2059.429244	2976.212587
2061.114494	2973.561538
2062.797695	2978.032168
2064.482267	2981.393007
2066.161375	2987.536364
2067.845270	2990.820280
2069.523703	2994.339161
2071.205214	2993.577622
2072.882973	2975.033566
2074.560396	2962.509091
2076.239188	2943.995804
2077.915938	2941.188811
2079.590645	2945.087413
2081.266723	2934.430769
2082.940759	2949.060140
2084.614461	2951.981119
2086.287827	2958.809091
2087.959154	2979.353147
2089.630147	2995.103497
2091.300806	3004.083217
2092.971131	2989.528671
2094.641122	2991.109091
2096.309077	2974.537762
2097.976698	2972.309091
2099.642286	2964.416084
2101.309242	2963.388811
2102.974165	2966.554545
2104.638756	2968.276224
2106.301315	2971.836364
2107.965242	2979.658042
2109.627138	2991.202797
2111.288704	2993.534965
2112.949938	2980.866434
2114.609144	2990.665734
2116.268019	2982.099301
2117.926565	2992.911888
2119.584780	2999.378322
2121.239273	2993.107692
2122.896830	2981.132867
2124.554057	2980.490210
2126.207564	2985.882517
2127.862438	2977.681119
2129.513593	2975.321678
2131.167811	2976.786014
2132.818311	2975.842657
2134.470179	2982.065734
2136.116638	2969.275524
2137.767852	2988.025874
2139.415352	2988.672727
2141.064219	2990.580420
2142.711067	2984.389510
2144.357590	2983.303497
2146.003787	2984.876923
2147.646276	2977.276224
2149.291823	2977.627273
2150.933663	2977.335664
2152.578560	2972.865734
2154.219751	2968.730769
2155.860620	2951.612587
2157.501164	2943.085315
2159.139696	2933.223077
2160.779594	2936.604196
2162.415792	2925.651049
2164.053356	2928.875524
2165.690598	2920.474126
2167.325830	2934.959441
2168.960740	2946.248951
2170.595329	2943.648951
2172.229597	2945.686014
2173.860171	2955.176224
2175.493797	2941.817483
2177.123731	2921.590210
2178.755030	2921.326573
2180.384324	2923.528671
2182.013299	2921.382517
2183.641954	2927.082517
2185.270290	2914.493706
2186.896624	2927.058741
2188.522639	2924.959441
2190.146652	2908.219580
2191.772031	2898.955944
2193.395409	2904.257343
2195.020152	2895.211888
2196.641214	2874.138462
2198.261959	2860.686713
2199.884068	2859.694406
2201.504180	2857.182517
2203.122296	2863.694406
2204.740096	2871.865035
2206.357581	2883.365035
2207.974750	2880.853147
2209.591604	2871.176224
2211.208142	2878.875524
2212.822688	2900.858042
2214.435241	2906.397203
2216.049158	2905.790909
2217.661084	2892.839161
2219.274373	2900.435664
2220.885672	2885.421678
2222.494981	2886.697203
2224.105654	2885.572727
2225.714338	2873.928671
2227.322709	2838.267133
2228.929094	2817.897902
2230.536841	2822.682517
2232.142603	2831.926573
2233.748053	2836.100000
2235.351518	2861.721678
2236.956346	2856.959441
2238.559190	2869.838462
2240.160051	2881.297203
2241.762275	2906.667832
2243.362517	2919.432168
2244.964121	2910.320979
2246.562072	2868.269231
2248.161386	2863.536364
2249.758720	2854.660839
2251.355746	2860.083217
2252.954134	2856.110490
2254.548873	2866.203497
2256.141635	2867.407692
2257.735760	2882.625874
2259.331246	2899.157343
2260.923087	2904.606294
2262.514622	2901.488112
2264.107519	2888.301399
2265.695106	2874.080420
2267.287389	2885.597902
2268.874366	2873.401399
2270.464370	2880.125874
2272.049070	2874.848951
2273.638464	2887.658741
2275.222556	2901.930070
2276.808008	2911.936364
2278.391492	2916.366434
2279.978001	2926.408392
2281.560877	2939.341958
2283.143450	2960.969231
2284.725719	2974.877622
2286.304358	2977.369930
2287.886022	2948.468531
2289.464057	2930.925175
2291.045115	2915.397902
2292.622546	2898.981818
2294.198014	2889.333566
2295.776504	2868.617483
2297.351370	2881.462937
2298.925935	2868.845455
2300.500199	2869.621678
2302.074164	2876.686713
2303.647827	2864.716084
2305.221191	2853.610490
2306.790936	2836.026573
2308.360382	2829.141259
2309.932846	2835.323776
2311.500036	2825.743357
2313.070244	2860.441259
2314.636837	2855.762238
2316.204790	2877.083217
2317.770787	2860.976923
2319.336487	2852.909091
2320.901889	2860.734965
2322.465338	2861.160839
2324.030146	2873.713986
2325.591346	2894.019580
2327.155560	2893.348951
2328.714512	2886.760839
2330.276478	2890.810490
2331.836494	2895.867133
2333.396215	2887.922378
2334.953986	2880.216783
2336.511462	2873.855245
2338.068644	2845.175524
2339.623878	2860.275524
2341.178819	2874.468531
2342.733465	2878.931469
2344.287818	2876.418881
2345.841877	2867.848252
2347.395643	2845.500699
2348.947464	2836.691608
2350.497343	2804.936364
2352.050229	2796.597203
2353.597872	2787.971329
2355.148524	2779.960839
2356.695584	2741.513287
2358.244002	2746.646853
2359.792129	2742.386014
2361.336667	2756.804895
2362.882563	2763.413986
2364.426521	2775.119580
2365.971835	2747.530070
2367.513566	2740.936364
2369.056653	2762.366434
2370.597804	2771.100000
2372.138666	2788.705594
2373.679239	2797.606993
2375.219523	2776.563636
2376.759518	2806.786713
2378.295935	2805.602797
2379.835353	2848.578322
2381.371193	2849.855245
2382.908391	2827.930070
2384.442013	2796.757343
2385.978635	2804.840559
2387.513327	2833.267832
2389.046089	2812.371329
2390.578564	2777.183916
2392.109111	2748.383217
2393.642656	2693.290210
2395.170990	2687.006294
2396.700680	2691.169231
2398.230085	2727.979720
2399.759205	2717.760839
2401.288039	2708.652448
2402.811669	2724.039161
2404.339934	2737.923776
2405.862997	2736.487413
2407.390693	2737.546853
2408.911550	2713.503497
2410.437039	2706.689510
2411.958969	2696.755944
2413.482253	2728.427273
2415.003617	2757.332168
2416.523061	2759.131469
2418.043860	2736.713986
2419.562740	2734.395105
2421.081339	2716.597203
2422.598020	2697.320280
2424.116055	2685.825175
2425.633809	2685.500000
2427.148011	2685.883217
2428.661934	2712.418182
2430.175576	2741.495804
2431.690573	2765.667133
2433.202021	2786.009790
2434.714823	2799.588112
2436.225713	2807.885315
2437.736324	2788.588112
2439.245023	2774.799301
2440.756708	2760.834965
2442.264850	2732.507692
2443.772714	2688.997902
2445.280299	2687.696503
2446.784345	2672.441259
2448.291375	2686.188811
2449.796497	2705.853846
2451.301342	2764.887413
2452.804280	2779.339860
2454.306942	2788.175524
2455.809327	2783.873427
2457.309807	2790.967832
2458.811640	2782.337762
2460.311568	2757.232168
2461.811221	2721.612587
2463.310599	2688.501399
2464.808074	2685.083217
2466.303647	2702.782517
2467.802200	2741.134266
2469.297225	2761.188112
2470.793602	2748.666434
2472.286453	2751.392308
2473.780657	2766.746853
2475.274587	2755.945455
2476.764993	2756.678322
2478.258377	2750.140559
2479.749863	2739.357343
2481.239452	2728.496503
2482.728769	2740.364336
2484.216190	2714.167133
2485.706587	2719.258741
2487.193466	2669.469231
2488.681696	2635.851748
2490.166409	2632.155944
2491.650853	2648.425175
2493.136647	2667.268531
2494.620550	2692.337063
2496.105803	2721.242657
2497.585923	2756.407692
2499.069016	2787.590210
2500.550218	2793.841259
2502.031151	2786.827273
2503.510195	2806.237762
2504.988970	2764.388811
2506.467477	2756.923776
2507.945716	2780.346853
2509.423686	2794.951748
2510.898151	2790.636364
2512.375586	2761.607692
2513.849517	2756.617483
2515.324798	2758.723077
2516.799812	2739.304196
2518.271325	2728.306294
2519.744189	2730.918182
2521.215170	2729.399301
2522.687501	2725.076923
2524.154718	2742.199301
2525.624902	2760.637063
2527.093205	2781.319580
2528.561243	2759.036364
2530.029016	2764.635664
2531.496524	2777.572727
2532.963767	2755.110490
2534.427518	2739.318182
2535.892619	2750.998601
2537.355843	2760.731469
2538.820416	2766.544056
2540.281501	2786.823077
2541.743935	2772.842657
2543.206106	2773.730070
2544.664791	2791.167133
2546.128047	2768.383916
2547.586208	2785.195804
2549.045717	2772.951748
2550.500132	2763.663636
2551.959118	2772.282517
2553.416232	2796.469930
2554.871474	2782.465035
2556.326456	2772.128671
2557.779569	2766.606294
2559.234029	2752.374126
2560.686621	2775.818182
2562.138953	2771.990210
2563.589418	2772.565734
2565.042838	2787.837762
2566.491176	2788.589510
2567.942469	2795.642657
2569.391897	2779.316783
2570.837852	2776.649650
2572.286762	2747.773427
2573.732202	2734.251049
2575.178989	2715.877622
2576.623913	2712.406993
2578.068580	2724.926573
2579.514594	2708.269930
2580.957142	2728.470629
2582.401037	2743.953846
2583.841466	2740.713986
2585.283244	2760.340559
2586.723162	2756.431469
2588.164427	2752.344056
2589.602230	2738.370629
2591.042983	2728.914685
2592.478674	2696.775524
2593.917314	2704.673427
2595.354096	2707.038462
2596.789023	2693.085315
2598.226897	2720.721678
2599.659714	2722.390210
2601.093878	2726.201399
2602.526188	2741.359441
2603.959844	2732.103497
2605.391647	2703.875524
2606.823196	2683.842657
2608.254493	2685.241958
2609.683937	2673.733566
2611.113129	2705.522378
2612.540471	2709.973427
2613.969158	2717.918182
2615.397594	2737.036364
2616.822582	2724.155245
2618.248917	2737.381818
2619.673403	2746.897203
2621.099235	2733.123077
2622.521623	2715.755944
2623.945357	2707.348252
2625.367244	2705.852448
2626.788882	2710.117483
2628.208674	2728.845455
2629.629812	2707.341259
2631.050700	2709.929371
2632.468149	2699.769930
2633.888539	2697.974825
2635.305491	2711.989510
2636.722194	2722.212587
2638.138649	2697.598601
2639.554856	2707.191608
2640.970815	2697.524476
2642.384933	2695.650350
2643.798803	2707.340559
2645.210834	2720.980420
2646.624210	2685.591608
2648.034156	2701.555245
2649.447038	2703.500699
2650.856491	2709.477622
2652.265698	2714.646853
2653.673069	2719.811888
2655.083374	2707.430769
2656.491844	2709.613287
2657.898478	2687.791608
2659.304867	2702.989510
2660.709422	2718.801399
2662.115321	2732.965734
2663.519387	2704.897203
2664.923208	2734.226573
2666.326785	2750.568531
2667.728531	2759.596503
2669.131620	2764.586713
2670.531291	2761.960140
2671.932306	2752.104196
2673.329905	2750.057343
2674.730433	2723.963636
2676.127547	2722.376224
2677.526004	2710.253846
2678.922634	2713.595105
2680.319021	2696.041259
2681.715166	2708.796503
2683.109485	2713.324476
2684.505147	2710.638462
2685.897400	2720.141259
2687.290995	2719.730070
2688.682766	2724.041958
2690.075880	2739.406294
2691.467170	2727.109091
2692.856637	2716.827273
2694.245864	2710.533566
2695.634852	2705.265734
2697.025181	2688.031469
2698.410527	2666.909091
2699.798796	2639.124476
2701.185245	2643.573427
2702.571455	2646.383916
2703.957426	2632.518182
2705.339999	2651.134266
2706.723914	2661.341958
2708.107591	2670.439161
2709.491029	2685.083217
2710.871072	2683.304895
2712.252457	2679.416783
2713.632027	2685.086713
2715.012937	2660.067133
2716.392033	2653.521678
2717.769315	2660.513287
2719.147938	2645.751049
2720.524747	2642.929371
2721.901321	2658.858042
2723.277659	2664.806294
2724.652186	2693.179720
2726.028053	2693.784615
2727.400533	2696.479021
2728.775929	2703.788112
2730.146365	2703.691608
2731.518142	2701.852448
2732.889684	2713.258741
2734.259418	2699.624476
2735.630493	2683.711189
2736.999759	2685.283916
2738.368792	2663.869930
2739.736019	2677.898601
2741.103012	2666.227972
2742.469773	2658.948252
2743.836301	2667.539860
2745.201025	2663.558042
2746.565516	2671.407692
2747.929776	2667.495105
2749.293803	2675.508392
2750.657599	2663.220280
2752.018021	2644.170629
2753.381353	2629.451049
2754.739743	2618.869231
2756.101043	2645.286014
2757.458973	2628.084615
2758.819811	2641.440559
2760.178850	2631.883916
2761.534520	2636.388811
2762.893098	2626.109091
2764.248309	2611.107692
2765.603291	2620.951748
2766.956476	2609.930070
2768.312568	2607.058741
2769.665296	2594.041958
2771.017796	2606.442657
2772.370067	2615.907692
2773.723676	2618.562238
2775.073925	2627.274126
2776.422379	2615.770629
2777.773738	2611.173427
2779.121739	2591.345455
2780.471077	2593.889510
2781.818623	2593.835664
2783.165943	2595.462937
2784.513036	2603.227273
2785.858337	2589.245455
2787.203413	2583.185315
2788.548263	2593.172727
2789.892887	2583.542657
2791.234159	2582.230070
2792.576769	2580.620280
2793.919153	2595.681119
2795.261312	2604.499301
2796.600122	2619.022378
2797.941832	2636.403497
2799.280193	2636.806294
2800.619892	2646.558042
2801.957806	2676.046154
2803.293934	2678.028671
2804.629840	2690.672028
2805.967083	2668.669231
2807.302542	2662.818182
2808.637778	2653.588112
2809.971231	2643.904895
2811.306021	2609.015385
2812.637471	2582.060140
2813.971816	2551.527273
2815.301263	2522.967832
2816.632046	2518.709091
2817.962609	2535.734266
2819.291392	2536.015385
2820.621511	2563.169231
2821.949852	2564.045455
2823.277972	2565.565035
2824.604314	2574.699301
2825.931993	2563.011888
2827.256338	2538.802797
2828.582020	2520.115385
2829.905926	2504.213287
2831.229612	2482.581119
2832.554635	2450.638462
2833.876327	2435.547552
2835.197801	2433.742657
2836.519056	2445.789510
2837.840092	2455.781119
2839.159355	2480.934965
2840.479954	2498.281818
2841.798782	2494.193706
2843.117391	2496.239860
2844.434229	2502.170629
2845.750850	2514.069231
2847.067254	2486.917483
2848.381888	2471.740559
2849.697858	2478.521678
2851.010507	2482.323077
2852.324491	2489.008392
2853.638259	2505.881818
2854.951810	2496.654545
2856.263595	2499.755944
2857.573613	2506.224476
2858.884966	2538.031469
2860.193004	2542.195105
2861.502376	2562.960140
2862.811534	2576.503497
2864.120476	2586.834965
2865.427654	2606.665734
2866.733070	2604.294406
2868.039819	2587.602098
2869.344807	2583.072028
2870.649580	2549.737063
2871.952593	2560.691608
2873.258486	2550.809091
2874.559525	2549.225874
2875.861898	2538.729371
2877.162511	2550.200000
2878.464458	2568.852448
2879.766191	2562.504196
2881.064621	2552.234266
2882.364384	2542.723077
2883.662390	2556.444755
2884.960184	2549.913287
2886.256222	2549.551049
2887.553593	2535.317483
2888.849208	2523.234965
2890.144612	2507.800699
2891.439805	2509.372727
2892.731701	2486.388811
2894.026473	2469.094406
2895.317948	2451.955245
2896.610756	2430.340559
2897.903354	2425.436364
2899.192658	2443.891608
2900.483294	2442.873427
2901.772179	2460.563636
2903.062396	2481.697902
2904.349322	2524.862937
2905.637580	2532.227972
2906.924089	2573.334266
2908.210389	2568.223077
2909.496482	2576.311189
2910.780826	2589.439161
2912.068041	2587.311189
2913.350430	2574.744056
2914.634151	2593.135664
2915.916126	2599.400699
2917.197893	2590.605594
2918.477915	2603.490909
2919.760808	2594.813287
2921.041955	2577.060839
2922.319820	2591.022378
2923.600554	2575.244755
2924.878007	2552.564336
2926.155254	2541.517483
2927.430759	2531.789510
2928.709132	2523.017483
2929.982691	2543.497902
2931.259117	2544.216783
2932.533802	2544.146154
2933.806746	2556.270629
2935.081022	2563.962238
2936.353558	2562.753846
2937.625889	2587.684615
2938.894948	2593.638462
2940.166872	2595.738462
2941.437058	2608.488112
2942.707040	2595.979021
2943.976819	2602.776923
2945.244862	2596.565035
2946.511168	2580.123776
2947.777273	2577.356643
2949.044707	2569.829371
2950.310406	2541.988811
2951.575904	2523.994406
2952.841199	2528.979021
2954.103229	2523.281818
2955.366589	2519.597902
2956.629748	2512.540559
2957.891175	2506.692308
2959.153931	2504.061538
2960.414955	2502.476923
2961.674249	2499.075524
2962.933343	2490.527273
2964.192236	2480.669930
2965.450929	2464.879720
2966.709422	2423.492308
2967.966186	2410.690909
2969.222750	2405.717483
2970.477586	2418.371329
2971.733752	2436.488112
2972.986663	2453.434965
2974.240902	2455.186014
2975.494943	2489.376923
2976.747258	2516.607692
2977.999375	2534.297203
2979.249767	2549.452448
2980.503014	2544.925874
2981.751484	2509.623776
2983.002809	2510.800699
2984.250884	2527.548252
2985.498762	2528.796503
2986.746444	2516.341259
2987.993928	2504.662238
2989.239691	2477.313986
2990.485258	2485.246154
2991.732152	2483.831469
2992.975802	2472.788811
2994.220780	2476.410490
2995.462514	2482.918881
2996.707100	2475.835664
2997.949967	2471.565734
2999.189593	2490.202098
3000.432069	2504.276923
3001.671305	2511.709091
3002.911869	2520.761538
3004.150716	2522.155245
3005.389369	2529.623077
3006.626306	2519.245455
3007.864571	2530.059441
3009.101120	2545.956643
3010.337476	2539.795804
3011.573638	2534.171329
3012.808086	2525.540559
3014.042342	2508.559441
3015.276404	2512.442657
3016.508753	2505.439860
3017.739392	2516.023776
3018.972876	2514.028671
3020.204648	2498.670629
3021.434710	2510.970629
3022.664579	2523.646853
3023.892739	2543.106294
3025.122226	2554.534266
3026.350003	2564.998601
3027.577589	2548.053846
3028.806501	2523.994406
3030.030671	2516.935664
3031.257685	2502.211888
3032.481474	2492.414685
3033.706590	2466.639860
3034.929999	2424.130769
3036.153218	2422.830769
3037.374732	2422.597902
3038.599087	2433.723776
3039.818707	2428.625874
3041.039653	2425.774126
3042.260410	2422.348252
3043.479463	2436.698601
3044.699841	2443.546853
3045.917003	2438.877622
3047.135491	2456.820979
3048.352276	2477.567133
3049.568874	2457.226573
3050.785283	2462.804196
3051.998479	2461.755245
3053.214514	2438.816783
3054.427336	2425.469231
3055.642994	2412.258042
3056.853931	2395.488112
3058.066192	2380.709790
3059.278266	2365.606294
3060.490154	2349.787413
3061.700345	2360.930070
3062.910349	2372.221678
3064.120167	2358.387413
3065.328289	2350.465734
3066.536226	2337.913986
3067.742467	2335.521678
3068.950033	2359.476224
3070.155904	2366.293706
3071.361590	2358.060839
3072.567092	2379.575524
3073.770900	2396.183916
3074.976032	2408.645455
3076.179471	2432.820280
3077.381219	2439.155245
3078.582782	2421.325175
3079.784162	2395.725175
3080.985358	2371.627273
3082.184864	2363.065734
3083.384187	2350.230769
3084.584833	2340.810490
3085.783789	2315.986014
3086.979551	2322.486014
3088.178142	2322.693007
3089.373539	2333.965035
3090.570259	2342.653147
3091.763787	2339.521678
3092.960143	2328.546154
3094.154812	2334.388811
3095.346291	2333.090909
3096.542102	2319.214685
3097.733218	2322.409790
3098.925658	2327.054545
3100.114910	2310.169231
3101.306987	2300.567832
3102.497381	2288.039860
3103.684589	2293.340559
3104.873119	2301.628671
3106.062972	2308.300000
3107.249641	2310.798601
3108.436129	2316.367832
3109.622439	2315.083217
3110.810070	2306.361538
3111.994519	2326.827972
3113.177289	2344.447552
3114.362881	2352.406993
3115.546794	2348.734965
3116.729028	2342.204895
3117.911083	2361.183217
3119.092960	2381.063636
3120.274659	2369.341958
3121.454681	2359.486713
3122.633026	2344.929371
3123.814191	2337.745455
3124.992181	2327.809091
3126.169994	2333.693007
3127.347630	2338.760140
3128.523592	2322.866434
3129.699376	2301.854545
3130.876482	2285.913986
3132.051913	2296.416084
3133.225671	2306.414685
3134.397756	2300.583217
3135.571163	2309.437762
3136.744393	2310.462937
3137.915952	2343.563636
3139.088831	2370.532867
3140.258543	2389.651049
3141.429576	2396.250350
3142.598939	2380.665035
3143.766631	2380.427273
3144.937139	2374.991608
3146.102989	2377.697203
3147.273147	2368.848951
3148.438649	2357.972727
3149.603976	2355.690210
3150.769130	2360.843357
3151.934111	2387.718881
3153.100411	2396.071329
3154.262059	2408.586014
3155.425026	2403.234965
3156.587821	2397.918881
3157.750443	2403.418881
3158.911399	2396.560140
3160.072184	2378.552448
3161.232796	2356.093007
3162.391744	2347.793007
3163.550521	2342.260140
3164.709125	2335.880420
3165.867558	2321.537762
3167.025820	2305.712587
3168.182419	2325.249650
3169.337357	2317.463636
3170.493614	2336.600000
3171.648210	2350.778322
3172.802636	2369.701399
3173.955402	2363.909091
3175.107997	2374.727273
3176.260423	2395.978322
3177.412679	2404.726573
3178.564764	2395.625175
3179.713703	2383.720280
3180.865450	2373.863636
3182.015538	2388.984615
3183.163970	2378.065734
3184.312232	2375.723776
3185.460326	2376.512587
3186.608251	2375.260140
3187.754520	2361.076923
3188.900621	2374.738462
3190.045068	2365.406294
3191.189347	2373.750350
3192.333458	2375.113287
3193.478886	2381.660140
3194.621176	2376.140559
3195.763299	2373.220280
3196.905254	2379.111189
3198.047042	2384.826573
3199.188663	2379.909790
3200.327149	2386.325175
3201.466952	2380.663636
3202.608072	2378.274825
3203.746059	2367.477622
3204.882396	2370.502797
3206.018567	2377.729371
3207.156055	2360.902098
3208.291895	2332.245455
3209.429052	2331.365035
3210.561596	2321.141259
3211.698422	2329.773427
3212.830636	2334.290909
3213.964167	2340.835664
3215.097534	2338.813986
3216.227773	2332.686014
3217.360810	2338.297203
3218.490721	2345.374126
3219.621948	2355.785315
3220.750051	2341.761538
3221.880950	2352.004196
3223.010205	2371.793706
3224.137817	2351.720979
3225.262306	2365.987413
3226.391071	2360.770629
3227.516714	2354.367832
3228.642195	2359.267832
3229.766033	2363.995804
3230.892667	2381.534965
3232.014703	2402.656643
3233.138055	2406.789510
3234.261245	2409.769930
3235.384272	2427.666434
3236.505661	2426.188112
3237.626887	2398.362937
3238.746476	2374.593706
3239.865903	2343.555944
3240.983692	2332.544755
3242.104273	2325.088811
3243.221741	2334.898601
3244.339048	2334.160140
3245.456195	2350.050350
3246.571705	2363.144056
3247.688531	2382.872727
3248.802247	2412.680420
3249.918752	2434.457343
3251.033623	2444.960839
3252.145384	2433.383916
3253.256987	2421.869930
3254.369905	2423.197203
3255.482663	2430.018182
3256.592315	2424.916084
3257.703282	2417.290909
3258.814090	2427.358042
3259.923266	2426.757343
3261.030811	2433.360839
3262.139671	2442.925175
3263.248373	2454.044755
3264.353972	2469.172727
3265.460885	2481.804196
3266.566169	2492.887413
3267.672767	2515.394406
3268.776265	2531.876224
3269.881077	2502.760140
3270.985732	2480.089510
3272.087289	2454.786713
3273.188689	2442.878322
3274.291403	2441.813986
3275.393961	2436.388112
3276.493422	2445.058741
3277.595667	2449.937762
3278.694816	2471.980420
3279.792341	2477.310490
3280.889710	2473.341259
3281.989861	2445.526573
3283.086920	2409.678322
3284.183823	2387.054545
3285.280571	2384.623776
3286.372760	2396.573427
3287.469199	2391.467832
3288.564015	2401.447552
3289.658677	2395.294406
3290.751717	2394.720280
3291.844602	2404.590909
3292.935867	2386.206993
3294.028445	2373.899301
3295.119403	2371.988112
3296.208741	2380.255944
3297.297926	2378.874126
3298.388424	2371.148252
3299.475837	2378.644056
3300.563097	2386.271329
3301.651670	2390.227972
3302.740090	2374.989510
3303.823964	2385.870629
3304.912079	2385.747552
3305.997112	2385.048951
3307.080530	2416.422378
3308.165260	2431.502797
3309.248374	2435.086014
3310.332801	2420.473427
3311.414149	2410.320979
3312.496809	2424.209091
3313.577855	2425.474825
3314.658750	2412.537063
3315.738031	2417.263636
3316.817162	2423.925874
3317.897605	2428.958042
3318.974973	2418.831469
3320.053653	2435.608392
3321.130721	2438.115385
3322.207640	2451.118182
3323.282947	2462.720280
3324.358105	2484.110490
3325.434574	2481.681818
3326.507973	2506.198601
3327.581222	2509.836364
3328.655783	2519.695804
3329.728735	2523.906294
3330.800078	2526.515385
3331.872732	2502.902797
3332.942320	2509.582517
3334.013218	2509.204196
3335.082509	2523.868531
3336.153111	2538.796503
3337.222106	2529.890909
3338.289495	2525.444755
3339.355279	2530.404196
3340.425289	2514.776224
3341.492236	2518.447552
3342.556121	2518.399301
3343.622773	2503.346853
3344.687822	2479.123077
3345.751267	2489.104895
3346.814566	2485.083217
3347.877718	2493.086014
3348.940724	2497.155944
3350.003584	2505.941259
3351.064842	2530.294406
3352.123043	2529.430769
3353.185464	2533.360140
3354.244830	2535.709790
3355.304050	2524.483217
3356.364579	2498.376923
3357.420600	2502.313287
3358.479384	2502.774126
3359.533661	2487.960140
3360.590702	2472.316084
3361.646144	2471.245455
3362.702896	2482.465035
3363.758049	2492.153147
3364.811605	2477.541259
3365.863565	2459.881119
3366.918286	2461.272727
3367.969958	2450.294406
3369.021487	2455.301399
3370.074324	2471.420979
3371.124114	2474.505594
3372.175213	2461.138462
3373.223266	2455.904196
3374.274078	2459.720979
3375.321846	2459.744755
3376.369470	2473.082517
3377.416953	2470.851748
3378.462843	2460.128671
3379.510041	2462.755245
3380.554197	2444.697902
3381.601111	2447.008392
3382.646433	2439.073427
3383.688714	2442.839161
3384.730854	2408.357343
3385.774303	2400.439161
3386.817610	2391.200000
3387.859327	2404.056643
3388.900904	2421.353846
3389.942339	2431.133566
3390.982186	2430.702098
3392.020444	2431.522378
3393.060010	2434.852448
3394.099436	2430.941259
3395.137274	2423.331469
3396.173525	2439.908392
3397.209637	2441.943357
3398.247056	2440.702797
3399.281442	2444.250350
3400.317135	2466.900000
3401.352689	2483.337063
3402.385212	2489.671329
3403.420487	2496.830070
3404.452733	2501.567832
3405.484840	2504.938462
3406.515363	2491.269930
3407.547193	2487.039161
3408.578885	2485.585315
3409.607549	2482.086014
3410.636076	2449.471329
3411.665909	2448.248252
3412.695605	2452.369930
3413.722275	2455.278322
3414.750251	2471.679021
3415.775204	2487.161538
3416.802906	2518.071329
3417.827585	2532.567832
3418.853570	2548.925874
3419.877975	2546.878322
3420.902244	2545.922378
3421.924934	2551.262937
3422.947488	2528.616783
3423.971348	2533.625175
3424.992188	2535.960839
3426.012892	2547.846653
3427.034903	2556.427473
3428.053895	2557.879520
3429.072751	2548.379021
3430.092914	2524.102198
3431.110060	2481.225275
