-118.146553	50.300549
-115.476953	48.718681
-112.810288	48.118382
-110.144375	48.241958
-107.481395	48.831718
-104.816984	49.629970
-102.155504	50.379021
-99.492595	48.553846
-96.834792	46.618881
-94.175560	48.139860
-91.517076	50.628671
-88.861517	49.416783
-86.204528	48.368531
-83.552638	54.645455
-80.899318	53.156643
-78.248917	52.677622
-75.597088	54.253147
-72.950349	57.079720
-70.302180	56.037762
-67.654754	53.323776
-65.010243	54.158042
-62.364302	52.913287
-59.723443	57.923077
-57.081155	57.744755
-54.441776	60.304196
-51.800967	65.448951
-49.160899	65.588811
-46.525904	64.982517
-43.889479	69.751748
-41.255957	78.592308
-38.621007	80.824476
-35.991122	83.403497
-33.357645	92.072727
-30.729230	97.944056
-28.101549	109.759441
-25.472439	86.494406
-22.848386	-98.230070
-20.220744	-804.442657
-17.598155	-2537.879720
-14.976298	-3099.209091
-12.355171	1949.092308
-9.734775	11636.569231
-7.117266	19681.793706
-4.498329	25332.195105
-1.882277	28552.269930
0.733046	29321.574825
3.347641	27653.141259
5.959355	23568.902797
8.572497	17178.815385
11.180605	8946.051049
13.792295	471.018182
16.398954	-4331.474126
19.007041	-3160.225874
21.614404	-207.446853
24.216742	118.179021
26.822658	121.187413
29.423552	118.758042
32.025874	109.183217
34.623179	100.036364
37.224059	91.321678
39.819924	86.567832
42.417218	78.979720
45.013792	72.770629
47.605357	69.270629
50.198350	66.332168
52.788482	64.665734
55.380041	66.972727
57.968742	69.197203
60.558869	68.872727
63.143997	67.000000
65.730553	67.936364
68.316395	68.149650
70.899383	67.921678
73.483797	70.195105
76.061083	70.028671
78.641935	69.162238
81.219938	68.200699
83.797231	70.450350
86.375950	76.200000
88.949687	75.346154
91.524852	73.832867
94.097173	74.546154
96.668786	77.295804
99.237559	77.255944
101.807759	75.197902
104.375120	75.576224
106.943908	78.476224
109.509859	81.228671
112.072975	84.754545
114.639647	93.791608
117.197098	108.337762
119.760234	128.030769
122.318410	173.517483
124.880141	248.494406
127.436915	367.169930
129.995115	542.870629
132.548363	771.791608
135.100913	1039.480420
137.657013	1332.927972
140.208165	1625.772028
142.758620	1899.407692
145.308377	2141.181119
147.855315	2329.497902
150.401558	2468.867133
152.949226	2555.713986
155.496198	2595.369231
158.038235	2607.982517
160.579578	2614.384615
163.120228	2607.387413
165.662304	2591.706993
168.201568	2577.103497
170.738023	2562.387413
173.273788	2550.660839
175.810978	2544.268531
178.347477	2538.705594
180.881170	2540.832867
183.412059	2545.679720
185.942260	2554.900699
188.473887	2567.823776
191.002712	2586.886014
193.528738	2607.479021
196.054078	2619.470629
198.580843	2637.432867
201.104812	2650.279021
203.628096	2659.681818
206.150695	2663.535664
208.670501	2672.276224
211.189623	2678.256643
213.708064	2694.339860
216.227928	2706.268531
218.740791	2712.638462
221.257185	2722.118182
223.772897	2724.410490
226.283719	2717.669231
228.795966	2714.406294
231.305431	2709.786713
233.814216	2708.146853
236.322324	2709.009091
238.831856	2722.334965
241.336507	2733.146853
243.840482	2739.938462
246.345881	2751.517483
248.846405	2752.916084
251.350452	2826.349650
253.847529	3078.081818
256.348129	3532.070629
258.845957	4053.962937
261.343112	4512.162238
263.839594	4834.536364
266.331213	4994.300000
268.826352	4983.190909
271.318724	4799.759441
273.810426	4466.416084
276.299365	4043.262937
278.789727	3591.377622
281.277328	3255.203497
283.762169	3115.162937
286.250525	3109.642657
288.731941	3116.109091
291.216871	3082.483217
293.696956	3022.516783
296.180553	2950.540559
298.659307	2868.744056
301.139484	2799.860140
303.616910	2749.893007
306.093672	2733.448252
308.569770	2758.490909
311.043121	2824.704895
313.515809	2892.447552
315.987836	2954.559441
318.459202	3008.912587
320.927823	3046.230070
323.395785	3066.426573
325.865170	3069.762238
328.329732	3050.739161
330.797798	3021.805594
333.261044	2981.465035
335.723632	2943.727972
338.185564	2925.114685
340.646839	2923.152448
343.105380	2911.597203
345.565343	2900.155944
348.022573	2897.530769
350.479149	2893.678322
352.935071	2891.538462
355.388263	2880.888112
357.842878	2878.252448
360.292691	2874.913287
362.746000	2875.834266
365.194510	2865.737063
367.642370	2864.854545
370.091652	2855.876224
372.536140	2848.679720
374.982050	2841.034965
377.427310	2842.834266
379.869852	2842.482517
382.311746	2833.565734
384.752993	2823.186713
387.191524	2829.128671
389.631476	2832.789510
392.068715	2832.162937
394.503243	2828.246154
396.941258	2834.770629
399.374496	2834.381818
401.809155	2837.990210
404.239042	2839.702797
406.672414	2839.359441
409.101016	2844.640559
411.528976	2845.576224
413.958358	2854.058042
416.382974	2859.404196
418.809012	2866.490909
421.234409	2872.062238
423.659166	2883.974126
426.079165	2900.013287
428.500584	2912.446853
430.919308	2924.369930
433.339452	2937.388112
435.756901	2942.486713
438.175770	2952.427273
440.591946	2958.139161
443.003374	2962.354545
445.418279	2958.985315
447.830495	2962.334965
450.242076	2964.671329
452.653023	2966.970629
455.061284	2970.411888
457.468912	2963.822378
459.875908	2965.231469
462.282273	2964.617483
464.685955	2957.013986
467.089007	2953.032168
469.491429	2942.421678
471.893221	2936.203497
474.292335	2929.448252
476.692869	2933.832168
479.092774	2933.867133
481.487957	2934.771329
483.886606	2936.687413
486.280534	2934.680420
488.673837	2939.916084
491.066515	2939.607692
493.458567	2934.969930
495.852037	2925.132867
498.240795	2907.630070
500.626887	2885.133566
503.014399	2863.787413
505.401288	2845.848951
507.785513	2821.941958
510.171156	2802.813287
512.554138	2779.050350
514.934459	2760.369930
517.316199	2750.511189
519.695280	2741.478322
522.075779	2735.866434
524.453622	2733.521678
526.828808	2730.216783
529.203378	2725.939860
531.579365	2720.580420
533.952700	2717.919580
536.327452	2711.774825
538.697519	2704.707692
541.066970	2689.033566
543.437839	2682.649650
545.804027	2673.627273
548.171634	2661.411888
550.536596	2654.996503
552.900944	2654.353147
555.264679	2649.396503
557.629832	2654.609790
559.990313	2653.900000
562.352212	2658.236364
564.711470	2660.425874
567.068090	2660.399301
569.428156	2659.919580
571.781530	2657.490210
574.138349	2648.325175
576.492533	2644.444755
578.846108	2642.646853
581.199076	2642.085315
583.549411	2636.574126
585.901164	2641.637762
588.246240	2642.427273
590.596779	2645.452448
592.940646	2649.686713
595.289974	2649.251748
597.634653	2656.132867
599.976708	2652.061538
602.320180	2653.511189
604.661029	2651.972727
607.001275	2652.869231
609.338902	2648.334266
611.679963	2645.715385
614.016386	2646.446154
616.354226	2644.734266
618.689449	2642.927972
621.022056	2649.920280
623.356079	2647.806294
625.687488	2653.754545
628.018299	2650.523077
630.348513	2654.555944
632.678128	2652.772028
635.003120	2660.489510
637.333554	2664.794406
639.659367	2678.759441
641.982572	2685.562937
644.307194	2689.267832
646.629210	2691.500699
648.950632	2702.416783
651.269452	2699.390909
653.589687	2696.794406
655.909329	2692.650350
658.226370	2691.960839
660.542819	2686.415385
662.856670	2689.423077
665.171937	2684.513287
667.484607	2687.737762
669.798692	2682.112587
672.108177	2680.283217
674.419078	2684.716084
676.727386	2688.084615
679.035106	2683.459441
681.344240	2682.543357
683.648782	2682.050350
685.952738	2685.639860
688.256108	2681.158042
690.560892	2684.466434
692.861089	2678.559441
695.162702	2675.741259
697.463729	2668.799301
699.760175	2662.075524
702.058036	2654.590909
704.355313	2644.997902
706.652007	2630.965734
708.944125	2622.960839
711.239654	2616.122378
713.530609	2616.563636
715.822979	2627.916783
718.112774	2638.734266
720.401988	2645.388112
722.690623	2657.234965
724.976685	2665.269930
727.264162	2666.118182
729.549067	2665.985315
731.833395	2659.753846
734.115154	2649.716084
736.398327	2640.762937
738.680923	2638.258741
740.958963	2631.795804
743.238418	2648.381818
745.517296	2648.313986
747.795600	2656.459441
750.069354	2675.775524
752.344521	2681.351049
754.619115	2686.465035
756.891150	2688.823776
759.164598	2678.153846
761.435488	2677.210490
763.703822	2674.236364
765.973569	2669.391608
768.240761	2667.584615
770.507384	2675.850350
772.773436	2679.106294
775.036937	2684.953147
777.301851	2696.627273
779.566195	2702.883916
781.826010	2710.127972
784.087237	2715.306294
786.347897	2709.705594
788.606011	2713.757343
790.861580	2714.490210
793.120540	2708.906294
795.373000	2705.188811
797.630828	2701.930070
799.884137	2695.111888
802.134906	2684.556643
804.387087	2683.318182
806.636729	2688.867133
808.887784	2692.228671
811.134327	2695.304196
813.382282	2692.804895
815.627703	2697.267832
817.874535	2699.188811
820.120806	2692.341958
822.362572	2678.713986
824.607722	2679.507692
826.846399	2668.523077
829.088458	2665.413287
831.326019	2663.442657
833.564992	2673.551049
835.801438	2674.027972
838.039295	2672.954545
840.274627	2674.869930
842.507436	2671.959441
844.741656	2667.264336
846.973353	2657.555245
849.204496	2654.439860
851.435084	2660.102797
853.665118	2655.851748
855.894598	2660.196503
858.119596	2658.639161
860.347969	2671.557343
862.571862	2674.932867
864.797167	2675.309790
867.017996	2676.668531
869.242197	2680.860839
871.461925	2678.058042
873.683063	2668.718182
875.903651	2682.288112
878.121730	2682.446853
880.341218	2678.674126
882.556240	2685.989510
884.770714	2691.145455
886.984641	2692.804895
889.198021	2695.045455
891.410853	2690.017483
893.623139	2696.918881
895.832922	2709.028671
898.042160	2709.609790
900.250853	2708.373427
902.457046	2729.571329
904.664650	2724.446853
906.869755	2716.113287
909.074317	2726.760839
911.276384	2720.662937
913.479860	2719.051748
915.680842	2737.793007
917.881282	2736.669930
920.083131	2745.537762
922.278589	2755.676923
924.477406	2763.741259
926.671784	2766.603497
928.869520	2783.728671
931.062820	2771.892308
933.257529	2757.867133
935.449752	2760.602797
937.641436	2757.932168
939.832583	2762.430769
942.021247	2778.373427
944.209375	2777.589510
946.395022	2789.423776
948.584021	2810.796503
950.768597	2821.474825
952.952638	2833.830769
955.140029	2859.058042
957.319116	2863.562238
959.501554	2873.381818
961.683458	2876.182517
963.862887	2872.431469
966.039844	2873.080420
968.218209	2895.949650
970.397981	2899.660839
972.571404	2906.988112
974.748173	2923.325175
976.920535	2936.140559
979.094305	2963.900000
981.263671	2996.572028
983.436381	3004.438462
985.606626	3021.148252
987.776341	3036.424476
989.945529	3053.817483
992.110319	3078.200699
994.278450	3134.708392
996.442186	3138.138462
998.607330	3148.065035
1000.770014	3170.834266
1002.932173	3177.048252
1005.091875	3187.962238
1007.251052	3182.645455
1009.411636	3166.185315
1011.569765	3156.770629
1013.727371	3156.492308
1015.884453	3127.752448
1018.041011	3106.158741
1020.193190	3109.569930
1022.346776	3075.397203
1024.499840	3053.065035
1026.650455	3048.732168
1028.802477	3012.867133
1030.950125	3019.941958
1033.101105	3024.790210
1035.247714	3032.847552
1037.393804	3025.237063
1039.539376	3021.030769
1041.686353	2987.466434
1043.827041	2957.774825
1045.971059	2945.730769
1048.112636	2955.604895
1050.253697	2945.412587
1052.396162	2939.951049
1054.532347	2925.094406
1056.671859	2923.621678
1058.807016	2924.537762
1060.945497	2943.111888
1063.079624	2972.137063
1065.213238	2991.951049
1067.348256	3037.615385
1069.478926	3080.769930
1071.611000	3127.262238
1073.740645	3160.424476
1075.869778	3185.761538
1077.998399	3202.179720
1080.126509	3210.932867
1082.252193	3191.873427
1084.377367	3167.437063
1086.503945	3159.009091
1088.626185	3151.367832
1090.749830	3132.979021
1092.869140	3150.720280
1094.993679	3163.781119
1097.111974	3155.848252
1099.231673	3144.075524
1101.348953	3153.706993
1103.465726	3149.113287
1105.581994	3152.376224
1107.695845	3163.946853
1109.811101	3163.237762
1111.922033	3168.802797
1114.036278	3160.249650
1116.146202	3156.843357
1118.257530	3150.896503
1120.368353	3151.345455
1122.474860	3138.346154
1124.584676	3125.186713
1126.690179	3098.380420
1128.797084	3073.838462
1130.897774	3078.195105
1133.003676	3077.191608
1135.105269	3070.766434
1137.208265	3053.556643
1139.310760	3028.416783
1141.407048	2993.855944
1143.508543	2962.166434
1145.605736	2953.508392
1147.702431	2962.767133
1149.798627	2959.946853
1151.894325	2945.291608
1153.989526	2952.781818
1156.082330	2961.769930
1158.176536	2953.027273
1160.264551	2963.132867
1162.357765	2964.183916
1164.444790	2965.680420
1166.535114	2946.170629
1168.621150	2940.191608
1170.710485	2956.318881
1172.793638	2965.011888
1174.878193	2959.926573
1176.964150	2950.831469
1179.045825	2953.776923
1181.128901	2942.598601
1183.209592	2938.615385
1185.289792	2935.385315
1187.369500	2924.839860
1189.448717	2935.880420
1191.525552	2923.686713
1193.600005	2914.840559
1195.677751	2920.572727
1197.751227	2913.558741
1199.826103	2913.776224
1201.896712	2912.090909
1203.968722	2911.469231
1206.038357	2904.407692
1208.109391	2901.424476
1210.179939	2899.072028
1212.246225	2882.400699
1214.313912	2883.281119
1216.379227	2878.376224
1218.445942	2864.888112
1220.508401	2855.446154
1222.574145	2848.030769
1224.635635	2847.305594
1226.698526	2858.524476
1228.759049	2869.173427
1230.819088	2866.613287
1232.878644	2869.262937
1234.935836	2865.251748
1236.992546	2849.146853
1239.046892	2852.503497
1241.104520	2864.228671
1243.159785	2863.074126
1245.210809	2875.199301
1247.263233	2879.758042
1249.315177	2881.637063
1251.364763	2886.555245
1253.413870	2882.004196
1255.462498	2866.230070
1257.510648	2866.431469
1259.558320	2862.551049
1261.601761	2860.429371
1263.648478	2852.184615
1265.692841	2847.593706
1267.736728	2851.620280
1269.778263	2847.938462
1271.817449	2842.590909
1273.859908	2838.417483
1275.898144	2831.734965
1277.937779	2838.939161
1279.976939	2852.967133
1282.011880	2881.144056
1284.048220	2902.569930
1286.082216	2914.627972
1288.117609	2919.428671
1290.148790	2915.037762
1292.181368	2917.745455
1294.213475	2888.451748
1296.243241	2895.398601
1298.274404	2873.309790
1300.301361	2878.744755
1302.329715	2881.342657
1304.353864	2877.670629
1306.381279	2882.546853
1308.404491	2898.155245
1310.429101	2895.043357
1312.451377	2898.843357
1314.475049	2887.045455
1316.496389	2880.403497
1318.517262	2866.438462
1320.537667	2881.420979
1322.553879	2870.708392
1324.571488	2882.904196
1326.586769	2866.841958
1328.605309	2839.913986
1330.619660	2831.709091
1332.631684	2838.794406
1334.646967	2829.225175
1336.658064	2834.480420
1338.670558	2827.402797
1340.678869	2824.975524
1342.690435	2819.869930
1344.695963	2827.427972
1346.704746	2834.891608
1348.709351	2819.561538
1350.717210	2805.001399
1352.724607	2786.207692
1354.725973	2792.138462
1356.728735	2792.031469
1358.731038	2787.467133
1360.732881	2786.313287
1362.734264	2779.855944
1364.733334	2776.886713
1366.731945	2755.004895
1368.730097	2747.775524
1370.727792	2743.852448
1372.721324	2730.161538
1374.716251	2739.086713
1376.710722	2754.645455
1378.704736	2765.923077
1380.696443	2773.481119
1382.687694	2782.332168
1384.676640	2787.290909
1386.666982	2797.812587
1388.656868	2798.585315
1390.644450	2777.912587
1392.631579	2764.895105
1394.616406	2752.266434
1396.602628	2758.081818
1398.586549	2761.012587
1400.570018	2767.299301
1402.553035	2767.595804
1404.533754	2769.595105
1406.515867	2769.302098
1408.495684	2762.655245
1410.475049	2776.633566
1412.450276	2775.257343
1414.428741	2770.323077
1416.404913	2767.420280
1418.380635	2774.281119
1420.355909	2783.858042
1422.328891	2780.960839
1424.301425	2789.006294
1426.273511	2794.586713
1428.245150	2798.344755
1430.212660	2794.470629
1432.185244	2776.501399
1434.150022	2774.155245
1436.119873	2766.418881
1438.085600	2768.421678
1440.052719	2778.511189
1442.017555	2789.013287
1443.978271	2788.857343
1445.944055	2802.313287
1447.903884	2816.300699
1449.865107	2821.648252
1451.827721	2825.321678
1453.786221	2817.647552
1455.744279	2809.002098
1457.701895	2799.765035
1459.659068	2799.545455
1461.613966	2803.330769
1463.570257	2812.250350
1465.524273	2816.588811
1467.477848	2818.623776
1469.429151	2823.944755
1471.381846	2826.355245
1473.332270	2818.232867
1475.282255	2815.155944
1477.231801	2825.246154
1479.179078	2832.263636
1481.124087	2836.049650
1483.070489	2843.008392
1485.016453	2853.087413
1486.961980	2858.709091
1488.905241	2865.048951
1490.848067	2865.758042
1492.788628	2853.022378
1494.730582	2846.111189
1496.670273	2825.358741
1498.609529	2818.590909
1500.548351	2817.291608
1502.484913	2803.060839
1504.422866	2792.803497
1506.358560	2791.084615
1508.293821	2799.242657
1510.226825	2802.241958
1512.159398	2824.068531
1514.091538	2829.669231
1516.023246	2830.739860
1517.952700	2835.151748
1519.883545	2842.467832
1521.813958	2853.776923
1523.740299	2855.761538
1525.668030	2856.148951
1527.593512	2859.904196
1529.518564	2872.039161
1531.443187	2876.127972
1533.367380	2879.085315
1535.289327	2894.056643
1537.212664	2890.250350
1539.133754	2882.728671
1541.052600	2869.731469
1542.972836	2887.660839
1544.890829	2881.483217
1546.808394	2892.561538
1548.723719	2916.290210
1550.640433	2926.179720
1552.553092	2933.881119
1554.468955	2932.444755
1556.382578	2928.498601
1558.293963	2923.393706
1560.206738	2918.741259
1562.115463	2898.480420
1564.025577	2898.689510
1565.935268	2900.918182
1567.844536	2893.010490
1569.751570	2885.239860
1571.656371	2896.528671
1573.562561	2900.764336
1575.466519	2907.415385
1577.370056	2911.895105
1579.273173	2906.944056
1581.174060	2895.505594
1583.076336	2910.759441
1584.976384	2919.202797
1586.877819	2918.018182
1588.775221	2904.541259
1590.672204	2913.284615
1592.568769	2894.375524
1594.466721	2906.016783
1596.358839	2909.881119
1598.254151	2913.379720
1600.149045	2923.903497
1602.041717	2922.039860
1603.933972	2934.460839
1605.824008	2958.998601
1607.713628	2973.409790
1609.602833	2948.974126
1611.491623	2980.388811
1613.378195	3006.311888
1615.266155	3004.969930
1617.150098	3017.047552
1619.035428	3035.217483
1620.920345	3034.283916
1622.803048	3040.703497
1624.687138	3042.259441
1626.567216	3050.519580
1628.448682	3023.944056
1630.327937	3017.374126
1632.208578	3007.741259
1634.083415	3042.048951
1635.963233	3051.783916
1637.839047	3052.913287
1639.714450	3073.848252
1641.591239	3091.402098
1643.462232	3097.517483
1645.336406	3107.277622
1647.206581	3118.844056
1649.079937	3119.197203
1650.951090	3092.237063
1652.820042	3130.116783
1654.690378	3137.532168
1656.556722	3148.585315
1658.424451	3173.209091
1660.289981	3147.346853
1662.156897	3138.844755
1664.019823	3134.748951
1665.884136	3153.414685
1667.746252	3152.544056
1669.607963	3149.281818
1671.471060	3130.469231
1673.331961	3121.580420
1675.190670	3140.267832
1677.048975	3118.550350
1678.908664	3113.188112
1680.762587	3137.920280
1682.619683	3101.076224
1684.476375	3118.979720
1686.329092	3115.094406
1688.184980	3112.494406
1690.036894	3103.702797
1691.888407	3083.544755
1693.739519	3060.653846
1695.590230	3071.579021
1697.440541	3069.339161
1699.288668	3079.648252
1701.138179	3106.048951
1702.981940	3145.260140
1704.830652	3155.382517
1706.673617	3184.240559
1708.519749	3173.576923
1710.361918	3164.732168
1712.207253	3153.962937
1714.046847	3133.810490
1715.887825	3121.058042
1717.730186	3104.653846
1719.568591	3099.015385
1721.408379	3114.731469
1723.245991	3115.624476
1725.083209	3113.098601
1726.918253	3129.507692
1728.754680	3121.782517
1730.588935	3129.172727
1732.422795	3132.709790
1734.256261	3113.190909
1736.085782	3109.805594
1737.918461	3097.098601
1739.747196	3074.241259
1741.579088	3087.344755
1743.407038	3089.075524
1745.234596	3080.639860
1747.061763	3070.927972
1748.888538	3080.304895
1750.714921	3056.858042
1752.537368	3064.060140
1754.362970	3044.284615
1756.184637	3013.182517
1758.007686	3025.056643
1759.828573	3030.086713
1761.649072	3020.615385
1763.470951	3044.355944
1765.287132	3080.765035
1767.106464	3118.030070
1768.921868	3146.894406
1770.740424	3182.409091
1772.555054	3206.135664
1774.369297	3204.651049
1776.183154	3174.120280
1777.996624	3142.428671
1779.807941	3122.509790
1781.620638	3074.341259
1783.432950	3010.465734
1785.241343	2976.905594
1787.051118	2989.925175
1788.856978	2995.354545
1790.665983	3014.449650
1792.471075	3049.023776
1794.277548	3097.018182
1796.083637	3084.206294
1797.885815	3102.275524
1799.691138	3107.944056
1801.492552	3110.976224
1803.295346	3109.455245
1805.094234	3082.244056
1806.894503	3049.250350
1808.694390	3067.768531
1810.492135	3060.365035
1812.289500	3053.977622
1814.086484	3062.992308
1815.883089	3069.065734
1817.677554	3023.524476
1819.473398	3032.743357
1821.263587	3022.694406
1823.058673	3005.041958
1824.848106	3010.032867
1826.640677	2973.513287
1828.431112	2939.945455
1830.219413	2916.446853
1832.010849	2900.476923
1833.796639	2900.026573
1835.583809	2925.126573
1837.368847	2944.097203
1839.157019	2953.505594
1840.941305	2988.732867
1842.723461	3002.025175
1844.506997	3008.990210
1846.288404	3034.865035
1848.071190	3018.611888
1849.850095	2984.937063
1851.630379	2948.470629
1853.408538	2931.957343
1855.188075	2929.733566
1856.965486	2935.743357
1858.740775	2927.063636
1860.517441	2916.520280
1862.291985	2908.308392
1864.067907	2891.540559
1865.838208	2883.939860
1867.611637	2892.270629
1869.382946	2882.146154
1871.153884	2885.776923
1872.926200	2893.459441
1874.692902	2900.199301
1876.462729	2916.966434
1878.228693	2920.958042
1879.997781	2895.960839
1881.763007	2898.786014
1883.527865	2874.067133
1885.294100	2855.272727
1887.056476	2850.937063
1888.818484	2849.532168
1890.580126	2825.143357
1892.341401	2814.958741
1894.102308	2815.552448
1895.862849	2802.119580
1897.621280	2782.155944
1899.379345	2784.468531
1901.135303	2786.954545
1902.892637	2793.139161
1904.649606	2782.627273
1906.404468	2788.404895
1908.157226	2791.670629
1909.909619	2786.420979
1911.663389	2770.800699
1913.415055	2768.070629
1915.164619	2788.678322
1916.915558	2780.678322
1918.666135	2763.541259
1920.412872	2769.497203
1922.160986	2778.546154
1923.907000	2780.747552
1925.654389	2800.806294
1927.399681	2791.626573
1929.142875	2789.283916
1930.887444	2777.963636
1932.629917	2771.113287
1934.372031	2775.501399
1936.113784	2783.436014
1937.855177	2775.123776
1939.594477	2749.396853
1941.333418	2758.193706
1943.072000	2779.190559
1944.808491	2797.249650
1946.544624	2809.908741
1948.282131	2781.748252
1950.015816	2772.403846
1951.750876	2750.686014
1953.483847	2740.547902
1955.216462	2754.504895
1956.948721	2768.924825
1958.680623	2784.809790
1960.410439	2776.777622
1962.138170	2790.198601
1963.867276	2797.418881
1965.596026	2787.608392
1967.322694	2780.117483
1969.049007	2762.801399
1970.776693	2764.081818
1972.498843	2765.739860
1974.224094	2782.485315
1975.945538	2808.921678
1977.670082	2832.392308
1979.392547	2840.904196
1981.111209	2832.788811
1982.832969	2832.618881
1984.550927	2830.866434
1986.270258	2813.140559
1987.985790	2804.500000
1989.706142	2802.603497
1991.422696	2795.767832
1993.135453	2795.876923
1994.851306	2799.138462
1996.565087	2804.903497
1998.278518	2811.009091
1999.989878	2791.992308
2001.702610	2787.472727
2003.411552	2786.308392
2005.123586	2792.548951
2006.830111	2798.103497
2008.539729	2813.006993
2010.247279	2825.453846
2011.954482	2829.911189
2013.659619	2840.303497
2015.364410	2838.478322
2017.070572	2840.532867
2018.772952	2821.323776
2020.476703	2791.872028
2022.178392	2779.555944
2023.879735	2773.124476
2025.580734	2775.859441
2027.279671	2789.312587
2028.979980	2814.717483
2030.676513	2822.239161
2032.374418	2826.871329
2034.070265	2815.578322
2035.769197	2796.734266
2037.462643	2794.843357
2039.157460	2786.803497
2040.851935	2795.423077
2042.542641	2795.818881
2044.236431	2795.058042
2045.926454	2799.162238
2047.617848	2810.806294
2049.307189	2823.173427
2050.997900	2812.449650
2052.684848	2795.930070
2054.371457	2784.579021
2056.059435	2782.815385
2057.743654	2781.388811
2059.429244	2784.198601
2061.114494	2778.170629
2062.797695	2771.175524
2064.482267	2766.807692
2066.161375	2780.562937
2067.845270	2779.104895
2069.523703	2776.134266
2071.205214	2768.316084
2072.882973	2771.775524
2074.560396	2780.018881
2076.239188	2776.104196
2077.915938	2775.211189
2079.590645	2774.598601
2081.266723	2770.176923
2082.940759	2772.790210
2084.614461	2775.414685
2086.287827	2787.804196
2087.959154	2772.904895
2089.630147	2765.299301
2091.300806	2758.828671
2092.971131	2755.406993
2094.641122	2748.305594
2096.309077	2745.258042
2097.976698	2733.677622
2099.642286	2732.572028
2101.309242	2744.188811
2102.974165	2738.041958
2104.638756	2747.451748
2106.301315	2747.454545
2107.965242	2758.889510
2109.627138	2771.004196
2111.288704	2784.892308
2112.949938	2794.251748
2114.609144	2792.528671
2116.268019	2777.230769
2117.926565	2765.381119
2119.584780	2766.849650
2121.239273	2768.267133
2122.896830	2771.187413
2124.554057	2769.532168
2126.207564	2775.711888
2127.862438	2789.945455
2129.513593	2797.874825
2131.167811	2801.987413
2132.818311	2801.228671
2134.470179	2806.855944
2136.116638	2791.728671
2137.767852	2803.923077
2139.415352	2804.488112
2141.064219	2802.809091
2142.711067	2807.686014
2144.357590	2797.697203
2146.003787	2795.913986
2147.646276	2769.765734
2149.291823	2764.686014
2150.933663	2754.719580
2152.578560	2737.789510
2154.219751	2743.148252
2155.860620	2744.141259
2157.501164	2758.670629
2159.139696	2764.409790
2160.779594	2761.954545
2162.415792	2769.543357
2164.053356	2769.260839
2165.690598	2767.954545
2167.325830	2752.895804
2168.960740	2744.131469
2170.595329	2729.539860
2172.229597	2716.301399
2173.860171	2718.320280
2175.493797	2724.053846
2177.123731	2734.359441
2178.755030	2738.658741
2180.384324	2735.914685
2182.013299	2747.101399
2183.641954	2747.702797
2185.270290	2767.476224
2186.896624	2769.158741
2188.522639	2763.218881
2190.146652	2754.714685
2191.772031	2752.471329
2193.395409	2741.428671
2195.020152	2752.769930
2196.641214	2763.896503
2198.261959	2758.239860
2199.884068	2756.240559
2201.504180	2746.922378
2203.122296	2735.330769
2204.740096	2743.539860
2206.357581	2745.158042
2207.974750	2728.778322
2209.591604	2719.056643
2211.208142	2722.566434
2212.822688	2724.444755
2214.435241	2726.147552
2216.049158	2711.611189
2217.661084	2709.777622
2219.274373	2708.967832
2220.885672	2690.600000
2222.494981	2708.720979
2224.105654	2723.381119
2225.714338	2737.360839
2227.322709	2746.970629
2228.929094	2780.231469
2230.536841	2790.125874
2232.142603	2781.276224
2233.748053	2764.662238
2235.351518	2750.760839
2236.956346	2758.769231
2238.559190	2735.098601
2240.160051	2704.392308
2241.762275	2710.700699
2243.362517	2702.404895
2244.964121	2700.813986
2246.562072	2711.225874
2248.161386	2741.745455
2249.758720	2754.139161
2251.355746	2771.925175
2252.954134	2791.727972
2254.548873	2807.868531
2256.141635	2812.076224
2257.735760	2785.963636
2259.331246	2763.469930
2260.923087	2755.274825
2262.514622	2754.422378
2264.107519	2750.713986
2265.695106	2753.223077
2267.287389	2788.033566
2268.874366	2810.081818
2270.464370	2841.645455
2272.049070	2849.018182
2273.638464	2856.506993
2275.222556	2847.107692
2276.808008	2844.564336
2278.391492	2836.704196
2279.978001	2838.938462
2281.560877	2851.441958
2283.143450	2847.151748
2284.725719	2846.872727
2286.304358	2874.783217
2287.886022	2892.046154
2289.464057	2912.880420
2291.045115	2916.727972
2292.622546	2926.768531
2294.198014	2933.586713
2295.776504	2957.116084
2297.351370	2946.362937
2298.925935	2935.644056
2300.500199	2915.417483
2302.074164	2888.818182
2303.647827	2872.884615
2305.221191	2885.402098
2306.790936	2871.171329
2308.360382	2839.788112
2309.932846	2851.507692
2311.500036	2858.131469
2313.070244	2873.540559
2314.636837	2877.498601
2316.204790	2863.507692
2317.770787	2883.097902
2319.336487	2875.905594
2320.901889	2896.616783
2322.465338	2932.049650
2324.030146	2953.820280
2325.591346	2952.479021
2327.155560	2948.297203
2328.714512	2961.646154
2330.276478	2937.607692
2331.836494	2923.023776
2333.396215	2892.127273
2334.953986	2884.592308
2336.511462	2877.757343
2338.068644	2848.299301
2339.623878	2864.705594
2341.178819	2891.669231
2342.733465	2888.937762
2344.287818	2918.344056
2345.841877	2934.144056
2347.395643	2947.048252
2348.947464	2962.825175
2350.497343	2961.638462
2352.050229	2952.067133
2353.597872	2958.193706
2355.148524	2941.853846
2356.695584	2941.847552
2358.244002	2933.599301
2359.792129	2943.303497
2361.336667	2957.002098
2362.882563	2976.348252
2364.426521	2974.747552
2365.971835	2983.872727
2367.513566	2980.590909
2369.056653	2969.869231
2370.597804	2952.241958
2372.138666	2928.807692
2373.679239	2892.329371
2375.219523	2865.218881
2376.759518	2836.137063
2378.295935	2840.295105
2379.835353	2846.942657
2381.371193	2840.666434
2382.908391	2849.614685
2384.442013	2864.400000
2385.978635	2868.966434
2387.513327	2912.447552
2389.046089	2912.558741
2390.578564	2917.546154
2392.109111	2906.746154
2393.642656	2917.918881
2395.170990	2917.397203
2396.700680	2922.717483
2398.230085	2920.923077
2399.759205	2911.372028
2401.288039	2935.818182
2402.811669	2941.888811
2404.339934	2945.256643
2405.862997	2982.824476
2407.390693	2955.930769
2408.911550	2973.367832
2410.437039	2962.146853
2411.958969	2971.776224
2413.482253	2961.616783
2415.003617	2955.620979
2416.523061	2951.769231
2418.043860	2957.032867
2419.562740	2978.979021
2421.081339	2975.001399
2422.598020	2959.753846
2424.116055	2947.597203
2425.633809	2914.696503
2427.148011	2931.895105
2428.661934	2919.786014
2430.175576	2915.096503
2431.690573	2912.021678
2433.202021	2934.262238
2434.714823	2958.508392
2436.225713	2999.593007
2437.736324	2982.745455
2439.245023	2965.384615
2440.756708	2927.018881
2442.264850	2890.769231
2443.772714	2868.634965
2445.280299	2866.492308
2446.784345	2869.912587
2448.291375	2854.730769
2449.796497	2860.716783
2451.301342	2884.272727
2452.804280	2872.437063
2454.306942	2887.192308
2455.809327	2856.051748
2457.309807	2832.281818
2458.811640	2797.453846
2460.311568	2785.718182
2461.811221	2773.695804
2463.310599	2774.804895
2464.808074	2809.068531
2466.303647	2784.330070
2467.802200	2781.695105
2469.297225	2777.159441
2470.793602	2755.446154
2472.286453	2755.595804
2473.780657	2761.517483
2475.274587	2758.477622
2476.764993	2772.522378
2478.258377	2779.356643
2479.749863	2792.381818
2481.239452	2793.174825
2482.728769	2798.587413
2484.216190	2768.166434
2485.706587	2751.901399
2487.193466	2746.224476
2488.681696	2750.288811
2490.166409	2746.472028
2491.650853	2763.876224
2493.136647	2769.448951
2494.620550	2791.021678
2496.105803	2791.706993
2497.585923	2803.248951
2499.069016	2794.453147
2500.550218	2797.304895
2502.031151	2797.449650
2503.510195	2763.090210
2504.988970	2744.859441
2506.467477	2727.332168
2507.945716	2715.025175
2509.423686	2706.479720
2510.898151	2713.344755
2512.375586	2746.843357
2513.849517	2751.232168
2515.324798	2758.115385
2516.799812	2770.013287
2518.271325	2780.800000
2519.744189	2779.397203
2521.215170	2767.286713
2522.687501	2751.483217
2524.154718	2746.365734
2525.624902	2753.401399
2527.093205	2775.569930
2528.561243	2779.432867
2530.029016	2803.112587
2531.496524	2809.629371
2532.963767	2794.527273
2534.427518	2770.850350
2535.892619	2745.503497
2537.355843	2743.762238
2538.820416	2739.955944
2540.281501	2750.746853
2541.743935	2757.813986
2543.206106	2760.600699
2544.664791	2771.062238
2546.128047	2752.186713
2547.586208	2798.783916
2549.045717	2809.190210
2550.500132	2811.748951
2551.959118	2804.510490
2553.416232	2790.896503
2554.871474	2800.451748
2556.326456	2786.409790
2557.779569	2790.642657
2559.234029	2754.719580
2560.686621	2724.950350
2562.138953	2695.966434
2563.589418	2685.930070
2565.042838	2691.450350
2566.491176	2685.072727
2567.942469	2709.053846
2569.391897	2717.101399
2570.837852	2720.577622
2572.286762	2719.402098
2573.732202	2706.410490
2575.178989	2691.357343
2576.623913	2666.330070
2578.068580	2650.227972
2579.514594	2649.536364
2580.957142	2655.088112
2582.401037	2666.632867
2583.841466	2675.527273
2585.283244	2679.817483
2586.723162	2699.841958
2588.164427	2693.083217
2589.602230	2692.811189
2591.042983	2692.243357
2592.478674	2670.514685
2593.917314	2650.767832
2595.354096	2643.560839
2596.789023	2652.689510
2598.226897	2657.859441
2599.659714	2659.412587
2601.093878	2652.144056
2602.526188	2641.269231
2603.959844	2660.810490
2605.391647	2634.558741
2606.823196	2624.286713
2608.254493	2616.777622
2609.683937	2598.685315
2611.113129	2585.558741
2612.540471	2579.915385
2613.969158	2583.990210
2615.397594	2577.220979
2616.822582	2588.134266
2618.248917	2593.145455
2619.673403	2587.895105
2621.099235	2598.567832
2622.521623	2575.553147
2623.945357	2570.937063
2625.367244	2564.217483
2626.788882	2555.581119
2628.208674	2549.583916
2629.629812	2568.800000
2631.050700	2592.118182
2632.468149	2591.782517
2633.888539	2611.599301
2635.305491	2613.180420
2636.722194	2611.051748
2638.138649	2624.338462
2639.554856	2630.465734
2640.970815	2633.433566
2642.384933	2623.215385
2643.798803	2619.201399
2645.210834	2638.416084
2646.624210	2649.958042
2648.034156	2643.055944
2649.447038	2619.241259
2650.856491	2605.677622
2652.265698	2580.046853
2653.673069	2574.857343
2655.083374	2593.523776
2656.491844	2591.374825
2657.898478	2624.807692
2659.304867	2633.448951
2660.709422	2646.188811
2662.115321	2665.844056
2663.519387	2636.244056
2664.923208	2638.886713
2666.326785	2600.633566
2667.728531	2567.972028
2669.131620	2552.360839
2670.531291	2546.311189
2671.932306	2544.820280
2673.329905	2547.992308
2674.730433	2592.472028
2676.127547	2614.318881
2677.526004	2634.260839
2678.922634	2647.983916
2680.319021	2634.197902
2681.715166	2634.057343
2683.109485	2607.311888
2684.505147	2580.883916
2685.897400	2579.888811
2687.290995	2565.398601
2688.682766	2565.071329
2690.075880	2562.924476
2691.467170	2570.346154
2692.856637	2582.438462
2694.245864	2570.488112
2695.634852	2557.667832
2697.025181	2546.283916
2698.410527	2547.910490
2699.798796	2548.764336
2701.185245	2546.037762
2702.571455	2550.425175
2703.957426	2555.386014
2705.339999	2570.803497
2706.723914	2585.625175
2708.107591	2587.915385
2709.491029	2591.943357
2710.871072	2572.702098
2712.252457	2570.555245
2713.632027	2569.825175
2715.012937	2579.029371
2716.392033	2559.341259
2717.769315	2561.175524
2719.147938	2538.179720
2720.524747	2526.758042
2721.901321	2554.749650
2723.277659	2571.819580
2724.652186	2559.686014
2726.028053	2573.690210
2727.400533	2586.832168
2728.775929	2603.695804
2730.146365	2599.034266
2731.518142	2602.691608
2732.889684	2585.934965
2734.259418	2581.948252
2735.630493	2554.689510
2736.999759	2532.199301
2738.368792	2548.749650
2739.736019	2523.620280
2741.103012	2520.589510
2742.469773	2538.008392
2743.836301	2544.384615
2745.201025	2561.295804
2746.565516	2547.877622
2747.929776	2549.436364
2749.293803	2562.669930
2750.657599	2551.113986
2752.018021	2542.744056
2753.381353	2547.509091
2754.739743	2554.523077
2756.101043	2552.723077
2757.458973	2557.886014
2758.819811	2545.730769
2760.178850	2506.470629
2761.534520	2510.686713
2762.893098	2469.807692
2764.248309	2476.861538
2765.603291	2463.924476
2766.956476	2439.727972
2768.312568	2448.902797
2769.665296	2472.372028
2771.017796	2489.677622
2772.370067	2503.916783
2773.723676	2500.551049
2775.073925	2504.221678
2776.422379	2489.910490
2777.773738	2517.962937
2779.121739	2515.567832
2780.471077	2537.385315
2781.818623	2504.374126
2783.165943	2481.221678
2784.513036	2466.966434
2785.858337	2454.964336
2787.203413	2441.276923
2788.548263	2413.772028
2789.892887	2406.826573
2791.234159	2423.998601
2792.576769	2444.511189
2793.919153	2464.204196
2795.261312	2477.063636
2796.600122	2489.171329
2797.941832	2475.735664
2799.280193	2466.361538
2800.619892	2472.804895
2801.957806	2477.620280
2803.293934	2449.073427
2804.629840	2430.670629
2805.967083	2420.709091
2807.302542	2431.630769
2808.637778	2442.514685
2809.971231	2434.416783
2811.306021	2457.932168
2812.637471	2472.988811
2813.971816	2490.163636
2815.301263	2501.014685
2816.632046	2528.710490
2817.962609	2527.551748
2819.291392	2498.486713
2820.621511	2490.527972
2821.949852	2473.272727
2823.277972	2467.853846
2824.604314	2445.079720
2825.931993	2422.160140
2827.256338	2426.011888
2828.582020	2405.596503
2829.905926	2406.687413
2831.229612	2394.766434
2832.554635	2399.674825
2833.876327	2389.479021
2835.197801	2393.394406
2836.519056	2416.622378
2837.840092	2433.269930
2839.159355	2468.967133
2840.479954	2482.966434
2841.798782	2477.002098
2843.117391	2472.504196
2844.434229	2466.898601
2845.750850	2466.206294
2847.067254	2445.433566
2848.381888	2432.907692
2849.697858	2419.468531
2851.010507	2423.025175
2852.324491	2412.377622
2853.638259	2415.555245
2854.951810	2437.334266
2856.263595	2419.520979
2857.573613	2393.813986
2858.884966	2392.716783
2860.193004	2388.724476
2861.502376	2391.946154
2862.811534	2412.362937
2864.120476	2424.898601
2865.427654	2449.637762
2866.733070	2475.977622
2868.039819	2479.779021
2869.344807	2483.014685
2870.649580	2463.151049
2871.952593	2461.231469
2873.258486	2461.904895
2874.559525	2451.100000
2875.861898	2424.669930
2877.162511	2416.513287
2878.464458	2429.406993
2879.766191	2432.502797
2881.064621	2416.326573
2882.364384	2400.037063
2883.662390	2371.990909
2884.960184	2338.089510
2886.256222	2329.388112
2887.553593	2367.800000
2888.849208	2383.751049
2890.144612	2397.124476
2891.439805	2404.571329
2892.731701	2409.591608
2894.026473	2430.412587
2895.317948	2428.001399
2896.610756	2399.751049
2897.903354	2379.037762
2899.192658	2358.926573
2900.483294	2347.780420
2901.772179	2350.669930
2903.062396	2389.351049
2904.349322	2407.162238
2905.637580	2422.090210
2906.924089	2422.240559
2908.210389	2428.482517
2909.496482	2415.794406
2910.780826	2395.997203
2912.068041	2408.887413
2913.350430	2401.879720
2914.634151	2387.909790
2915.916126	2394.397203
2917.197893	2414.416084
2918.477915	2441.439161
2919.760808	2454.510490
2921.041955	2462.449650
2922.319820	2466.252448
2923.600554	2458.205594
2924.878007	2436.943357
2926.155254	2433.041259
2927.430759	2440.916084
2928.709132	2415.388112
2929.982691	2398.641259
2931.259117	2407.641958
2932.533802	2404.649650
2933.806746	2404.693706
2935.081022	2402.351748
2936.353558	2409.776923
2937.625889	2408.082517
2938.894948	2400.437063
2940.166872	2393.174825
2941.437058	2384.351748
2942.707040	2357.587413
2943.976819	2350.899301
2945.244862	2345.145455
2946.511168	2352.353846
2947.777273	2345.055245
2949.044707	2367.718182
2950.310406	2373.772028
2951.575904	2407.873427
2952.841199	2409.265035
2954.103229	2421.372727
2955.366589	2403.409091
2956.629748	2399.873427
2957.891175	2385.484615
2959.153931	2378.979720
2960.414955	2366.955944
2961.674249	2355.022378
2962.933343	2337.980420
2964.192236	2337.999301
2965.450929	2334.017483
2966.709422	2344.189510
2967.966186	2347.184615
2969.222750	2356.685315
2970.477586	2342.903497
2971.733752	2355.364336
2972.986663	2348.581818
2974.240902	2354.858042
2975.494943	2363.528671
2976.747258	2340.748252
2977.999375	2334.041259
2979.249767	2342.364336
2980.503014	2365.325175
2981.751484	2379.889510
2983.002809	2394.242657
2984.250884	2379.255245
2985.498762	2372.985315
2986.746444	2365.832867
2987.993928	2355.122378
2989.239691	2369.588811
2990.485258	2373.904895
2991.732152	2359.961538
2992.975802	2355.527273
2994.220780	2360.767832
2995.462514	2372.888112
2996.707100	2380.962238
2997.949967	2401.472727
2999.189593	2388.784615
3000.432069	2379.700000
3001.671305	2360.843357
3002.911869	2362.520280
3004.150716	2380.663636
3005.389369	2369.228671
3006.626306	2369.935664
3007.864571	2356.995804
3009.101120	2335.742657
3010.337476	2341.037063
3011.573638	2341.564336
3012.808086	2353.948252
3014.042342	2349.059441
3015.276404	2337.048252
3016.508753	2333.921678
3017.739392	2341.809790
3018.972876	2346.574126
3020.204648	2338.014685
3021.434710	2355.304196
3022.664579	2341.374825
3023.892739	2340.726573
3025.122226	2331.673427
3026.350003	2321.576923
3027.577589	2324.286713
3028.806501	2327.853846
3030.030671	2323.351748
3031.257685	2314.638462
3032.481474	2310.450350
3033.706590	2283.607692
3034.929999	2269.004196
3036.153218	2275.570629
3037.374732	2286.902098
3038.599087	2292.302098
3039.818707	2279.522378
3041.039653	2287.283217
3042.260410	2301.813287
3043.479463	2302.301399
3044.699841	2304.040559
3045.917003	2297.091608
3047.135491	2279.601399
3048.352276	2266.995804
3049.568874	2270.833566
3050.785283	2282.562937
3051.998479	2275.527972
3053.214514	2271.980420
3054.427336	2276.632168
3055.642994	2276.955944
3056.853931	2258.574126
3058.066192	2238.118881
3059.278266	2231.769231
3060.490154	2208.933566
3061.700345	2183.068531
3062.910349	2186.814336
3064.120167	2183.769231
3065.328289	2177.102448
3066.536226	2177.931469
3067.742467	2186.856993
3068.950033	2187.579021
3070.155904	2195.807343
3071.361590	2184.085315
3072.567092	2200.274476
3073.770900	2202.654545
3074.976032	2171.478671
3076.179471	2160.791608
3077.381219	2161.318531
3078.582782	2150.839161
3079.784162	2146.463636
3080.985358	2128.156643
3082.184864	2127.693007
3083.384187	2119.356643
3084.584833	2151.286014
3085.783789	2145.274126
3086.979551	2164.792308
3088.178142	2158.411888
3089.373539	2151.862937
3090.570259	2156.015385
3091.763787	2162.650350
3092.960143	2150.387413
3094.154812	2144.132168
3095.346291	2132.591608
3096.542102	2151.811189
3097.733218	2140.897203
3098.925658	2161.865734
3100.114910	2151.668531
3101.306987	2142.128671
3102.497381	2135.946853
3103.684589	2149.452448
3104.873119	2141.530070
3106.062972	2134.669930
3107.249641	2123.169930
3108.436129	2129.429371
3109.622439	2131.517483
3110.810070	2142.152448
3111.994519	2140.131469
3113.177289	2150.914685
3114.362881	2152.785315
3115.546794	2137.344755
3116.729028	2168.293706
3117.911083	2189.711888
3119.092960	2188.227273
3120.274659	2179.439161
3121.454681	2180.371329
3122.633026	2182.939161
3123.814191	2174.702797
3124.992181	2178.066434
3126.169994	2178.441259
3127.347630	2178.549650
3128.523592	2178.653846
3129.699376	2173.365035
3130.876482	2197.109790
3132.051913	2196.087413
3133.225671	2179.347552
3134.397756	2157.320979
3135.571163	2158.109790
3136.744393	2167.356643
3137.915952	2168.797902
3139.088831	2179.597902
3140.258543	2191.173427
3141.429576	2199.827972
3142.598939	2212.262238
3143.766631	2204.618182
3144.937139	2203.242657
3146.102989	2201.968531
3147.273147	2177.702098
3148.438649	2169.341958
3149.603976	2181.636364
3150.769130	2183.088811
3151.934111	2179.873427
3153.100411	2194.370629
3154.262059	2204.232867
3155.425026	2224.608392
3156.587821	2225.888112
3157.750443	2202.122378
3158.911399	2194.669930
3160.072184	2171.305594
3161.232796	2153.210490
3162.391744	2145.707692
3163.550521	2142.913986
3164.709125	2133.439860
3165.867558	2137.816084
3167.025820	2145.118881
3168.182419	2150.049650
3169.337357	2161.265035
3170.493614	2149.966434
3171.648210	2118.058042
3172.802636	2135.958741
3173.955402	2130.866434
3175.107997	2150.250350
3176.260423	2151.906294
3177.412679	2160.368531
3178.564764	2180.382517
3179.713703	2182.253846
3180.865450	2187.868531
3182.015538	2187.603497
3183.163970	2191.617483
3184.312232	2189.799301
3185.460326	2176.752448
3186.608251	2202.176923
3187.754520	2204.760140
3188.900621	2207.844056
3190.045068	2212.053846
3191.189347	2221.187413
3192.333458	2226.500699
3193.478886	2212.025874
3194.621176	2219.200699
3195.763299	2207.941958
3196.905254	2210.341958
3198.047042	2203.838462
3199.188663	2193.661538
3200.327149	2196.902098
3201.466952	2206.123077
3202.608072	2208.677622
3203.746059	2208.892308
3204.882396	2201.955245
3206.018567	2187.511888
3207.156055	2166.311189
3208.291895	2165.597902
3209.429052	2139.829371
3210.561596	2131.461538
3211.698422	2137.518182
3212.830636	2144.316783
3213.964167	2176.843357
3215.097534	2182.553147
3216.227773	2180.439161
3217.360810	2180.149650
3218.490721	2171.060839
3219.621948	2165.647552
3220.750051	2140.318881
3221.880950	2118.607692
3223.010205	2108.881818
3224.137817	2112.331469
3225.262306	2130.083916
3226.391071	2143.593007
3227.516714	2163.051748
3228.642195	2155.925175
3229.766033	2161.030070
3230.892667	2164.397203
3232.014703	2167.204196
3233.138055	2158.913287
3234.261245	2137.354545
3235.384272	2120.665734
3236.505661	2149.410490
3237.626887	2137.206993
3238.746476	2126.953147
3239.865903	2126.655245
3240.983692	2119.227972
3242.104273	2125.769930
3243.221741	2135.781119
3244.339048	2153.434266
3245.456195	2176.151748
3246.571705	2179.550350
3247.688531	2191.948252
3248.802247	2211.576923
3249.918752	2233.542657
3251.033623	2217.251748
3252.145384	2215.700000
3253.256987	2202.612587
3254.369905	2199.728671
3255.482663	2213.423077
3256.592315	2212.265734
3257.703282	2212.692308
3258.814090	2219.086713
3259.923266	2207.393706
3261.030811	2209.188811
3262.139671	2222.020979
3263.248373	2234.627972
3264.353972	2252.550350
3265.460885	2245.609091
3266.566169	2231.281818
3267.672767	2246.872028
3268.776265	2243.623776
3269.881077	2228.295804
3270.985732	2216.575524
3272.087289	2226.871329
3273.188689	2209.848252
3274.291403	2194.558042
3275.393961	2201.483217
3276.493422	2208.946154
3277.595667	2216.999301
3278.694816	2209.541958
3279.792341	2195.220280
3280.889710	2187.982517
3281.989861	2176.765734
3283.086920	2177.602797
3284.183823	2166.151049
3285.280571	2176.937762
3286.372760	2169.618881
3287.469199	2169.916084
3288.564015	2202.183217
3289.658677	2220.907692
3290.751717	2216.665734
3291.844602	2222.506993
3292.935867	2193.995804
3294.028445	2178.652448
3295.119403	2156.835664
3296.208741	2143.115385
3297.297926	2125.620280
3298.388424	2112.963636
3299.475837	2116.034965
3300.563097	2140.705594
3301.651670	2161.633566
3302.740090	2169.810490
3303.823964	2172.711189
3304.912079	2197.795105
3305.997112	2187.683217
3307.080530	2203.520280
3308.165260	2191.991608
3309.248374	2205.616084
3310.332801	2197.420979
3311.414149	2187.586713
3312.496809	2185.033566
3313.577855	2179.608392
3314.658750	2184.523776
3315.738031	2202.707692
3316.817162	2212.118182
3317.897605	2225.979021
3318.974973	2223.646853
3320.053653	2233.704895
3321.130721	2229.530769
3322.207640	2252.851748
3323.282947	2264.988811
3324.358105	2294.195105
3325.434574	2292.083217
3326.507973	2297.756643
3327.581222	2321.803497
3328.655783	2326.723077
3329.728735	2313.873427
3330.800078	2315.647552
3331.872732	2296.412587
3332.942320	2281.368531
3334.013218	2282.369930
3335.082509	2292.341259
3336.153111	2317.346853
3337.222106	2327.761538
3338.289495	2313.902797
3339.355279	2311.825874
3340.425289	2308.506294
3341.492236	2290.721678
3342.556121	2284.430769
3343.622773	2276.780420
3344.687822	2265.306294
3345.751267	2265.904895
3346.814566	2265.909790
3347.877718	2267.382517
3348.940724	2283.103497
3350.003584	2265.416084
3351.064842	2247.318182
3352.123043	2253.425175
3353.185464	2245.379021
3354.244830	2245.944056
3355.304050	2257.070629
3356.364579	2253.610490
3357.420600	2258.206993
3358.479384	2262.797902
3359.533661	2268.976224
3360.590702	2282.108392
3361.646144	2290.660140
3362.702896	2284.979021
3363.758049	2284.669930
3364.811605	2304.180420
3365.863565	2297.401399
3366.918286	2296.445455
3367.969958	2282.736364
3369.021487	2258.239860
3370.074324	2234.359441
3371.124114	2239.248951
3372.175213	2232.473427
3373.223266	2234.679021
3374.274078	2231.067832
3375.321846	2229.290210
3376.369470	2233.820979
3377.416953	2247.655944
3378.462843	2247.402797
3379.510041	2243.646154
3380.554197	2252.320979
3381.601111	2261.737762
3382.646433	2257.388811
3383.688714	2287.546853
3384.730854	2281.923077
3385.774303	2283.900000
3386.817610	2284.965035
3387.859327	2278.804895
3388.900904	2276.726573
3389.942339	2258.921678
3390.982186	2236.925874
3392.020444	2232.584615
3393.060010	2251.594406
3394.099436	2248.234965
3395.137274	2241.906993
3396.173525	2273.581818
3397.209637	2272.552448
3398.247056	2271.323776
3399.281442	2272.383217
3400.317135	2275.092308
3401.352689	2264.931469
3402.385212	2252.137762
3403.420487	2253.511888
3404.452733	2261.542657
3405.484840	2256.168531
3406.515363	2262.658741
3407.547193	2276.534266
3408.578885	2297.344056
3409.607549	2295.893007
3410.636076	2294.855944
3411.665909	2285.051049
3412.695605	2302.088811
3413.722275	2299.363636
3414.750251	2306.285315
3415.775204	2294.330769
3416.802906	2265.113986
3417.827585	2252.386014
3418.853570	2256.532168
3419.877975	2246.113986
3420.902244	2231.687413
3421.924934	2246.684615
3422.947488	2245.193706
3423.971348	2243.713287
3424.992188	2257.426573
3426.012892	2256.155644
3427.034903	2256.374550
3428.053895	2260.182418
3429.072751	2269.678372
3430.092914	2286.961538
3431.110060	2314.131044
