-117.384298	13.172527
-114.714698	10.693407
-112.048033	10.467532
-109.382120	11.922877
-106.719139	14.487413
-104.054729	17.589111
-101.393249	20.655944
-98.730339	21.022378
-96.072537	22.832867
-93.413304	20.658741
-90.754821	18.997902
-88.099261	16.400000
-85.442273	18.579021
-82.790382	16.835664
-80.137062	17.545455
-77.486662	16.143357
-74.834832	18.241958
-72.188093	16.580420
-69.539924	15.727972
-66.892499	12.193706
-64.247987	13.854545
-61.602047	15.537063
-58.961188	16.083916
-56.318900	17.802098
-53.679520	21.412587
-51.038712	18.978322
-48.398644	19.727273
-45.763648	15.046154
-43.127224	14.576923
-40.493702	13.326573
-37.858752	16.996503
-35.228867	16.834266
-32.595390	23.983916
-29.966975	30.713287
-27.339293	33.472727
-24.710184	25.534965
-22.086131	-26.541259
-19.458489	-237.616783
-16.835900	-709.748951
-14.214043	-555.293007
-11.592916	732.476923
-8.972519	3277.034965
-6.355010	5502.770629
-3.736073	7061.955245
-1.120022	7939.764336
1.495301	8130.837762
4.109897	7638.633566
6.721610	6478.608392
9.334752	4689.943357
11.942860	2418.154545
14.554550	165.788811
17.161209	-968.767832
19.769296	-904.544755
22.376659	-140.550350
24.978997	16.204196
27.584913	21.790210
30.185807	22.400699
32.788129	19.055245
35.385434	18.737063
37.986314	17.435664
40.582180	16.618182
43.179473	13.506294
45.776047	14.293706
48.367612	12.672727
50.960605	13.502797
53.550737	15.610490
56.142297	19.148951
58.730997	19.481818
61.321124	23.376224
63.906253	23.074126
66.492808	26.259441
69.078650	26.166434
71.661638	26.934266
74.246052	20.255944
76.823338	18.804196
79.404190	13.602797
81.982193	14.325874
84.559486	14.618182
87.138205	15.222378
89.711943	15.159441
92.287107	18.528671
94.859428	19.118182
97.431041	23.269231
99.999814	23.399301
102.570014	24.718182
105.137376	22.571329
107.706163	24.981119
110.272114	23.420979
112.835230	27.311189
115.401902	27.217483
117.959353	32.890210
120.522489	43.276923
123.080666	59.794406
125.642396	88.958741
128.199170	140.072727
130.757371	217.281119
133.310619	325.337063
135.863168	462.732168
138.419268	616.479720
140.970421	778.948951
143.520875	948.595804
146.070632	1104.540559
148.617571	1237.636364
151.163813	1347.029371
153.711481	1416.372727
156.258453	1452.583217
158.800490	1469.793007
161.341833	1469.809091
163.882483	1466.300699
166.424559	1458.005594
168.963823	1437.783217
171.500279	1421.350350
174.036043	1412.032867
176.573233	1403.201399
179.109732	1395.511189
181.643425	1398.315385
184.174315	1389.714685
186.704516	1383.544755
189.236142	1379.976923
191.764967	1378.981818
194.290993	1385.202797
196.816333	1382.074126
199.343099	1380.360140
201.867067	1375.707692
204.390351	1371.090210
206.912950	1369.065035
209.432756	1365.721678
211.951879	1360.754545
214.470319	1356.806993
216.990183	1352.137762
219.503046	1352.654545
222.019440	1353.382517
224.535152	1358.186713
227.045974	1358.306294
229.558222	1367.788112
232.067686	1366.809091
234.576472	1369.869930
237.084580	1376.856643
239.594111	1380.932867
242.098762	1386.165734
244.602738	1398.111888
247.108137	1404.860839
249.608661	1418.776923
252.112708	1433.457343
254.609785	1451.409091
257.110384	1472.039860
259.608212	1496.804895
262.105367	1516.607692
264.601849	1550.218182
267.093468	1589.065035
269.588607	1625.831469
272.080980	1673.106294
274.572682	1718.992308
277.061620	1744.983217
279.551983	1759.576224
282.039583	1844.183916
284.524425	2175.692308
287.012780	3041.562937
289.494196	4573.527273
291.979126	6472.918182
294.459211	8211.227273
296.942808	9441.324476
299.421562	10015.025874
301.901740	9904.854545
304.379165	9121.082517
306.855927	7748.881818
309.332026	5977.240559
311.805376	4129.375524
314.278064	2599.744755
316.750091	1726.718182
319.221457	1520.969930
321.690079	1611.295804
324.158041	1678.572028
326.627425	1686.588112
329.091987	1662.145455
331.560053	1630.116084
334.023299	1600.454545
336.485887	1575.407692
338.947819	1561.204196
341.409094	1554.662937
343.867635	1553.291608
346.327598	1548.537063
348.784828	1541.004196
351.241404	1532.027273
353.697326	1527.419580
356.150519	1521.903497
358.605133	1515.823776
361.054946	1510.516783
363.508255	1505.022378
365.956766	1487.861538
368.404626	1473.320280
370.853907	1458.253147
373.298395	1450.713287
375.744305	1437.354545
378.189566	1420.740559
380.632107	1413.355944
383.074001	1407.481818
385.515248	1402.747552
387.953779	1398.354545
390.393732	1395.497902
392.830971	1392.655944
395.265498	1384.318182
397.703513	1380.065734
400.136751	1383.467832
402.571411	1386.626573
405.001297	1390.312587
407.434669	1390.662937
409.863271	1397.894406
412.291232	1401.519580
414.720613	1409.335664
417.145229	1413.758042
419.571267	1417.221678
421.996664	1421.104196
424.421421	1424.217483
426.841420	1426.763636
429.262840	1437.616783
431.681563	1436.972727
434.101707	1446.601399
436.519156	1449.854545
438.938025	1459.658042
441.354201	1461.046154
443.765630	1464.766434
446.180535	1468.697203
448.592750	1474.505594
451.004331	1480.362238
453.415278	1479.636364
455.823539	1480.895804
458.231167	1485.864336
460.638164	1481.165734
463.044528	1485.381818
465.448210	1481.299301
467.851262	1477.379720
470.253684	1467.838462
472.655477	1460.596503
475.054591	1454.101399
477.455125	1449.776224
479.855030	1444.080420
482.250212	1435.804196
484.648861	1429.124476
487.042790	1426.266434
489.436093	1412.800000
491.828770	1399.090210
494.220822	1378.433566
496.614292	1349.388112
499.003051	1326.200000
501.389143	1298.734266
503.776654	1270.595804
506.163543	1250.406993
508.547768	1233.227972
510.933412	1217.967133
513.316393	1208.541958
515.696714	1204.127273
518.078454	1196.366434
520.457535	1193.056643
522.838035	1190.179720
525.215877	1184.818182
527.591064	1185.955245
529.965633	1185.250350
532.341621	1187.474126
534.714955	1194.681119
537.089707	1199.253147
539.459774	1204.372727
541.829225	1213.563636
544.200094	1217.951049
546.566283	1228.797902
548.933890	1236.608392
551.298851	1243.256643
553.663199	1254.252448
556.026935	1260.276224
558.392088	1272.094406
560.752568	1284.558042
563.114467	1291.212587
565.473726	1294.360140
567.830346	1294.582517
570.190411	1290.578322
572.543786	1285.063636
574.900605	1281.473427
577.254788	1270.983916
579.608364	1261.546154
581.961331	1253.563636
584.311667	1242.464336
586.663419	1237.771329
589.008495	1227.167832
591.359035	1210.654545
593.702901	1197.927273
596.052229	1179.555944
598.396909	1161.475524
600.738963	1143.388112
603.082435	1128.572727
605.423284	1114.353147
607.763531	1102.686014
610.101157	1090.576923
612.442218	1086.031469
614.778641	1079.539860
617.116481	1075.581818
619.451704	1069.688112
621.784311	1068.516783
624.118334	1067.165734
626.449744	1067.104895
628.780555	1063.234266
631.110768	1064.135664
633.440383	1061.695105
635.765376	1062.211888
638.095810	1058.140559
640.421622	1056.346853
642.744828	1046.469231
645.069449	1047.897203
647.391465	1043.081119
649.712888	1042.023776
652.031707	1043.986014
654.351942	1044.212587
656.671584	1046.183217
658.988625	1051.299301
661.305074	1056.586713
663.618925	1061.058741
665.934192	1065.297902
668.246862	1068.597902
670.560947	1065.556643
672.870432	1069.967133
675.181333	1067.595804
677.489641	1064.383217
679.797361	1062.462238
682.106496	1060.120979
684.411038	1059.872028
686.714993	1061.344056
689.018363	1057.924476
691.323147	1055.173427
693.623345	1055.659441
695.924957	1051.879720
698.225985	1048.537762
700.522430	1044.347552
702.820291	1046.043357
705.117568	1048.928671
707.414262	1052.327972
709.706380	1057.836364
712.001909	1067.092308
714.292865	1073.429371
716.585235	1077.112587
718.875029	1081.798601
721.164243	1089.934965
723.452878	1096.326573
725.738941	1102.710490
728.026417	1104.841958
730.311322	1108.439860
732.595650	1111.225874
734.877409	1109.798601
737.160582	1108.021678
739.443178	1107.917483
741.721219	1105.648252
744.000673	1104.330070
746.279552	1101.802797
748.557855	1105.390210
750.831609	1104.669930
753.106777	1107.816084
755.381371	1102.902797
757.653405	1100.788112
759.926853	1097.373427
762.197743	1093.969930
764.466077	1091.672028
766.735824	1095.377622
769.003017	1098.462937
771.269639	1103.681119
773.535691	1112.362238
775.799192	1118.562937
778.064106	1125.343357
780.328450	1133.032867
782.588265	1131.625874
784.849493	1135.716783
787.110152	1133.027972
789.368266	1136.917483
791.623835	1137.583916
793.882795	1140.664336
796.135256	1140.899301
798.393084	1143.495105
800.646392	1145.755245
802.897161	1137.787413
805.149342	1132.602098
807.398985	1128.117483
809.650039	1122.880420
811.896582	1122.648252
814.144537	1123.261538
816.389958	1127.835664
818.636790	1128.413287
820.883061	1130.227972
823.124828	1132.787413
825.369977	1136.124476
827.608654	1139.576923
829.850713	1136.265734
832.088274	1134.300699
834.327247	1135.052448
836.563693	1137.599301
838.801550	1140.605594
841.036882	1143.264336
843.269691	1144.490210
845.503911	1142.714685
847.735609	1143.606993
849.966751	1146.104895
852.197340	1149.611888
854.427373	1154.207692
856.656853	1154.116783
858.881851	1157.953147
861.110224	1161.583916
863.334118	1167.507692
865.559422	1168.027273
867.780251	1170.332867
870.004452	1172.526573
872.224180	1174.915385
874.445319	1173.523077
876.665907	1175.204895
878.883985	1174.589510
881.103474	1171.653147
883.318495	1167.290210
885.532970	1167.740559
887.746896	1164.672028
889.960276	1164.197902
892.173108	1161.516783
894.385394	1159.727273
896.595177	1161.287413
898.804415	1165.602098
901.013108	1163.200000
903.219302	1167.572727
905.426905	1165.023776
907.632010	1160.637762
909.836572	1160.821678
912.038639	1164.561538
914.242115	1162.234266
916.443097	1166.616084
918.643538	1167.882517
920.845386	1169.570629
923.040844	1171.302797
925.239661	1174.481119
927.434039	1173.943357
929.631775	1176.788811
931.825075	1177.747552
934.019784	1186.542657
936.212007	1192.935664
938.403692	1197.377622
940.594839	1198.031469
942.783503	1204.918182
944.971630	1206.720979
947.157277	1207.998601
949.346276	1206.971329
951.530852	1208.255944
953.714893	1209.200000
955.902284	1209.927273
958.081371	1212.104196
960.263809	1219.169930
962.445713	1217.688112
964.625143	1221.584615
966.802099	1226.130070
968.980464	1231.530769
971.160236	1231.739161
973.333659	1239.198601
975.510428	1247.816783
977.682790	1256.809091
979.856560	1262.770629
982.025926	1266.930769
984.198637	1273.727972
986.368881	1276.964336
988.538597	1276.464336
990.707784	1284.151748
992.872574	1284.311888
995.040705	1284.021678
997.204442	1281.239860
999.369585	1283.683217
1001.532270	1283.238462
1003.694428	1284.134965
1005.854130	1285.869930
1008.013308	1287.417483
1010.173892	1292.856643
1012.332021	1296.353147
1014.489626	1300.153846
1016.646708	1311.856643
1018.803267	1314.481119
1020.955446	1322.890909
1023.109031	1330.018182
1025.262095	1327.913287
1027.412711	1334.035664
1029.564732	1341.313986
1031.712380	1346.565734
1033.863360	1351.764336
1036.009969	1353.892308
1038.156060	1356.586014
1040.301631	1356.303497
1042.448608	1358.733566
1044.589296	1362.390909
1046.733314	1368.375524
1048.874891	1369.789510
1051.015952	1371.773427
1053.158417	1377.693706
1055.294603	1378.711888
1057.434115	1378.301399
1059.569271	1384.139161
1061.707752	1382.583217
1063.841879	1380.303497
1065.975493	1376.116084
1068.110512	1372.209790
1070.241181	1369.057343
1072.373255	1369.141259
1074.502900	1362.928671
1076.632033	1360.508392
1078.760654	1351.307692
1080.888764	1347.819580
1083.014448	1347.497902
1085.139622	1351.890210
1087.266200	1353.612587
1089.388441	1355.362937
1091.512085	1353.699301
1093.631396	1353.294406
1095.755935	1352.618881
1097.874229	1354.796503
1099.993928	1346.679720
1102.111208	1341.946154
1104.227982	1332.234965
1106.344249	1328.088811
1108.458101	1324.269231
1110.573356	1322.305594
1112.684289	1322.360839
1114.798533	1326.658741
1116.908457	1324.318182
1119.019785	1329.479720
1121.130608	1329.553147
1123.237115	1327.090210
1125.346932	1320.548951
1127.452434	1318.469930
1129.559339	1312.440559
1131.660029	1309.045455
1133.765931	1303.297203
1135.867524	1304.823077
1137.970520	1302.616783
1140.073015	1301.548951
1142.169303	1295.052448
1144.270799	1296.390909
1146.367992	1291.351049
1148.464686	1288.209790
1150.560882	1286.984615
1152.656581	1293.362937
1154.751781	1296.442657
1156.844586	1295.498601
1158.938792	1296.920280
1161.026807	1305.715385
1163.120020	1307.072028
1165.207045	1310.728671
1167.297369	1313.674126
1169.383406	1321.151049
1171.472740	1322.827972
1173.555893	1325.276224
1175.640448	1326.780420
1177.726405	1326.577622
1179.808080	1321.602797
1181.891157	1314.139161
1183.971848	1305.033566
1186.052047	1306.876923
1188.131755	1308.162937
1190.210972	1312.192308
1192.287807	1315.725874
1194.362261	1321.217483
1196.440006	1325.096503
1198.513482	1330.385315
1200.588358	1331.636364
1202.658967	1331.783916
1204.730978	1327.341259
1206.800612	1324.762238
1208.871647	1318.891608
1210.942194	1325.520280
1213.008480	1321.447552
1215.076167	1320.865035
1217.141482	1319.551748
1219.208197	1314.751748
1221.270656	1313.909790
1223.336400	1313.731469
1225.397891	1311.756643
1227.460781	1314.491608
1229.521304	1314.720979
1231.581343	1320.805594
1233.640900	1327.009091
1235.698091	1333.098601
1237.754801	1332.055245
1239.809148	1334.022378
1241.866775	1333.798601
1243.922040	1331.251049
1245.973064	1329.634965
1248.025488	1331.319580
1250.077432	1329.930070
1252.127018	1333.400000
1254.176125	1336.467832
1256.224754	1335.813986
1258.272904	1335.129371
1260.320575	1334.612587
1262.364017	1324.537063
1264.410733	1320.060839
1266.455096	1321.950350
1268.498983	1322.409091
1270.540519	1320.159441
1272.579704	1321.082517
1274.622163	1320.433566
1276.660399	1325.107692
1278.700034	1325.774126
1280.739194	1325.123077
1282.774135	1325.208392
1284.810475	1328.771329
1286.844471	1322.001399
1288.879865	1325.362238
1290.911045	1330.034266
1292.943624	1332.330769
1294.975730	1329.451748
1297.005496	1326.913287
1299.036660	1326.021678
1301.063616	1325.549650
1303.091970	1323.513287
1305.116120	1326.782517
1307.143534	1325.627273
1309.166746	1327.948252
1311.191356	1324.822378
1313.213632	1332.648252
1315.237305	1338.295105
1317.258645	1342.669231
1319.279517	1338.593007
1321.299922	1344.634965
1323.316134	1339.820979
1325.333743	1340.179021
1327.349024	1337.442657
1329.367564	1332.474126
1331.381915	1325.709790
1333.393940	1320.608392
1335.409222	1314.448252
1337.420319	1319.090210
1339.432813	1319.546154
1341.441124	1320.886014
1343.452691	1326.441259
1345.458218	1333.004196
1347.467001	1329.286014
1349.471606	1336.089510
1351.479465	1337.699301
1353.486862	1338.935664
1355.488228	1341.241958
1357.490991	1343.197203
1359.493293	1345.747552
1361.495136	1352.662238
1363.496519	1355.893706
1365.495589	1354.131469
1367.494200	1356.278322
1369.492353	1355.509091
1371.490047	1353.141259
1373.483579	1355.346853
1375.478507	1348.302098
1377.472977	1346.548951
1379.466992	1341.384615
1381.458698	1341.594406
1383.449950	1340.300699
1385.438896	1340.476923
1387.429237	1335.217483
1389.419123	1330.876224
1391.406706	1333.277622
1393.393834	1338.298601
1395.378662	1340.141958
1397.364883	1341.690210
1399.348805	1335.824476
1401.332274	1338.152448
1403.315291	1333.916084
1405.296009	1335.025874
1407.278123	1337.655245
1409.257939	1343.113986
1411.237305	1348.341259
1413.212531	1353.724476
1415.190997	1359.800699
1417.167168	1365.461538
1419.142891	1369.129371
1421.118164	1371.049650
1423.091146	1373.634266
1425.063680	1377.065734
1427.035767	1378.460140
1429.007405	1383.172028
1430.974915	1390.737063
1432.947500	1392.913986
1434.912278	1397.351049
1436.882128	1392.194406
1438.847855	1390.011888
1440.814974	1384.496503
1442.779810	1378.291608
1444.740526	1375.420280
1446.706311	1375.672727
1448.666140	1378.632168
1450.627362	1378.618182
1452.589977	1385.252448
1454.548477	1393.570629
1456.506534	1399.129371
1458.464150	1404.396503
1460.421324	1408.595804
1462.376222	1417.956643
1464.332512	1423.963636
1466.286528	1425.269930
1468.240104	1422.400699
1470.191407	1417.939860
1472.144102	1406.623077
1474.094526	1391.330769
1476.044510	1383.898601
1477.994056	1377.690210
1479.941333	1372.436364
1481.886343	1368.006294
1483.832744	1372.952448
1485.778708	1381.088112
1487.724235	1388.725874
1489.667497	1396.546154
1491.610322	1391.490210
1493.550884	1383.858741
1495.492837	1373.070629
1497.432528	1367.209091
1499.371785	1362.245455
1501.310606	1363.183916
1503.247168	1365.460140
1505.185121	1369.640559
1507.120815	1379.656643
1509.056076	1391.533566
1510.989081	1406.364336
1512.921653	1417.962937
1514.853793	1418.820280
1516.785501	1422.195105
1518.714955	1429.799301
1520.645800	1434.154545
1522.576213	1435.333566
1524.502554	1440.693007
1526.430286	1441.634266
1528.355767	1435.958741
1530.280819	1429.305594
1532.205442	1425.124476
1534.129636	1424.842657
1536.051583	1419.616084
1537.974919	1421.216783
1539.896010	1426.122378
1541.814856	1430.817483
1543.735092	1431.515385
1545.653084	1436.434266
1547.570650	1445.552448
1549.485974	1448.197203
1551.402688	1447.861538
1553.315347	1446.053846
1555.231210	1445.964336
1557.144833	1445.556643
1559.056219	1441.340559
1560.968993	1439.458741
1562.877718	1434.641259
1564.787833	1426.381818
1566.697523	1419.940559
1568.606791	1417.288112
1570.513825	1416.716783
1572.418626	1415.321678
1574.324816	1417.925874
1576.228774	1420.756643
1578.132312	1424.562937
1580.035428	1428.155245
1581.936316	1426.300000
1583.838591	1422.781818
1585.738639	1419.711888
1587.640074	1411.735664
1589.537476	1408.067133
1591.434459	1401.807692
1593.331024	1398.236364
1595.228977	1393.575524
1597.121095	1384.832168
1599.016406	1384.665734
1600.911300	1380.120979
1602.803972	1376.327972
1604.696228	1373.123077
1606.586263	1373.411888
1608.475884	1376.643357
1610.365088	1378.293007
1612.253878	1385.174825
1614.140450	1387.937762
1616.028410	1391.417483
1617.912353	1393.218881
1619.797684	1390.657343
1621.682600	1396.627972
1623.565303	1392.579021
1625.449393	1389.439860
1627.329472	1386.670629
1629.210937	1389.516783
1631.090192	1386.776923
1632.970833	1385.151748
1634.845670	1381.894406
1636.725489	1378.706993
1638.601302	1379.735664
1640.476705	1381.402797
1642.353495	1379.743357
1644.224487	1382.533566
1646.098661	1382.845455
1647.968837	1387.955245
1649.842193	1389.309091
1651.713346	1393.449650
1653.582297	1390.573427
1655.452634	1393.704196
1657.318977	1391.596503
1659.186706	1389.915385
1661.052237	1385.200000
1662.919152	1373.389510
1664.782079	1363.565035
1666.646391	1354.562937
1668.508507	1348.930070
1670.370219	1344.669231
1672.233315	1335.437063
1674.094217	1332.693706
1675.952925	1332.934965
1677.811230	1335.479720
1679.670920	1334.095105
1681.524843	1338.452448
1683.381938	1339.698601
1685.238631	1338.737762
1687.091348	1341.054545
1688.947235	1343.045455
1690.799149	1345.356643
1692.650662	1343.237762
1694.501774	1338.788112
1696.352486	1336.962937
1698.202797	1331.084615
1700.050924	1327.569930
1701.900434	1322.191608
1703.744196	1323.651748
1705.592907	1319.657343
1707.435873	1318.830070
1709.282004	1323.374825
1711.124174	1328.418881
1712.969508	1328.494406
1714.809102	1326.309091
1716.650080	1323.571329
1718.492441	1323.516783
1720.330846	1319.936364
1722.170634	1324.822378
1724.008247	1322.878322
1725.845464	1320.624476
1727.680508	1322.186014
1729.516935	1322.685315
1731.351190	1325.991608
1733.185050	1327.695105
1735.018517	1327.059441
1736.848037	1323.397902
1738.680716	1320.110490
1740.509451	1315.337063
1742.341344	1311.113287
1744.169294	1312.641259
1745.996852	1311.005594
1747.824018	1307.853846
1749.650793	1312.399301
1751.477177	1312.911189
1753.299623	1313.048252
1755.125225	1318.475524
1756.946892	1318.600699
1758.769941	1316.711888
1760.590828	1316.934266
1762.411327	1312.679021
1764.233207	1310.711888
1766.049387	1315.885315
1767.868719	1318.508392
1769.684124	1320.406993
1771.502679	1326.751049
1773.317309	1330.727273
1775.131553	1333.587413
1776.945409	1337.695804
1778.758879	1340.231469
1780.570196	1344.427273
1782.382894	1347.462937
1784.195205	1346.315385
1786.003599	1344.337762
1787.813373	1348.252448
1789.619233	1347.555944
1791.428238	1349.186713
1793.233330	1350.049650
1795.039803	1350.074825
1796.845892	1352.176923
1798.648071	1348.962937
1800.453393	1352.765734
1802.254807	1352.215385
1804.057601	1351.555944
1805.856489	1349.801399
1807.656758	1347.087413
1809.456645	1349.704895
1811.254391	1347.799301
1813.051755	1341.473427
1814.848740	1338.927972
1816.645344	1340.606294
1818.439809	1343.008392
1820.235653	1341.041259
1822.025843	1339.121678
1823.820928	1340.363636
1825.610362	1344.831469
1827.402932	1347.301399
1829.193367	1353.918182
1830.981668	1360.018182
1832.773104	1361.483217
1834.558894	1363.697902
1836.346064	1368.909790
1838.131102	1370.123077
1839.919274	1368.810490
1841.703560	1369.304196
1843.485717	1365.658042
1845.269252	1372.379720
1847.050659	1372.048951
1848.833445	1371.413287
1850.612350	1375.706294
1852.392635	1375.678322
1854.170793	1377.013986
1855.950330	1382.067133
1857.727742	1381.380420
1859.503030	1374.767832
1861.279697	1375.054545
1863.054240	1382.937063
1864.830162	1381.533566
1866.600463	1387.527972
1868.373892	1387.043357
1870.145201	1386.912587
1871.916140	1388.181119
1873.688455	1388.908392
1875.455157	1388.780420
1877.224985	1391.474825
1878.990949	1394.302098
1880.760037	1395.711888
1882.525263	1401.911888
1884.290120	1407.181818
1886.056355	1407.632168
1887.818731	1407.205594
1889.580740	1407.447552
1891.342381	1400.861538
1893.103656	1395.243357
1894.864563	1388.348252
1896.625104	1378.167133
1898.383535	1370.749650
1900.141601	1365.746154
1901.897558	1361.205594
1903.654892	1353.918881
1905.411861	1346.080420
1907.166724	1341.785315
1908.919481	1335.139860
1910.671875	1334.663636
1912.425644	1330.897203
1914.177310	1331.230769
1915.926874	1334.103497
1917.677813	1335.000000
1919.428390	1339.075524
1921.175127	1336.258741
1922.923241	1335.839161
1924.669255	1331.483217
1926.416645	1324.138462
1928.161936	1324.536364
1929.905130	1323.532867
1931.649699	1328.473427
1933.392173	1330.974825
1935.134286	1338.623776
1936.876039	1346.502448
1938.617433	1352.383217
1940.356732	1360.160490
1942.095673	1360.252448
1943.834256	1361.407343
1945.570746	1363.788811
1947.306879	1361.998951
1949.044386	1364.555944
1950.778071	1362.520629
1952.513131	1367.526573
1954.246103	1366.508741
1955.978718	1366.801399
1957.710976	1361.182168
1959.442878	1362.960140
1961.172694	1366.942657
1962.900425	1370.546853
1964.629531	1369.479720
1966.358282	1374.023776
1968.084949	1374.420280
1969.811262	1371.074126
1971.538948	1369.112587
1973.261098	1374.779720
1974.986349	1373.632867
1976.707794	1374.140559
1978.432338	1368.937762
1980.154803	1373.586014
1981.873464	1378.072727
1983.595224	1377.646154
1985.313182	1373.778322
1987.032513	1375.011189
1988.748045	1374.234965
1990.468397	1366.530070
1992.184951	1362.948252
1993.897708	1362.326573
1995.613562	1361.469231
1997.327342	1362.778322
1999.040773	1358.181818
2000.752133	1359.581119
2002.464866	1358.874825
2004.173807	1358.713986
2005.885842	1361.772727
2007.592367	1366.176923
2009.301985	1367.981119
2011.009535	1364.211888
2012.716738	1367.431469
2014.421875	1370.000699
2016.126665	1372.029371
2017.832827	1368.779021
2019.535207	1365.207692
2021.238959	1362.882517
2022.940647	1359.888811
2024.641991	1358.600699
2026.342989	1353.626573
2028.041927	1349.174825
2029.742235	1351.744056
2031.438769	1352.370629
2033.136674	1359.989510
2034.832520	1359.032168
2036.531452	1361.459441
2038.224898	1360.637063
2039.919715	1361.050350
2041.614190	1363.514685
2043.304896	1363.321678
2044.998686	1359.869231
2046.688709	1357.937063
2048.380103	1361.025874
2050.069444	1365.212587
2051.760155	1363.230070
2053.447103	1366.698601
2055.133712	1360.667133
2056.821691	1363.448951
2058.505910	1363.639860
2060.191499	1362.101399
2061.876749	1363.407692
2063.559951	1360.356643
2065.244522	1353.612587
2066.923631	1353.181119
2068.607525	1348.930769
2070.285959	1342.214685
2071.967469	1338.576923
2073.645229	1339.188112
2075.322651	1335.474825
2077.001443	1340.888112
2078.678193	1345.811189
2080.352901	1348.733566
2082.028978	1348.742657
2083.703015	1351.156643
2085.376716	1349.090909
2087.050082	1352.923776
2088.721410	1350.925874
2090.392403	1352.721678
2092.063062	1353.178322
2093.733386	1354.186713
2095.403377	1356.814685
2097.071332	1367.134965
2098.738954	1368.454545
2100.404541	1371.744755
2102.071498	1374.404196
2103.736420	1379.577622
2105.401011	1379.993007
2107.063570	1382.125175
2108.727497	1380.634266
2110.389394	1378.058741
2112.050959	1377.955944
2113.712193	1376.715385
2115.371399	1376.085315
2117.030274	1374.537063
2118.688820	1366.804895
2120.347036	1364.788811
2122.001528	1358.565035
2123.659085	1353.118182
2125.316313	1346.024476
2126.969819	1345.749650
2128.624693	1342.273427
2130.275849	1342.105594
2131.930066	1345.587413
2133.580567	1338.211189
2135.232434	1339.716084
2136.878893	1336.041958
2138.530107	1339.209790
2140.177607	1345.665734
2141.826474	1345.464336
2143.473323	1347.879021
2145.119845	1350.158042
2146.766042	1356.924476
2148.408531	1355.339161
2150.054078	1358.303497
2151.695918	1356.385315
2153.340815	1353.922378
2154.982007	1357.923776
2156.622875	1356.377622
2158.263419	1363.919580
2159.901951	1363.734266
2161.541849	1358.860140
2163.178047	1355.983217
2164.815612	1353.527972
2166.452853	1353.372028
2168.088085	1344.420280
2169.722996	1341.108392
2171.357585	1340.836364
2172.991852	1337.152448
2174.622426	1337.827273
2176.256052	1336.560839
2177.885986	1340.375524
2179.517285	1340.532168
2181.146579	1338.079021
2182.775554	1335.370629
2184.404210	1338.325175
2186.032546	1338.830769
2187.658879	1331.986014
2189.284894	1331.500699
2190.908908	1332.945455
2192.534286	1329.044056
2194.157665	1327.308392
2195.782407	1325.543357
2197.403469	1324.325175
2199.024214	1323.996503
2200.646324	1317.441958
2202.266436	1319.861538
2203.884551	1320.376224
2205.502351	1322.752448
2207.119836	1325.564336
2208.737005	1328.667832
2210.353859	1336.098601
2211.970398	1338.776224
2213.584943	1339.317483
2215.197496	1339.311888
2216.811413	1337.124476
2218.423339	1337.392308
2220.036628	1334.220280
2221.647927	1335.581119
2223.257236	1329.932168
2224.867909	1332.761538
2226.476593	1328.568531
2228.084965	1324.185315
2229.691349	1326.404196
2231.299097	1319.992308
2232.904858	1316.304196
2234.510308	1318.328671
2236.113773	1319.174825
2237.718601	1318.537762
2239.321445	1317.735664
2240.922307	1315.893706
2242.524530	1313.998601
2244.124772	1314.964336
2245.726376	1313.279720
2247.324328	1317.557343
2248.923642	1323.843357
2250.520976	1324.627273
2252.118001	1328.134965
2253.716389	1336.133566
2255.311128	1336.690909
2256.903890	1335.862238
2258.498015	1332.997902
2260.093501	1327.963636
2261.685343	1326.543357
2263.276878	1326.337063
2264.869774	1327.246154
2266.457361	1333.373427
2268.049645	1335.381119
2269.636621	1333.471329
2271.226626	1330.805594
2272.811326	1329.027972
2274.400719	1327.355944
2275.984811	1317.815385
2277.570264	1307.774825
2279.153747	1302.887413
2280.740257	1298.139161
2282.323133	1297.014685
2283.905705	1298.684266
2285.487974	1302.607692
2287.066614	1298.086364
2288.648277	1293.835664
2290.226312	1289.489860
2291.807370	1285.998601
2293.384801	1279.272378
2294.960269	1271.958042
2296.538759	1266.738112
2298.113625	1268.276224
2299.688190	1264.189860
2301.262455	1265.076224
2302.836419	1267.896853
2304.410083	1265.739860
2305.983446	1257.189510
2307.553191	1252.273427
2309.122637	1246.913287
2310.695101	1244.570629
2312.262291	1239.171329
2313.832499	1246.453147
2315.399092	1251.165035
2316.967045	1258.677622
2318.533042	1263.015385
2320.098742	1273.907692
2321.664145	1285.625874
2323.227593	1299.898601
2324.792401	1312.853147
2326.353601	1321.027273
2327.917815	1321.644056
2329.476767	1319.341259
2331.038734	1306.458741
2332.598750	1300.156643
2334.158470	1284.058741
2335.716241	1270.365035
2337.273717	1259.193007
2338.830899	1254.978322
2340.386134	1254.053846
2341.941074	1263.940559
2343.495721	1267.341958
2345.050074	1268.929371
2346.604133	1269.888811
2348.157898	1270.048951
2349.709720	1269.693007
2351.259598	1267.365035
2352.812484	1266.393706
2354.360128	1262.794406
2355.910779	1257.430070
2357.457839	1256.800699
2359.006258	1257.814685
2360.554384	1258.226573
2362.098922	1252.863636
2363.644818	1251.774825
2365.188776	1251.039161
2366.734091	1244.562937
2368.275821	1245.769930
2369.818908	1239.851748
2371.360060	1242.846853
2372.900922	1237.091608
2374.441495	1233.514685
2375.981778	1234.595105
2377.521773	1236.098601
2379.058190	1232.394406
2380.597608	1231.115385
2382.133449	1232.513986
2383.670646	1225.909790
2385.204268	1220.420280
2386.740891	1223.046154
2388.275582	1221.941958
2389.808344	1227.924476
2391.340819	1231.974825
2392.871367	1234.930070
2394.404912	1238.807692
2395.933245	1241.905594
2397.462936	1245.912587
2398.992341	1249.182517
2400.521460	1250.770629
2402.050295	1248.488112
2403.573924	1247.813986
2405.102190	1247.992308
2406.625252	1247.521678
2408.152948	1248.417483
2409.673805	1250.864336
2411.199295	1250.095804
2412.721224	1251.153846
2414.244509	1250.905594
2415.765873	1255.858741
2417.285317	1259.107692
2418.806116	1261.546853
2420.324996	1260.355245
2421.843594	1259.058741
2423.360275	1260.404196
2424.878310	1260.632168
2426.396064	1257.723077
2427.910267	1259.571329
2429.424189	1260.139860
2430.937831	1258.772727
2432.452828	1259.200699
2433.964276	1260.623077
2435.477079	1260.451748
2436.987968	1255.238462
2438.498579	1250.341259
2440.007278	1248.565035
2441.518963	1246.507692
2443.027105	1244.695804
2444.534969	1243.609790
2446.042555	1245.600699
2447.546600	1244.095105
2449.053631	1240.498601
2450.558753	1240.571329
2452.063598	1238.179720
2453.566535	1236.158741
2455.069197	1228.868531
2456.571582	1229.723776
2458.072062	1226.222378
2459.573895	1224.746154
2461.073824	1226.430070
2462.573477	1224.927972
2464.072854	1226.364336
2465.570329	1225.800699
2467.065902	1225.326573
2468.564455	1226.518881
2470.059480	1225.418182
2471.555858	1227.152448
2473.048708	1222.525874
2474.542912	1224.800000
2476.036842	1221.074825
2477.527248	1221.072028
2479.020632	1223.547552
2480.512118	1223.420979
2482.001707	1229.561538
2483.491024	1233.295804
2484.978446	1231.548951
2486.468843	1232.204895
2487.955721	1233.193706
2489.443951	1232.886014
2490.928665	1227.002098
2492.413108	1221.215385
2493.898903	1212.970629
2495.382805	1209.948252
2496.868059	1207.657343
2498.348178	1207.818881
2499.831271	1207.225175
2501.312473	1207.423776
2502.793406	1209.421678
2504.272450	1215.707692
2505.751225	1217.422378
2507.229732	1222.313986
2508.707971	1226.491608
2510.185941	1226.365035
2511.660407	1223.302797
2513.137841	1225.504895
2514.611772	1222.187413
2516.087053	1219.316783
2517.562068	1213.789510
2519.033581	1210.996503
2520.506444	1207.286713
2521.977425	1203.637063
2523.449756	1199.290909
2524.916974	1200.724476
2526.387157	1200.095804
2527.855460	1199.317483
2529.323498	1199.583217
2530.791271	1202.552448
2532.258779	1203.546853
2533.726022	1205.737762
2535.189773	1206.939860
2536.654874	1212.021678
2538.118098	1214.327273
2539.582672	1216.934965
2541.043756	1223.327972
2542.506190	1226.252448
2543.968361	1229.892308
2545.427046	1231.899301
2546.890303	1234.846154
2548.348463	1234.649650
2549.807972	1237.572727
2551.262388	1235.441958
2552.721373	1236.052448
2554.178487	1237.950350
2555.633730	1237.325175
2557.088712	1235.627273
2558.541824	1240.032168
2559.996285	1235.767133
2561.448877	1237.165035
2562.901209	1234.855944
2564.351673	1236.977622
2565.805093	1233.071329
2567.253431	1235.012587
2568.704725	1233.990210
2570.154152	1233.511189
2571.600107	1231.538462
2573.049018	1232.730070
2574.494457	1230.296503
2575.941245	1226.887413
2577.386169	1219.211189
2578.830835	1221.430070
2580.276850	1220.233566
2581.719397	1219.351748
2583.163292	1214.157343
2584.603722	1214.802797
2586.045499	1214.772727
2587.485417	1212.642657
2588.926682	1210.674825
2590.364486	1208.632867
2591.805239	1200.565734
2593.240929	1197.076224
2594.679569	1190.811888
2596.116352	1188.743357
2597.551278	1186.690210
2598.989153	1179.530070
2600.421969	1171.572727
2601.856133	1164.547552
2603.288443	1159.623077
2604.722099	1154.530070
2606.153902	1148.012587
2607.585452	1145.562937
2609.016748	1140.641259
2610.446192	1142.178322
2611.875384	1139.682517
2613.302726	1142.897203
2614.731414	1146.953147
2616.159849	1149.033566
2617.584837	1153.648252
2619.011172	1156.567832
2620.435658	1159.689510
2621.861490	1163.875524
2623.283878	1161.760140
2624.707612	1164.408392
2626.129499	1159.687413
2627.551137	1155.532867
2628.970929	1150.021678
2630.392067	1154.969930
2631.812955	1152.341958
2633.230405	1157.274126
2634.650794	1159.302098
2636.067746	1160.476224
2637.484449	1158.889510
2638.900905	1157.716084
2640.317111	1154.489510
2641.733070	1158.313986
2643.147188	1150.181818
2644.561059	1150.006993
2645.973090	1149.035664
2647.386466	1155.406993
2648.796412	1153.520979
2650.209293	1156.217483
2651.618746	1154.800699
2653.027954	1153.444056
2654.435324	1150.492308
2655.845630	1149.272727
2657.254099	1151.949650
2658.660733	1154.553147
2660.067122	1147.282517
2661.471677	1152.474126
2662.877576	1154.813986
2664.281642	1155.897203
2665.685463	1160.051748
2667.089041	1161.426573
2668.490786	1165.923776
2669.893875	1163.862937
2671.293546	1166.223776
2672.694561	1165.357343
2674.092160	1165.189510
2675.492689	1167.074126
2676.889803	1163.550350
2678.288260	1163.353846
2679.684889	1161.854545
2681.081276	1159.351049
2682.477422	1164.812587
2683.871741	1166.465734
2685.267403	1168.332867
2686.659655	1168.844056
2688.053250	1170.606993
2689.445022	1167.111189
2690.838135	1170.741958
2692.229425	1171.367832
2693.618892	1166.869930
2695.008119	1162.162937
2696.397107	1155.522378
2697.787437	1152.258741
2699.172782	1146.618881
2700.561051	1143.331469
2701.947500	1138.940559
2703.333710	1142.562238
2704.719682	1141.044755
2706.102254	1140.443357
2707.486169	1143.828671
2708.869846	1144.147552
2710.253285	1148.741958
2711.633328	1149.943357
2713.014713	1148.687413
2714.394282	1146.267133
2715.775193	1138.915385
2717.154288	1139.105594
2718.531570	1135.911189
2719.910193	1137.252448
2721.287003	1132.574126
2722.663577	1131.188811
2724.039915	1130.485315
2725.414441	1133.535664
2726.790308	1132.869930
2728.162788	1130.296503
2729.538184	1125.010490
2730.908620	1121.999301
2732.280397	1117.665734
2733.651939	1119.305594
2735.021673	1119.294406
2736.392748	1120.122378
2737.762014	1121.538462
2739.131048	1128.863636
2740.498274	1135.620979
2741.865268	1141.662937
2743.232029	1140.704196
2744.598557	1138.031469
2745.963280	1131.067832
2747.327772	1129.469930
2748.692031	1125.924476
2750.056058	1123.806993
2751.419854	1117.754545
2752.780276	1109.846853
2754.143609	1102.393007
2755.501999	1100.301399
2756.863299	1095.625874
2758.221228	1089.967832
2759.582067	1083.634965
2760.941105	1078.845455
2762.296775	1072.835664
2763.655353	1073.565035
2765.010564	1074.725175
2766.365547	1076.220280
2767.718732	1072.820979
2769.074824	1070.303497
2770.427552	1068.697902
2771.780051	1070.109091
2773.132322	1069.716783
2774.485932	1071.186713
2775.836180	1070.402797
2777.184635	1070.725175
2778.535994	1070.497902
2779.883994	1066.846853
2781.233332	1063.620979
2782.580879	1063.842657
2783.928198	1059.551748
2785.275291	1056.425175
2786.620593	1053.195105
2787.965669	1053.345455
2789.310518	1053.725874
2790.655142	1052.289510
2791.996414	1053.720280
2793.339024	1053.081119
2794.681408	1057.074825
2796.023568	1056.258741
2797.362378	1062.448252
2798.704087	1066.937762
2800.042449	1064.166434
2801.382148	1062.601399
2802.720061	1063.633566
2804.056190	1062.831469
2805.392095	1060.120979
2806.729338	1059.661538
2808.064797	1064.267133
2809.400033	1063.750350
2810.733486	1066.104895
2812.068277	1073.677622
2813.399726	1078.174126
2814.734071	1076.286713
2816.063518	1072.323776
2817.394302	1068.981119
2818.724864	1066.884615
2820.053647	1059.269231
2821.383766	1058.041259
2822.712107	1055.604196
2824.040227	1052.623776
2825.366569	1049.145455
2826.694248	1045.029371
2828.018593	1047.222378
2829.344275	1048.644056
2830.668181	1048.230070
2831.991868	1051.567832
2833.316890	1051.133566
2834.638582	1052.314685
2835.960056	1054.180420
2837.281311	1057.102098
2838.602347	1050.928671
2839.921611	1045.583916
2841.242210	1040.897203
2842.561037	1032.088811
2843.879646	1028.798601
2845.196484	1029.052448
2846.513105	1026.970629
2847.829509	1024.949650
2849.144144	1023.107692
2850.460113	1024.546154
2851.772762	1028.425874
2853.086747	1027.639161
2854.400514	1026.618881
2855.714066	1025.985315
2857.025850	1028.653147
2858.335868	1022.572028
2859.647221	1027.016084
2860.955259	1027.680420
2862.264632	1029.577622
2863.573789	1028.191608
2864.882731	1032.641958
2866.189909	1035.710490
2867.495325	1039.113287
2868.802075	1042.517483
2870.107062	1047.642657
2871.411836	1048.160839
2872.714848	1048.606294
2874.020742	1043.013287
2875.321780	1043.870629
2876.624153	1043.272028
2877.924766	1039.273427
2879.226713	1029.282517
2880.528447	1029.115385
2881.826876	1025.146154
2883.126640	1023.716084
2884.424645	1017.958741
2885.722439	1012.420979
2887.018477	1008.342657
2888.315848	1007.738462
2889.611463	1005.274126
2890.906867	1006.998601
2892.202061	1007.899301
2893.493956	1006.690210
2894.788728	1000.217483
2896.080203	1002.797203
2897.373011	1002.084615
2898.665609	1000.325175
2899.954913	994.132168
2901.245549	991.424476
2902.534434	992.265035
2903.824652	989.702797
2905.111577	984.515385
2906.399836	984.374825
2907.686344	984.293706
2908.972645	988.622378
2910.258737	986.944755
2911.543081	989.946853
2912.830296	994.732168
2914.112685	998.093007
2915.396406	999.974126
2916.678381	998.053846
2917.960148	998.081818
2919.240171	996.657343
2920.523063	993.455245
2921.804210	991.740559
2923.082075	994.369231
2924.362809	996.170629
2925.640262	990.480420
2926.917509	987.837762
2928.193015	986.558042
2929.471388	985.097902
2930.744946	982.302797
2932.021372	980.745455
2933.296057	982.925175
2934.569002	982.916783
2935.843277	979.174825
2937.115813	976.302797
2938.388145	977.742657
2939.657203	976.766434
2940.929127	973.888112
2942.199313	972.520280
2943.469296	972.467133
2944.739075	974.387413
2946.007117	975.074825
2947.273424	973.551748
2948.539528	968.104196
2949.806962	963.194406
2951.072662	960.726573
2952.338159	957.884615
2953.603454	956.491608
2954.865484	955.262937
2956.128845	954.039860
2957.392003	951.845455
2958.653430	956.524476
2959.916186	960.662937
2961.177211	960.176224
2962.436504	955.518881
2963.695598	952.323776
2964.954491	952.029371
2966.213184	953.220979
2967.471677	950.644755
2968.728441	950.156643
2969.985005	951.843357
2971.239842	951.976923
2972.496007	955.465734
2973.748918	961.678322
2975.003158	961.718182
2976.257199	957.682517
2977.509514	952.371329
2978.761631	950.803497
2980.012022	948.088112
2981.265269	947.626573
2982.513739	945.823077
2983.765064	949.684615
2985.013139	949.444755
2986.261018	947.672028
2987.508699	951.032867
2988.756184	948.788811
2990.001946	944.117483
2991.247513	940.690909
2992.494407	938.939860
2993.738057	936.469231
2994.983035	933.764336
2996.224769	931.673427
2997.469355	930.468531
2998.712222	928.565035
2999.951848	926.662937
3001.194324	926.686014
3002.433561	926.935664
3003.674125	924.375524
3004.912972	923.925175
3006.151625	921.537762
3007.388562	918.801399
3008.626826	914.542657
3009.863376	912.924476
3011.099731	909.613986
3012.335893	912.967832
3013.570342	912.065035
3014.804597	917.521678
3016.038659	921.021678
3017.271009	924.263636
3018.501647	925.172028
3019.735131	923.875524
3020.966903	923.041958
3022.196965	918.427273
3023.426835	911.074126
3024.654995	909.520979
3025.884481	907.579021
3027.112259	912.579720
3028.339845	915.209790
3029.568757	915.988811
3030.792927	917.834965
3032.019940	921.897902
3033.243729	917.439161
3034.468845	915.993706
3035.692254	911.483916
3036.915473	901.690210
3038.136987	896.859441
3039.361343	897.104895
3040.580962	898.144056
3041.801908	899.255944
3043.022665	900.412587
3044.241718	900.102098
3045.462097	902.186713
3046.679259	901.669231
3047.897746	899.295105
3049.114531	896.912587
3050.331129	892.202098
3051.547538	893.101399
3052.760735	891.623776
3053.976769	891.818881
3055.189591	893.521678
3056.405250	888.422378
3057.616186	886.651748
3058.828447	886.370629
3060.040522	882.890210
3061.252410	877.576923
3062.462600	871.936364
3063.672604	868.577972
3064.882423	871.348951
3066.090545	873.816434
3067.298481	876.037762
3068.504723	883.438112
3069.712288	885.228671
3070.918160	885.304545
3072.123846	892.257343
3073.329347	894.526224
3074.533155	893.666434
3075.738287	891.503147
3076.941727	882.846853
3078.143474	880.008741
3079.345038	876.037762
3080.546417	870.734266
3081.747614	868.847552
3082.947119	865.195804
3084.146442	860.560839
3085.347088	859.704895
3086.546044	862.127273
3087.741806	861.318182
3088.940397	860.086713
3090.135794	858.030769
3091.332514	852.350350
3092.526042	847.575524
3093.722398	840.931469
3094.917068	836.889510
3096.108547	828.682517
3097.304357	826.657343
3098.495474	826.032168
3099.687913	828.278322
3100.877165	825.945455
3102.069243	828.183217
3103.259636	825.758741
3104.446844	822.662937
3105.635375	823.147552
3106.825228	823.035664
3108.011896	823.246154
3109.198385	822.061538
3110.384694	817.077622
3111.572325	822.832168
3112.756775	827.364336
3113.939544	833.737762
3115.125136	830.834266
3116.309049	833.297902
3117.491283	831.102797
3118.673338	834.652448
3119.855216	836.609091
3121.036915	837.178322
3122.216936	836.600000
3123.395281	835.346853
3124.576447	830.253846
3125.754437	826.697902
3126.932250	821.883217
3128.109886	818.144056
3129.285847	813.832168
3130.461631	811.188811
3131.638737	809.406993
3132.814168	810.044755
3133.987926	809.823077
3135.160012	814.186713
3136.333418	818.286014
3137.506649	820.885315
3138.678207	818.700699
3139.851086	817.089510
3141.020799	817.472727
3142.191831	818.217483
3143.361194	816.301399
3144.528887	811.744056
3145.699395	806.317483
3146.865244	805.811189
3148.035403	806.699301
3149.200904	805.884615
3150.366232	805.460839
3151.531386	808.976224
3152.696366	808.433566
3153.862667	808.760140
3155.024314	807.090210
3156.187282	805.550350
3157.350076	801.362937
3158.512698	796.811189
3159.673655	794.004196
3160.834439	789.960140
3161.995051	785.401399
3163.154000	784.364336
3164.312776	787.813986
3165.471381	792.965734
3166.629814	791.771329
3167.788075	794.962937
3168.944674	796.204196
3170.099612	798.186014
3171.255869	796.283916
3172.410466	789.912587
3173.564891	788.764336
3174.717657	784.104196
3175.870253	785.043357
3177.022678	785.027972
3178.174934	785.794406
3179.327019	786.187413
3180.475959	785.572028
3181.627705	783.954545
3182.777793	782.070629
3183.926225	782.867832
3185.074488	783.544056
3186.222581	784.475524
3187.370506	788.318182
3188.516776	790.002098
3189.662877	788.613986
3190.807323	785.288811
3191.951602	782.697203
3193.095713	777.919580
3194.241142	772.634965
3195.383431	764.758741
3196.525554	763.304895
3197.667509	760.472028
3198.809298	758.567832
3199.950919	762.767133
3201.089404	764.510490
3202.229207	767.018881
3203.370328	767.932867
3204.508314	769.262937
3205.644651	768.596503
3206.780822	769.904196
3207.918311	768.311888
3209.054150	764.505594
3210.191307	758.344056
3211.323851	751.599301
3212.460677	744.706993
3213.592891	745.139161
3214.726422	740.379720
3215.859789	738.363636
3216.990028	733.595105
3218.123065	731.265035
3219.252976	729.518881
3220.384203	729.826573
3221.512306	728.820979
3222.643205	725.997902
3223.772460	723.675524
3224.900072	729.795105
3226.024562	730.374825
3227.153326	737.848252
3228.278970	739.095105
3229.404450	743.639161
3230.528289	743.153147
3231.654922	744.425874
3232.776958	742.720979
3233.900310	742.913287
3235.023500	738.615385
3236.146528	734.003497
3237.267916	728.880420
3238.389143	726.895804
3239.508731	720.374126
3240.628158	720.642657
3241.745947	718.273427
3242.866529	720.286713
3243.983996	716.769930
3245.101303	718.641259
3246.218450	720.953846
3247.333961	725.779720
3248.450787	722.666434
3249.564502	725.362937
3250.681007	725.218182
3251.795878	723.846853
3252.907640	721.704895
3254.019243	724.262937
3255.132160	722.695804
3256.244919	724.860839
3257.354571	723.307692
3258.465537	727.306993
3259.576345	727.580420
3260.685522	726.311888
3261.793067	722.391608
3262.901926	719.771329
3264.010628	717.665035
3265.116227	716.310490
3266.223140	715.662238
3267.328424	716.290210
3268.435023	715.936364
3269.538521	719.104895
3270.643333	719.533566
3271.747988	723.595804
3272.849544	723.270629
3273.950945	723.649650
3275.053659	718.735664
3276.156216	718.153846
3277.255677	722.400000
3278.357922	722.690909
3279.457071	723.741958
3280.554596	721.939161
3281.651965	721.353147
3282.752117	719.166434
3283.849175	711.706294
3284.946078	708.784615
3286.042826	699.504895
3287.135016	692.483217
3288.231454	684.433566
3289.326270	685.980420
3290.420932	689.032867
3291.513972	690.388811
3292.606858	693.974825
3293.698123	693.361538
3294.790701	693.547552
3295.881658	692.051049
3296.970996	687.541259
3298.060181	687.187413
3299.150679	678.642657
3300.238092	672.361538
3301.325353	673.517483
3302.413926	673.065734
3303.502346	675.251748
3304.586219	679.063636
3305.674334	680.455944
3306.759368	681.943357
3307.842785	681.925874
3308.927515	685.469231
3310.010630	687.165734
3311.095056	686.695804
3312.176404	681.838462
3313.259064	680.755245
3314.340110	679.242657
3315.421005	674.573427
3316.500286	670.842657
3317.579418	670.479720
3318.659860	670.825175
3319.737229	672.446853
3320.815908	674.472727
3321.892977	682.327972
3322.969895	683.866434
3324.045202	686.480420
3325.120360	684.764336
3326.196829	687.206294
3327.270228	683.661538
3328.343478	684.660839
3329.418038	681.986713
3330.490990	683.572727
3331.562333	680.944056
3332.634988	679.080420
3333.704575	674.955944
3334.775473	675.616084
3335.844764	668.838462
3336.915366	666.639860
3337.984361	661.627273
3339.051750	662.565734
3340.117534	660.144056
3341.187544	659.672028
3342.254491	659.330769
3343.318376	660.310490
3344.385029	659.486014
3345.450077	662.230070
3346.513522	657.851049
3347.576821	657.060839
3348.639973	654.025874
3349.702979	654.162238
3350.765839	652.579021
3351.827097	653.795804
3352.885298	652.979720
3353.947720	651.623077
3355.007085	649.665734
3356.066305	653.267133
3357.126835	654.079021
3358.182855	656.059441
3359.241640	649.357343
3360.295917	647.043357
3361.352957	642.893007
3362.408400	640.177622
3363.465151	639.499301
3364.520304	638.394406
3365.573861	634.178322
3366.625820	636.593007
3367.680541	637.553147
3368.732213	640.717483
3369.783742	642.074126
3370.836579	642.379021
3371.886369	638.817483
3372.937468	636.672028
3373.985521	631.981818
3375.036334	631.824476
3376.084101	632.065734
3377.131726	631.665035
3378.179208	628.593706
3379.225098	633.859441
3380.272296	634.176923
3381.316452	633.972727
3382.363366	636.352448
3383.408688	633.225874
3384.450969	632.662238
3385.493110	629.596503
3386.536558	630.702797
3387.579866	629.133566
3388.621583	629.018182
3389.663159	627.629371
3390.704595	624.082517
3391.744441	624.722378
3392.782700	623.894406
3393.822266	625.052448
3394.861691	624.834965
3395.899529	624.999301
3396.935780	624.354545
3397.971892	623.408392
3399.009311	624.727273
3400.043697	617.951748
3401.079390	616.790909
3402.114944	613.326573
3403.147467	612.537762
3404.182743	614.527273
3405.214988	617.812587
3406.247095	620.124476
3407.277618	622.160140
3408.309448	624.018881
3409.341140	618.295804
3410.369805	615.148252
3411.398331	608.986014
3412.428165	605.451049
3413.457860	603.166434
3414.484530	601.578322
3415.512507	602.924476
3416.537459	605.133566
3417.565161	606.579021
3418.589840	607.265734
3419.615825	610.855245
3420.640230	609.530070
3421.664499	605.823776
3422.687189	602.478322
3423.709743	601.995804
3424.733603	608.578322
3425.754443	610.058042
3426.775148	615.112288
3427.797158	619.467408
3428.816150	622.196304
3429.835007	622.371878
3430.855169	619.067033
3431.872315	611.354670
