-118.146553	52.044780
-115.476953	52.486813
-112.810288	52.690959
-110.144375	52.689211
-107.481395	52.513561
-104.816984	52.196004
-102.155504	51.768531
-99.492595	49.575524
-96.834792	50.072028
-94.175560	50.312587
-91.517076	52.314685
-88.861517	53.797902
-86.204528	57.983916
-83.552638	59.597203
-80.899318	59.571329
-78.248917	65.650350
-75.597088	61.583916
-72.950349	62.279021
-70.302180	61.293706
-67.654754	57.601399
-65.010243	55.188112
-62.364302	57.576923
-59.723443	57.648951
-57.081155	58.451748
-54.441776	61.183217
-51.800967	61.097902
-49.160899	65.911189
-46.525904	73.540559
-43.889479	80.784615
-41.255957	88.259441
-38.621007	98.058042
-35.991122	106.695105
-33.357645	115.302797
-30.729230	124.081119
-28.101549	128.769231
-25.472439	96.117483
-22.848386	-91.732867
-20.220744	-972.730769
-17.598155	-3225.978322
-14.976298	-2918.887413
-12.355171	2281.177622
-9.734775	12886.032168
-7.117266	21901.194406
-4.498329	28240.476923
-1.882277	31859.116084
0.733046	32737.241958
3.347641	30882.505594
5.959355	26318.927972
8.572497	19168.814685
11.180605	9897.120280
13.792295	481.044755
16.398954	-4152.971329
19.007041	-3660.331469
21.614404	-329.560839
24.216742	140.773427
26.822658	146.606294
29.423552	142.697902
32.025874	129.604895
34.623179	113.103497
37.224059	101.153147
39.819924	93.718182
42.417218	85.423776
45.013792	79.375524
47.605357	75.706294
50.198350	74.639161
52.788482	73.213287
55.380041	73.017483
57.968742	72.011888
60.558869	71.941259
63.143997	70.966434
65.730553	68.890909
68.316395	71.753846
70.899383	74.630769
73.483797	72.884615
76.061083	76.052448
78.641935	74.658741
81.219938	77.125874
83.797231	77.021678
86.375950	78.427972
88.949687	74.435664
91.524852	73.823077
94.097173	69.932168
96.668786	71.344056
99.237559	72.034965
101.807759	72.360839
104.375120	70.613287
106.943908	74.439161
109.509859	76.204196
112.072975	81.838462
114.639647	89.656643
117.197098	106.116783
119.760234	127.982517
122.318410	164.381119
124.880141	223.660140
127.436915	321.454545
129.995115	465.666434
132.548363	649.460839
135.100913	871.829371
137.657013	1117.132168
140.208165	1368.551049
142.758620	1613.765035
145.308377	1836.555944
147.855315	2024.274126
150.401558	2161.662238
152.949226	2253.119580
155.496198	2296.926573
158.038235	2309.245455
160.579578	2305.648252
163.120228	2283.351049
165.662304	2259.806993
168.201568	2232.184615
170.738023	2209.895804
173.273788	2200.039860
175.810978	2191.903497
178.347477	2197.036364
180.881170	2206.834266
183.412059	2217.846853
185.942260	2228.100699
188.473887	2245.790909
191.002712	2265.858741
193.528738	2291.693706
196.054078	2310.639860
198.580843	2330.258741
201.104812	2349.878322
203.628096	2360.695105
206.150695	2372.590909
208.670501	2384.606993
211.189623	2393.720979
213.708064	2399.682517
216.227928	2410.138462
218.740791	2411.181119
221.257185	2403.190909
223.772897	2383.465035
226.283719	2355.762937
228.795966	2336.195105
231.305431	2315.944056
233.814216	2295.886014
236.322324	2291.181818
238.831856	2292.551748
241.336507	2303.774825
243.840482	2314.569231
246.345881	2320.399301
248.846405	2332.804196
251.350452	2462.952448
253.847529	2876.586014
256.348129	3576.681119
258.845957	4355.923776
261.343112	5010.937762
263.839594	5470.601399
266.331213	5667.077622
268.826352	5609.437063
271.318724	5287.455944
273.810426	4746.846154
276.299365	4071.200699
278.789727	3399.732168
281.277328	2901.921678
283.762169	2696.969231
286.250525	2678.252448
288.731941	2664.892308
291.216871	2602.220280
293.696956	2507.230070
296.180553	2384.451049
298.659307	2268.878322
301.139484	2154.255944
303.616910	2076.430769
306.093672	2051.671329
308.569770	2087.620280
311.043121	2158.083916
313.515809	2240.680420
315.987836	2321.361538
318.459202	2382.793007
320.927823	2428.787413
323.395785	2447.334266
325.865170	2444.103497
328.329732	2416.890210
330.797798	2361.858741
333.261044	2303.830070
335.723632	2244.393007
338.185564	2212.961538
340.646839	2199.415385
343.105380	2195.795804
345.565343	2194.312587
348.022573	2188.644755
350.479149	2189.189510
352.935071	2187.509790
355.388263	2177.228671
357.842878	2170.877622
360.292691	2162.632168
362.746000	2150.586713
365.194510	2129.348252
367.642370	2115.971329
370.091652	2097.855944
372.536140	2086.976224
374.982050	2072.894406
377.427310	2062.606294
379.869852	2058.699301
382.311746	2051.495804
384.752993	2044.689510
387.191524	2043.009091
389.631476	2042.167133
392.068715	2032.817483
394.503243	2029.595105
396.941258	2024.674126
399.374496	2021.330070
401.809155	2020.765035
404.239042	2020.160140
406.672414	2026.288112
409.101016	2031.604895
411.528976	2035.509091
413.958358	2041.203497
416.382974	2045.156643
418.809012	2046.593706
421.234409	2040.830070
423.659166	2042.474825
426.079165	2045.682517
428.500584	2052.405594
430.919308	2063.820280
433.339452	2072.239161
435.756901	2077.406993
438.175770	2084.217483
440.591946	2090.090210
443.003374	2092.813986
445.418279	2096.393706
447.830495	2095.542657
450.242076	2090.648252
452.653023	2087.666434
455.061284	2082.277622
457.468912	2076.101399
459.875908	2077.155245
462.282273	2063.362937
464.685955	2052.389510
467.089007	2044.104196
469.491429	2036.427273
471.893221	2030.122378
474.292335	2029.341259
476.692869	2028.416084
479.092774	2033.518182
481.487957	2037.743357
483.886606	2041.913287
486.280534	2041.095105
488.673837	2042.362238
491.066515	2035.027972
493.458567	2030.983916
495.852037	2020.783217
498.240795	2005.193007
500.626887	1978.458042
503.014399	1943.579720
505.401288	1905.921678
507.785513	1875.986713
510.171156	1841.016783
512.554138	1801.727972
514.934459	1766.951049
517.316199	1743.545455
519.695280	1727.693007
522.075779	1721.251748
524.453622	1719.597203
526.828808	1717.084615
529.203378	1712.509091
531.579365	1702.848951
533.952700	1692.838462
536.327452	1681.953147
538.697519	1659.213287
541.066970	1632.918182
543.437839	1615.737063
545.804027	1597.095804
548.171634	1577.267133
550.536596	1560.662937
552.900944	1549.787413
555.264679	1538.255245
557.629832	1535.648951
559.990313	1532.123077
562.352212	1534.736364
564.711470	1537.042657
567.068090	1533.929371
569.428156	1534.762238
571.781530	1534.060140
574.138349	1535.562238
576.492533	1527.179021
578.846108	1515.974825
581.199076	1505.448951
583.549411	1492.418182
585.901164	1492.724476
588.246240	1492.181119
590.596779	1495.432867
592.940646	1497.316084
595.289974	1495.546154
597.634653	1499.601399
599.976708	1500.872028
602.320180	1508.239161
604.661029	1504.774126
607.001275	1497.270629
609.338902	1492.876923
611.679963	1486.050350
614.016386	1485.367832
616.354226	1485.256643
618.689449	1477.397902
621.022056	1473.888811
623.356079	1467.056643
625.687488	1461.585315
628.018299	1457.072727
630.348513	1455.321678
632.678128	1452.682517
635.003120	1450.925874
637.333554	1452.948252
639.659367	1455.830070
641.982572	1462.747552
644.307194	1467.916084
646.629210	1466.844755
648.950632	1469.244056
651.269452	1467.544755
653.589687	1461.506993
655.909329	1464.379720
658.226370	1468.348252
660.542819	1469.001399
662.856670	1469.804895
665.171937	1466.768531
667.484607	1471.111189
669.798692	1470.113986
672.108177	1464.181119
674.419078	1459.078322
676.727386	1458.552448
679.035106	1454.553147
681.344240	1446.411888
683.648782	1445.740559
685.952738	1444.230769
688.256108	1437.439161
690.560892	1429.753147
692.861089	1420.039860
695.162702	1413.611189
697.463729	1402.595105
699.760175	1393.864336
702.058036	1386.417483
704.355313	1383.137762
706.652007	1376.300699
708.944125	1369.011888
711.239654	1365.886014
713.530609	1364.682517
715.822979	1363.509790
718.112774	1357.865035
720.401988	1355.895105
722.690623	1353.730070
724.976685	1355.025874
727.264162	1355.831469
729.549067	1356.672727
731.833395	1361.897203
734.115154	1364.941958
736.398327	1365.407692
738.680923	1364.922378
740.958963	1367.060140
743.238418	1362.116783
745.517296	1353.643357
747.795600	1348.854545
750.069354	1348.306993
752.344521	1348.283217
754.619115	1346.641958
756.891150	1348.306294
759.164598	1345.900699
761.435488	1348.074126
763.703822	1346.440559
765.973569	1349.830769
768.240761	1351.520280
770.507384	1339.752448
772.773436	1345.602098
775.036937	1344.928671
777.301851	1353.456643
779.566195	1355.886713
781.826010	1360.948252
784.087237	1366.482517
786.347897	1368.800699
788.606011	1370.532867
790.861580	1366.293007
793.120540	1363.763636
795.373000	1353.000699
797.630828	1342.699301
799.884137	1342.131469
802.134906	1339.799301
804.387087	1335.597203
806.636729	1329.330769
808.887784	1322.101399
811.134327	1320.544056
813.382282	1321.640559
815.627703	1305.551049
817.874535	1297.064336
820.120806	1296.531469
822.362572	1294.451049
824.607722	1289.735664
826.846399	1291.326573
829.088458	1297.495804
831.326019	1288.241958
833.564992	1278.192308
835.801438	1273.072028
838.039295	1274.398601
840.274627	1262.038462
842.507436	1250.357343
844.741656	1246.104196
846.973353	1250.537762
849.204496	1260.544056
851.435084	1260.781818
853.665118	1253.861538
855.894598	1256.060839
858.119596	1255.909091
860.347969	1250.047552
862.571862	1252.325175
864.797167	1246.890210
867.017996	1244.699301
869.242197	1244.981818
871.461925	1248.613287
873.683063	1267.746853
875.903651	1284.469231
878.121730	1282.425175
880.341218	1273.538462
882.556240	1276.054545
884.770714	1276.667133
886.984641	1278.808392
889.198021	1268.987413
891.410853	1270.994406
893.623139	1263.600699
895.832922	1259.779021
898.042160	1276.446853
900.250853	1289.290210
902.457046	1293.002098
904.664650	1287.947552
906.869755	1282.586014
909.074317	1286.640559
911.276384	1290.402797
913.479860	1300.038462
915.680842	1286.806993
917.881282	1296.927972
920.083131	1284.959441
922.278589	1302.521678
924.477406	1305.737762
926.671784	1295.241259
928.869520	1283.806993
931.062820	1276.726573
933.257529	1290.864336
935.449752	1303.218182
937.641436	1294.756643
939.832583	1296.090909
942.021247	1283.073427
944.209375	1291.881119
946.395022	1287.333566
948.584021	1286.304895
950.768597	1282.025874
952.952638	1274.702098
955.140029	1262.965734
957.319116	1267.803497
959.501554	1290.248252
961.683458	1301.765734
963.862887	1289.447552
966.039844	1301.087413
968.218209	1324.423077
970.397981	1355.461538
972.571404	1373.265734
974.748173	1391.493007
976.920535	1399.581818
979.094305	1412.864336
981.263671	1417.355944
983.436381	1407.591608
985.606626	1394.853846
987.776341	1378.530070
989.945529	1351.272028
992.110319	1332.450350
994.278450	1318.453846
996.442186	1298.283217
998.607330	1299.158741
1000.770014	1291.435664
1002.932173	1272.090210
1005.091875	1281.695105
1007.251052	1272.652448
1009.411636	1260.186014
1011.569765	1251.228671
1013.727371	1233.184615
1015.884453	1214.297902
1018.041011	1167.751049
1020.193190	1164.560140
1022.346776	1158.779021
1024.499840	1158.444755
1026.650455	1128.404196
1028.802477	1079.558042
1030.950125	1027.767832
1033.101105	962.113986
1035.247714	897.346154
1037.393804	828.072028
1039.539376	752.116783
1041.686353	672.806294
1043.827041	602.177622
1045.971059	599.028671
1048.112636	574.436364
1050.253697	579.025175
1052.396162	593.532168
1054.532347	600.379021
1056.671859	596.884615
1058.807016	608.771329
1060.945497	622.995105
1063.079624	644.131469
1065.213238	653.372727
1067.348256	644.906993
1069.478926	690.983217
1071.611000	737.874126
1073.740645	763.853846
1075.869778	833.862937
1077.998399	912.086713
1080.126509	957.846853
1082.252193	1006.287413
1084.377367	1071.217483
1086.503945	1106.606993
1088.626185	1117.903497
1090.749830	1140.982517
1092.869140	1184.871329
1094.993679	1234.646853
1097.111974	1239.766434
1099.231673	1249.709091
1101.348953	1284.909091
1103.465726	1306.014685
1105.581994	1322.366434
1107.695845	1336.281818
1109.811101	1342.750350
1111.922033	1320.541259
1114.036278	1309.194406
1116.146202	1303.363636
1118.257530	1333.034266
1120.368353	1332.011189
1122.474860	1319.981818
1124.584676	1296.232168
1126.690179	1295.406993
1128.797084	1300.199301
1130.897774	1324.548951
1133.003676	1332.185315
1135.105269	1370.969930
1137.208265	1382.518881
1139.310760	1383.437762
1141.407048	1380.663636
1143.508543	1393.781119
1145.605736	1369.840559
1147.702431	1340.456643
1149.798627	1298.955944
1151.894325	1291.139860
1153.989526	1287.060839
1156.082330	1291.696503
1158.176536	1313.790210
1160.264551	1364.083217
1162.357765	1371.361538
1164.444790	1384.972727
1166.535114	1401.714685
1168.621150	1395.871329
1170.710485	1388.530769
1172.793638	1390.110490
1174.878193	1385.028671
1176.964150	1371.753147
1179.045825	1358.844056
1181.128901	1355.155245
1183.209592	1354.741958
1185.289792	1364.937762
1187.369500	1367.653147
1189.448717	1382.065035
1191.525552	1385.980420
1193.600005	1386.019580
1195.677751	1390.593007
1197.751227	1396.655944
1199.826103	1393.078322
1201.896712	1383.609091
1203.968722	1375.574825
1206.038357	1374.710490
1208.109391	1356.741958
1210.179939	1364.642657
1212.246225	1363.291608
1214.313912	1364.357343
1216.379227	1366.593007
1218.445942	1369.337063
1220.508401	1369.495804
1222.574145	1379.994406
1224.635635	1386.161538
1226.698526	1388.536364
1228.759049	1389.955245
1230.819088	1397.956643
1232.878644	1395.209790
1234.935836	1406.746853
1236.992546	1390.835664
1239.046892	1386.237762
1241.104520	1374.946154
1243.159785	1377.433566
1245.210809	1368.241958
1247.263233	1377.155944
1249.315177	1377.801399
1251.364763	1375.527273
1253.413870	1364.437762
1255.462498	1341.550350
1257.510648	1344.487413
1259.558320	1341.903497
1261.601761	1327.852448
1263.648478	1328.269231
1265.692841	1338.304895
1267.736728	1347.135664
1269.778263	1351.077622
1271.817449	1365.137063
1273.859908	1364.511888
1275.898144	1369.645455
1277.937779	1345.106993
1279.976939	1303.752448
1282.011880	1296.386713
1284.048220	1279.151049
1286.082216	1252.048252
1288.117609	1249.832867
1290.148790	1254.865734
1292.181368	1261.686713
1294.213475	1277.545455
1296.243241	1302.411189
1298.274404	1312.958741
1300.301361	1342.527972
1302.329715	1342.739161
1304.353864	1342.613986
1306.381279	1356.303497
1308.404491	1361.099301
1310.429101	1343.686713
1312.451377	1352.645455
1314.475049	1353.727273
1316.496389	1358.907692
1318.517262	1355.335664
1320.537667	1356.630769
1322.553879	1344.300000
1324.571488	1356.100699
1326.586769	1341.295105
1328.605309	1352.034266
1330.619660	1345.553147
1332.631684	1338.692308
1334.646967	1335.737063
1336.658064	1339.846853
1338.670558	1336.750350
1340.678869	1337.306294
1342.690435	1326.197902
1344.695963	1330.698601
1346.704746	1344.662238
1348.709351	1363.437063
1350.717210	1361.674825
1352.724607	1373.737762
1354.725973	1360.967832
1356.728735	1358.883217
1358.731038	1373.629371
1360.732881	1371.981818
1362.734264	1370.537762
1364.733334	1371.518881
1366.731945	1376.025874
1368.730097	1383.993007
1370.727792	1380.023776
1372.721324	1385.772028
1374.716251	1391.704196
1376.710722	1381.827972
1378.704736	1367.172727
1380.696443	1364.496503
1382.687694	1359.663636
1384.676640	1357.581818
1386.666982	1352.283916
1388.656868	1369.193007
1390.644450	1376.465035
1392.631579	1375.134266
1394.616406	1372.415385
1396.602628	1381.218182
1398.586549	1386.934965
1400.570018	1374.572028
1402.553035	1368.705594
1404.533754	1360.888112
1406.515867	1361.752448
1408.495684	1377.995804
1410.475049	1371.951748
1412.450276	1385.010490
1414.428741	1376.104895
1416.404913	1379.058042
1418.380635	1378.186713
1420.355909	1373.250350
1422.328891	1366.719580
1424.301425	1362.284615
1426.273511	1349.704196
1428.245150	1354.197902
1430.212660	1358.591608
1432.185244	1363.311189
1434.150022	1363.438462
1436.119873	1367.551049
1438.085600	1363.636364
1440.052719	1368.830070
1442.017555	1389.066434
1443.978271	1401.032168
1445.944055	1408.437063
1447.903884	1423.533566
1449.865107	1400.794406
1451.827721	1412.425874
1453.786221	1405.658042
1455.744279	1411.940559
1457.701895	1414.878322
1459.659068	1411.060140
1461.613966	1401.279720
1463.570257	1394.816783
1465.524273	1402.104895
1467.477848	1389.406993
1469.429151	1378.541958
1471.381846	1367.215385
1473.332270	1353.369930
1475.282255	1371.514685
1477.231801	1370.569231
1479.179078	1379.537063
1481.124087	1390.258042
1483.070489	1399.765035
1485.016453	1404.832867
1486.961980	1411.244755
1488.905241	1415.627972
1490.848067	1417.588811
1492.788628	1427.851748
1494.730582	1430.890909
1496.670273	1443.323077
1498.609529	1459.207692
1500.548351	1456.232867
1502.484913	1448.755944
1504.422866	1437.130769
1506.358560	1426.693706
1508.293821	1418.097902
1510.226825	1404.012587
1512.159398	1393.369930
1514.091538	1387.244755
1516.023246	1386.084615
1517.952700	1366.719580
1519.883545	1371.506294
1521.813958	1380.593706
1523.740299	1369.730769
1525.668030	1373.612587
1527.593512	1376.190909
1529.518564	1400.176923
1531.443187	1411.579021
1533.367380	1419.165734
1535.289327	1412.076923
1537.212664	1409.991608
1539.133754	1410.090909
1541.052600	1408.002098
1542.972836	1411.265035
1544.890829	1416.072028
1546.808394	1420.198601
1548.723719	1453.125175
1550.640433	1464.866434
1552.553092	1496.557343
1554.468955	1503.235664
1556.382578	1502.798601
1558.293963	1474.490210
1560.206738	1460.700699
1562.115463	1439.447552
1564.025577	1433.655944
1565.935268	1428.672727
1567.844536	1428.959441
1569.751570	1418.110490
1571.656371	1415.770629
1573.562561	1420.916084
1575.466519	1428.251748
1577.370056	1436.581119
1579.273173	1430.290909
1581.174060	1409.955944
1583.076336	1400.767133
1584.976384	1398.785315
1586.877819	1415.497203
1588.775221	1413.438462
1590.672204	1416.671329
1592.568769	1394.241958
1594.466721	1412.056643
1596.358839	1427.772028
1598.254151	1419.460839
1600.149045	1419.265734
1602.041717	1413.267832
1603.933972	1398.365035
1605.824008	1406.220280
1607.713628	1410.320280
1609.602833	1416.772028
1611.491623	1430.965035
1613.378195	1432.805594
1615.266155	1446.623776
1617.150098	1461.390210
1619.035428	1459.465035
1620.920345	1456.229371
1622.803048	1465.279021
1624.687138	1444.925874
1626.567216	1429.992308
1628.448682	1444.895105
1630.327937	1437.648951
1632.208578	1431.830070
1634.083415	1432.004895
1635.963233	1403.914685
1637.839047	1397.576224
1639.714450	1378.196503
1641.591239	1359.967133
1643.462232	1368.551748
1645.336406	1378.348951
1647.206581	1387.796503
1649.079937	1396.592308
1650.951090	1423.132867
1652.820042	1428.020280
1654.690378	1438.148252
1656.556722	1443.328671
1658.424451	1434.344056
1660.289981	1412.217483
1662.156897	1411.208392
1664.019823	1377.467832
1665.884136	1389.648252
1667.746252	1378.962937
1669.607963	1384.823077
1671.471060	1370.917483
1673.331961	1359.507692
1675.190670	1340.469231
1677.048975	1319.983217
1678.908664	1298.902797
1680.762587	1276.658741
1682.619683	1278.677622
1684.476375	1285.241259
1686.329092	1281.650350
1688.184980	1294.892308
1690.036894	1284.997203
1691.888407	1282.969930
1693.739519	1309.697902
1695.590230	1284.943357
1697.440541	1259.539860
1699.288668	1247.041259
1701.138179	1220.073427
1702.981940	1233.967832
1704.830652	1249.189510
1706.673617	1227.626573
1708.519749	1224.562937
1710.361918	1235.237762
1712.207253	1229.575524
1714.046847	1219.946154
1715.887825	1238.934266
1717.730186	1206.563636
1719.568591	1185.395105
1721.408379	1184.691608
1723.245991	1156.809091
1725.083209	1158.962238
1726.918253	1113.713287
1728.754680	1084.130769
1730.588935	1064.010490
1732.422795	1067.084615
1734.256261	1083.732867
1736.085782	1074.221678
1737.918461	1087.164336
1739.747196	1080.167133
1741.579088	1091.521678
1743.407038	1119.925874
1745.234596	1123.128671
1747.061763	1135.676224
1748.888538	1127.197902
1750.714921	1132.203497
1752.537368	1122.929371
1754.362970	1130.323077
1756.184637	1167.208392
1758.007686	1192.280420
1759.828573	1185.311888
1761.649072	1235.319580
1763.470951	1248.446853
1765.287132	1273.113986
1767.106464	1276.200699
1768.921868	1295.258741
1770.740424	1271.783916
1772.555054	1234.055245
1774.369297	1230.623077
1776.183154	1245.261538
1777.996624	1272.586014
1779.807941	1295.746154
1781.620638	1285.810490
1783.432950	1346.183916
1785.241343	1350.870629
1787.051118	1380.830070
1788.856978	1395.480420
1790.665983	1411.097203
1792.471075	1388.623776
1794.277548	1331.967133
1796.083637	1339.155944
1797.885815	1353.225175
1799.691138	1368.546853
1801.492552	1377.789510
1803.295346	1381.351049
1805.094234	1394.058042
1806.894503	1403.920280
1808.694390	1458.390909
1810.492135	1486.116084
1812.289500	1495.872727
1814.086484	1483.855245
1815.883089	1457.881818
1817.677554	1455.648252
1819.473398	1458.279720
1821.263587	1476.676224
1823.058673	1448.161538
1824.848106	1425.951049
1826.640677	1411.566434
1828.431112	1429.198601
1830.219413	1452.717483
1832.010849	1440.091608
1833.796639	1438.269930
1835.583809	1445.539860
1837.368847	1463.560839
1839.157019	1448.705594
1840.941305	1482.841958
1842.723461	1496.460140
1844.506997	1494.730769
1846.288404	1495.171329
1848.071190	1509.596503
1849.850095	1522.118182
1851.630379	1494.437762
1853.408538	1486.148252
1855.188075	1484.950350
1856.965486	1482.890210
1858.740775	1482.706993
1860.517441	1464.562238
1862.291985	1474.099301
1864.067907	1452.544056
1865.838208	1470.122378
1867.611637	1459.890210
1869.382946	1468.146853
1871.153884	1487.786713
1872.926200	1489.934266
1874.692902	1507.864336
1876.462729	1534.825874
1878.228693	1560.774126
1879.997781	1580.039161
1881.763007	1585.869930
1883.527865	1586.762238
1885.294100	1573.210490
1887.056476	1560.256643
1888.818484	1537.427972
1890.580126	1526.262238
1892.341401	1522.133566
1894.102308	1510.180420
1895.862849	1511.809091
1897.621280	1523.217483
1899.379345	1531.242657
1901.135303	1539.648252
1902.892637	1546.844056
1904.649606	1544.074825
1906.404468	1547.076224
1908.157226	1524.521678
1909.909619	1502.780420
1911.663389	1494.204895
1913.415055	1489.630769
1915.164619	1474.250350
1916.915558	1477.459441
1918.666135	1466.829371
1920.412872	1468.231469
1922.160986	1469.797902
1923.907000	1473.755944
1925.654389	1494.680420
1927.399681	1509.917483
1929.142875	1506.739860
1930.887444	1496.844755
1932.629917	1504.461538
1934.372031	1502.323077
1936.113784	1489.798601
1937.855177	1501.751748
1939.594477	1491.587413
1941.333418	1496.658741
1943.072000	1488.793007
1944.808491	1499.730070
1946.544624	1510.712587
1948.282131	1509.744755
1950.015816	1526.958042
1951.750876	1523.264336
1953.483847	1517.914685
1955.216462	1521.306294
1956.948721	1519.096503
1958.680623	1506.820280
1960.410439	1500.053147
1962.138170	1508.948951
1963.867276	1524.132867
1965.596026	1556.677622
1967.322694	1554.957343
1969.049007	1575.451049
1970.776693	1576.328671
1972.498843	1562.855944
1974.224094	1547.283916
1975.945538	1554.530769
1977.670082	1533.793007
1979.392547	1500.002797
1981.111209	1494.319580
1982.832969	1513.391608
1984.550927	1526.820280
1986.270258	1560.901399
1987.985790	1564.423776
1989.706142	1582.225874
1991.422696	1588.260839
1993.135453	1576.353846
1994.851306	1574.323077
1996.565087	1590.500000
1998.278518	1573.327273
1999.989878	1557.108392
2001.702610	1554.466434
2003.411552	1561.101399
2005.123586	1560.893706
2006.830111	1561.306993
2008.539729	1557.950350
2010.247279	1563.297203
2011.954482	1564.848252
2013.659619	1557.750350
2015.364410	1585.862937
2017.070572	1596.676923
2018.772952	1597.682517
2020.476703	1592.269930
2022.178392	1597.830070
2023.879735	1607.076923
2025.580734	1616.853147
2027.279671	1609.662937
2028.979980	1614.953846
2030.676513	1614.669930
2032.374418	1618.150350
2034.070265	1613.453147
2035.769197	1621.373427
2037.462643	1601.333566
2039.157460	1589.506294
2040.851935	1577.381119
2042.542641	1578.248252
2044.236431	1574.756643
2045.926454	1570.166434
2047.617848	1567.719580
2049.307189	1579.493706
2050.997900	1580.993007
2052.684848	1586.906993
2054.371457	1576.992308
2056.059435	1583.666434
2057.743654	1572.878322
2059.429244	1567.859441
2061.114494	1567.746853
2062.797695	1569.426573
2064.482267	1577.417483
2066.161375	1580.437762
2067.845270	1607.313287
2069.523703	1613.449650
2071.205214	1616.953846
2072.882973	1621.184615
2074.560396	1605.707692
2076.239188	1603.629371
2077.915938	1586.575524
2079.590645	1579.566434
2081.266723	1576.872727
2082.940759	1586.758741
2084.614461	1605.023776
2086.287827	1602.588811
2087.959154	1601.911888
2089.630147	1583.227972
2091.300806	1579.434266
2092.971131	1555.610490
2094.641122	1531.031469
2096.309077	1541.181818
2097.976698	1534.886014
2099.642286	1547.745455
2101.309242	1569.373427
2102.974165	1595.802797
2104.638756	1622.534266
2106.301315	1629.394406
2107.965242	1635.023776
2109.627138	1647.567832
2111.288704	1652.967133
2112.949938	1647.391608
2114.609144	1637.157343
2116.268019	1634.205594
2117.926565	1620.959441
2119.584780	1621.748252
2121.239273	1616.812587
2122.896830	1619.651748
2124.554057	1622.873427
2126.207564	1619.460140
2127.862438	1625.690210
2129.513593	1633.546154
2131.167811	1620.147552
2132.818311	1615.465035
2134.470179	1618.725874
2136.116638	1613.964336
2137.767852	1611.504895
2139.415352	1609.051049
2141.064219	1605.930070
2142.711067	1615.709091
2144.357590	1613.730070
2146.003787	1612.029371
2147.646276	1625.806294
2149.291823	1618.965035
2150.933663	1608.627273
2152.578560	1597.371329
2154.219751	1609.569231
2155.860620	1610.519580
2157.501164	1622.998601
2159.139696	1628.200000
2160.779594	1632.199301
2162.415792	1652.453147
2164.053356	1653.154545
2165.690598	1650.812587
2167.325830	1657.961538
2168.960740	1649.405594
2170.595329	1633.423077
2172.229597	1616.390210
2173.860171	1627.195105
2175.493797	1621.508392
2177.123731	1617.968531
2178.755030	1613.100699
2180.384324	1599.746154
2182.013299	1619.956643
2183.641954	1607.223077
2185.270290	1608.790210
2186.896624	1610.648252
2188.522639	1615.239161
2190.146652	1623.369231
2191.772031	1648.048951
2193.395409	1658.934965
2195.020152	1649.216783
2196.641214	1647.159441
2198.261959	1635.744056
2199.884068	1633.688811
2201.504180	1632.985315
2203.122296	1616.613287
2204.740096	1607.446853
2206.357581	1589.340559
2207.974750	1602.567133
2209.591604	1599.248252
2211.208142	1602.064336
2212.822688	1605.518182
2214.435241	1613.334965
2216.049158	1615.520280
2217.661084	1606.245455
2219.274373	1619.558741
2220.885672	1606.740559
2222.494981	1611.295804
2224.105654	1613.919580
2225.714338	1615.669930
2227.322709	1639.516783
2228.929094	1625.279021
2230.536841	1632.116084
2232.142603	1635.240559
2233.748053	1640.495804
2235.351518	1611.969930
2236.956346	1612.109790
2238.559190	1619.621678
2240.160051	1600.913287
2241.762275	1613.827972
2243.362517	1628.619580
2244.964121	1644.285315
2246.562072	1650.479021
2248.161386	1655.744056
2249.758720	1661.349650
2251.355746	1655.149650
2252.954134	1672.081119
2254.548873	1670.718881
2256.141635	1703.610490
2257.735760	1718.998601
2259.331246	1715.406993
2260.923087	1734.967133
2262.514622	1736.173427
2264.107519	1769.227972
2265.695106	1780.662937
2267.287389	1807.845455
2268.874366	1788.281119
2270.464370	1771.320979
2272.049070	1784.108392
2273.638464	1776.447552
2275.222556	1772.578322
2276.808008	1751.407692
2278.391492	1717.985315
2279.978001	1695.725874
2281.560877	1688.575524
2283.143450	1722.968182
2284.725719	1742.030769
2286.304358	1748.324126
2287.886022	1734.805594
2289.464057	1737.008741
2291.045115	1756.077622
2292.622546	1741.885664
2294.198014	1747.925874
2295.776504	1750.961189
2297.351370	1749.928671
2298.925935	1743.375175
2300.500199	1757.651049
2302.074164	1745.919930
2303.647827	1749.201399
2305.221191	1725.256643
2306.790936	1711.984615
2308.360382	1683.166434
2309.932846	1663.387413
2311.500036	1633.169231
2313.070244	1656.266434
2314.636837	1682.508392
2316.204790	1685.202797
2317.770787	1686.411888
2319.336487	1709.725874
2320.901889	1742.739860
2322.465338	1790.944056
2324.030146	1802.181818
2325.591346	1829.416783
2327.155560	1827.710490
2328.714512	1817.710490
2330.276478	1799.441259
2331.836494	1819.674126
2333.396215	1806.986014
2334.953986	1790.934965
2336.511462	1773.316783
2338.068644	1766.135664
2339.623878	1771.535664
2341.178819	1768.811888
2342.733465	1730.700699
2344.287818	1724.230070
2345.841877	1706.727273
2347.395643	1700.132168
2348.947464	1694.870629
2350.497343	1706.472727
2352.050229	1713.299301
2353.597872	1733.432867
2355.148524	1739.524476
2356.695584	1756.530769
2358.244002	1775.206993
2359.792129	1790.183217
2361.336667	1777.393007
2362.882563	1795.843357
2364.426521	1795.153147
2365.971835	1812.022378
2367.513566	1841.415385
2369.056653	1834.588811
2370.597804	1826.123776
2372.138666	1821.731469
2373.679239	1832.620280
2375.219523	1831.858741
2376.759518	1849.902098
2378.295935	1849.760140
2379.835353	1856.253846
2381.371193	1879.508392
2382.908391	1899.530070
2384.442013	1901.043357
2385.978635	1906.225874
2387.513327	1866.040559
2389.046089	1839.609790
2390.578564	1832.919580
2392.109111	1795.336364
2393.642656	1764.594406
2395.170990	1753.277622
2396.700680	1722.083916
2398.230085	1703.716783
2399.759205	1732.446154
2401.288039	1758.770629
2402.811669	1760.446853
2404.339934	1783.831469
2405.862997	1812.008392
2407.390693	1846.769930
2408.911550	1885.691608
2410.437039	1896.295105
2411.958969	1905.116084
2413.482253	1905.139161
2415.003617	1873.199301
2416.523061	1848.890210
2418.043860	1853.093007
2419.562740	1852.130070
2421.081339	1842.260140
2422.598020	1822.504895
2424.116055	1835.637762
2425.633809	1863.797902
2427.148011	1872.549650
2428.661934	1861.653147
2430.175576	1851.597902
2431.690573	1834.266434
2433.202021	1789.832867
2434.714823	1774.773427
2436.225713	1778.131469
2437.736324	1777.681818
2439.245023	1790.230769
2440.756708	1789.552448
2442.264850	1833.450350
2443.772714	1871.374825
2445.280299	1873.291608
2446.784345	1860.020979
2448.291375	1874.347552
2449.796497	1869.567133
2451.301342	1893.114685
2452.804280	1911.762937
2454.306942	1922.288811
2455.809327	1932.434266
2457.309807	1924.718881
2458.811640	1907.129371
2460.311568	1926.279720
2461.811221	1915.981818
2463.310599	1886.647552
2464.808074	1878.333566
2466.303647	1864.444056
2467.802200	1878.306993
2469.297225	1894.376923
2470.793602	1871.032168
2472.286453	1876.106294
2473.780657	1860.738462
2475.274587	1823.522378
2476.764993	1842.499301
2478.258377	1852.465035
2479.749863	1850.966434
2481.239452	1874.537762
2482.728769	1915.594406
2484.216190	1898.218182
2485.706587	1940.518881
2487.193466	1944.539860
2488.681696	1949.797902
2490.166409	1959.369930
2491.650853	1920.598601
2493.136647	1878.490210
2494.620550	1858.485315
2496.105803	1830.277622
2497.585923	1817.880420
2499.069016	1805.500000
2500.550218	1796.852448
2502.031151	1780.000000
2503.510195	1793.049650
2504.988970	1788.073427
2506.467477	1801.449650
2507.945716	1823.109790
2509.423686	1824.113287
2510.898151	1840.452448
2512.375586	1860.361538
2513.849517	1879.880420
2515.324798	1866.628671
2516.799812	1879.426573
2518.271325	1888.638462
2519.744189	1887.321678
2521.215170	1861.765734
2522.687501	1864.704196
2524.154718	1873.952448
2525.624902	1898.502098
2527.093205	1907.118182
2528.561243	1931.779720
2530.029016	1928.762238
2531.496524	1912.983916
2532.963767	1887.692308
2534.427518	1900.334965
2535.892619	1867.250350
2537.355843	1819.549650
2538.820416	1818.210490
2540.281501	1845.124476
2541.743935	1861.925175
2543.206106	1875.429371
2544.664791	1902.800000
2546.128047	1930.438462
2547.586208	1942.183217
2549.045717	1947.306993
2550.500132	1960.993007
2551.959118	1979.129371
2553.416232	1945.220280
2554.871474	1935.416783
2556.326456	1970.355245
2557.779569	1973.469231
2559.234029	1967.377622
2560.686621	1942.472028
2562.138953	1934.151049
2563.589418	1921.423776
2565.042838	1918.950350
2566.491176	1917.097203
2567.942469	1931.698601
2569.391897	1928.402797
2570.837852	1920.103497
2572.286762	1970.613986
2573.732202	1992.588112
2575.178989	1997.595105
2576.623913	1982.267133
2578.068580	1984.110490
2579.514594	1987.422378
2580.957142	1989.681818
2582.401037	1989.684615
2583.841466	1999.010490
2585.283244	2021.800000
2586.723162	2019.786014
2588.164427	2009.821678
2589.602230	2037.372028
2591.042983	2008.674126
2592.478674	1986.832867
2593.917314	1969.997902
2595.354096	1975.001399
2596.789023	1962.083916
2598.226897	1916.989510
2599.659714	1905.225874
2601.093878	1909.999301
2602.526188	1912.648252
2603.959844	1902.157343
2605.391647	1895.695804
2606.823196	1941.897203
2608.254493	1931.644755
2609.683937	1953.500000
2611.113129	1969.270629
2612.540471	1970.620280
2613.969158	1948.456643
2615.397594	1889.203497
2616.822582	1874.389510
2618.248917	1848.407692
2619.673403	1849.697902
2621.099235	1867.857343
2622.521623	1903.681119
2623.945357	1948.030769
2625.367244	1951.700000
2626.788882	1981.590210
2628.208674	2000.098601
2629.629812	2023.370629
2631.050700	2004.911189
2632.468149	2008.673427
2633.888539	2005.566434
2635.305491	2012.710490
2636.722194	2007.165035
2638.138649	2017.832168
2639.554856	2029.376923
2640.970815	2007.283916
2642.384933	1990.788811
2643.798803	1988.830070
2645.210834	1997.184615
2646.624210	2007.447552
2648.034156	2001.107692
2649.447038	2030.379021
2650.856491	2021.158741
2652.265698	2014.539161
2653.673069	1973.737762
2655.083374	1951.043357
2656.491844	1931.277622
2657.898478	1903.012587
2659.304867	1885.473427
2660.709422	1880.270629
2662.115321	1874.239860
2663.519387	1888.777622
2664.923208	1925.195804
2666.326785	1964.242657
2667.728531	2003.066434
2669.131620	2015.036364
2670.531291	2015.291608
2671.932306	2016.384615
2673.329905	2032.646154
2674.730433	2044.497902
2676.127547	2027.402797
2677.526004	2032.071329
2678.922634	2021.034266
2680.319021	2016.134266
2681.715166	2025.090210
2683.109485	2038.167133
2684.505147	2071.034266
2685.897400	2061.574126
2687.290995	2065.752448
2688.682766	2074.126573
2690.075880	2057.488811
2691.467170	2063.323077
2692.856637	2046.025874
2694.245864	2037.719580
2695.634852	2017.606294
2697.025181	1992.398601
2698.410527	1993.947552
2699.798796	2003.537063
2701.185245	2014.179021
2702.571455	2017.311189
2703.957426	2029.116084
2705.339999	2021.558741
2706.723914	2005.545455
2708.107591	2017.576224
2709.491029	2016.747552
2710.871072	2022.517483
2712.252457	2015.291608
2713.632027	2031.156643
2715.012937	2028.950350
2716.392033	2012.773427
2717.769315	2005.062238
2719.147938	2002.413986
2720.524747	1987.306294
2721.901321	2007.730070
2723.277659	2025.882517
2724.652186	2027.822378
2726.028053	2049.648252
2727.400533	2087.816084
2728.775929	2091.338462
2730.146365	2128.182517
2731.518142	2112.871329
2732.889684	2098.349650
2734.259418	2077.563636
2735.630493	2052.971329
2736.999759	2037.389510
2738.368792	2041.444755
2739.736019	2027.338462
2741.103012	2004.795804
2742.469773	2007.624476
2743.836301	2030.234266
2745.201025	2016.290210
2746.565516	2037.383916
2747.929776	2038.992308
2749.293803	2040.365734
2750.657599	2042.296503
2752.018021	2040.087413
2753.381353	2048.461538
2754.739743	2040.002797
2756.101043	2045.021678
2757.458973	2025.183916
2758.819811	2023.413986
2760.178850	2023.046154
2761.534520	2020.860839
2762.893098	2029.595804
2764.248309	2009.223077
2765.603291	2009.902797
2766.956476	2008.253846
2768.312568	1996.850350
2769.665296	1990.153147
2771.017796	1990.804895
2772.370067	1985.725175
2773.723676	1984.837063
2775.073925	2008.024476
2776.422379	2021.903497
2777.773738	2050.200000
2779.121739	2060.327273
2780.471077	2054.709790
2781.818623	2081.422378
2783.165943	2079.129371
2784.513036	2079.949650
2785.858337	2074.593007
2787.203413	2087.133566
2788.548263	2076.633566
2789.892887	2069.845455
2791.234159	2077.804196
2792.576769	2077.567832
2793.919153	2077.066434
2795.261312	2069.131469
2796.600122	2071.557343
2797.941832	2090.590909
2799.280193	2087.177622
2800.619892	2097.563636
2801.957806	2094.182517
2803.293934	2111.302098
2804.629840	2117.714685
2805.967083	2112.706993
2807.302542	2115.565734
2808.637778	2110.546154
2809.971231	2095.442657
2811.306021	2093.618182
2812.637471	2111.575524
2813.971816	2117.838462
2815.301263	2108.474126
2816.632046	2124.429371
2817.962609	2115.131469
2819.291392	2143.014685
2820.621511	2150.904196
2821.949852	2148.465734
2823.277972	2140.895105
2824.604314	2126.755245
2825.931993	2106.220280
2827.256338	2106.440559
2828.582020	2120.830769
2829.905926	2110.182517
2831.229612	2097.902098
2832.554635	2102.928671
2833.876327	2079.265734
2835.197801	2094.457343
2836.519056	2075.860839
2837.840092	2062.334965
2839.159355	2055.924476
2840.479954	2057.216084
2841.798782	2041.850350
2843.117391	2052.918881
2844.434229	2065.945455
2845.750850	2088.172727
2847.067254	2096.476224
2848.381888	2119.695804
2849.697858	2131.927972
2851.010507	2139.587413
2852.324491	2144.996503
2853.638259	2140.034266
2854.951810	2138.762937
2856.263595	2135.723077
2857.573613	2113.892308
2858.884966	2097.864336
2860.193004	2092.367832
2861.502376	2100.229371
2862.811534	2099.765734
2864.120476	2111.675524
2865.427654	2117.832867
2866.733070	2126.204895
2868.039819	2144.517483
2869.344807	2140.671329
2870.649580	2143.513986
2871.952593	2148.253147
2873.258486	2159.027273
2874.559525	2178.964336
2875.861898	2197.600699
2877.162511	2195.172727
2878.464458	2202.594406
2879.766191	2194.901399
2881.064621	2176.433566
2882.364384	2164.222378
2883.662390	2143.824476
2884.960184	2136.097203
2886.256222	2133.782517
2887.553593	2101.262238
2888.849208	2094.679720
2890.144612	2112.949650
2891.439805	2134.295804
2892.731701	2145.402797
2894.026473	2155.509790
2895.317948	2164.476923
2896.610756	2166.590210
2897.903354	2158.569930
2899.192658	2169.847552
2900.483294	2200.544056
2901.772179	2214.428671
2903.062396	2205.302098
2904.349322	2249.628671
2905.637580	2276.327273
2906.924089	2299.474825
2908.210389	2304.724476
2909.496482	2305.490210
2910.780826	2306.467133
2912.068041	2288.328671
2913.350430	2241.727972
2914.634151	2217.520979
2915.916126	2228.948252
2917.197893	2210.340559
2918.477915	2216.839860
2919.760808	2237.806993
2921.041955	2220.446154
2922.319820	2231.824476
2923.600554	2256.919580
2924.878007	2269.110490
2926.155254	2283.485315
2927.430759	2297.686713
2928.709132	2287.552448
2929.982691	2294.036364
2931.259117	2313.602797
2932.533802	2288.218881
2933.806746	2280.472028
2935.081022	2263.010490
2936.353558	2243.094406
2937.625889	2238.072028
2938.894948	2229.063636
2940.166872	2197.620979
2941.437058	2198.903497
2942.707040	2202.004895
2943.976819	2204.969231
2945.244862	2210.815385
2946.511168	2197.282517
2947.777273	2182.367832
2949.044707	2166.074825
2950.310406	2148.683916
2951.575904	2178.712587
2952.841199	2191.749650
2954.103229	2201.789510
2955.366589	2218.372727
2956.629748	2247.034965
2957.891175	2258.586014
2959.153931	2283.581818
2960.414955	2269.196503
2961.674249	2258.375524
2962.933343	2241.344755
2964.192236	2217.718881
2965.450929	2228.986014
2966.709422	2241.818182
2967.966186	2240.720979
2969.222750	2264.746154
2970.477586	2281.163636
2971.733752	2296.243357
2972.986663	2293.601399
2974.240902	2306.402098
2975.494943	2290.090909
2976.747258	2289.041259
2977.999375	2277.390210
2979.249767	2276.144755
2980.503014	2289.900000
2981.751484	2275.901399
2983.002809	2275.483916
2984.250884	2287.735664
2985.498762	2262.217483
2986.746444	2268.410490
2987.993928	2262.024476
2989.239691	2281.597902
2990.485258	2270.975524
2991.732152	2277.155944
2992.975802	2287.768531
2994.220780	2294.838462
2995.462514	2312.858042
2996.707100	2314.491608
2997.949967	2298.640559
2999.189593	2281.532168
3000.432069	2268.809091
3001.671305	2269.596503
3002.911869	2276.685315
3004.150716	2278.920979
3005.389369	2265.541958
3006.626306	2267.982517
3007.864571	2261.637762
3009.101120	2280.939161
3010.337476	2303.379720
3011.573638	2324.807692
3012.808086	2328.366434
3014.042342	2339.588112
3015.276404	2353.534965
3016.508753	2355.251748
3017.739392	2367.553846
3018.972876	2359.693706
3020.204648	2347.958042
3021.434710	2336.660140
3022.664579	2332.654545
3023.892739	2343.222378
3025.122226	2344.595105
3026.350003	2342.041958
3027.577589	2345.725874
3028.806501	2351.886014
3030.030671	2346.445455
3031.257685	2335.886713
3032.481474	2319.278322
3033.706590	2302.929371
3034.929999	2299.297203
3036.153218	2310.973427
3037.374732	2328.005594
3038.599087	2344.950350
3039.818707	2348.532168
3041.039653	2360.510490
3042.260410	2376.181818
3043.479463	2376.239161
3044.699841	2354.235664
3045.917003	2326.852448
3047.135491	2309.720280
3048.352276	2293.700699
3049.568874	2285.806993
3050.785283	2271.334266
3051.998479	2270.446853
3053.214514	2280.812587
3054.427336	2272.960839
3055.642994	2268.283916
3056.853931	2249.065035
3058.066192	2263.033566
3059.278266	2252.312587
3060.490154	2252.820979
3061.700345	2267.832867
3062.910349	2263.593706
3064.120167	2256.224476
3065.328289	2255.327972
3066.536226	2250.368531
3067.742467	2266.411888
3068.950033	2259.673427
3070.155904	2251.934266
3071.361590	2245.438462
3072.567092	2255.268531
3073.770900	2233.394406
3074.976032	2231.994406
3076.179471	2240.979720
3077.381219	2223.807692
3078.582782	2218.611888
3079.784162	2223.755245
3080.985358	2209.234965
3082.184864	2210.940559
3083.384187	2193.579720
3084.584833	2181.198601
3085.783789	2177.158741
3086.979551	2178.382517
3088.178142	2175.813287
3089.373539	2181.825874
3090.570259	2175.614685
3091.763787	2165.049650
3092.960143	2180.901399
3094.154812	2195.670629
3095.346291	2206.656643
3096.542102	2207.486713
3097.733218	2221.865035
3098.925658	2225.148252
3100.114910	2254.527972
3101.306987	2257.471329
3102.497381	2253.881119
3103.684589	2241.776224
3104.873119	2233.144056
3106.062972	2241.063636
3107.249641	2232.499301
3108.436129	2244.359441
3109.622439	2248.795105
3110.810070	2244.191608
3111.994519	2243.433566
3113.177289	2231.478322
3114.362881	2232.610490
3115.546794	2225.960839
3116.729028	2205.486713
3117.911083	2205.780420
3119.092960	2224.609790
3120.274659	2232.653147
3121.454681	2227.181818
3122.633026	2251.230070
3123.814191	2249.668531
3124.992181	2258.466434
3126.169994	2249.856643
3127.347630	2240.182517
3128.523592	2228.769231
3129.699376	2224.498601
3130.876482	2204.616783
3132.051913	2213.165734
3133.225671	2206.749650
3134.397756	2201.247552
3135.571163	2216.058741
3136.744393	2225.144056
3137.915952	2240.194406
3139.088831	2261.309790
3140.258543	2258.637063
3141.429576	2267.977622
3142.598939	2271.381818
3143.766631	2273.504196
3144.937139	2279.339860
3146.102989	2286.788811
3147.273147	2298.465734
3148.438649	2309.474825
3149.603976	2335.458741
3150.769130	2328.835664
3151.934111	2336.601399
3153.100411	2318.672028
3154.262059	2310.876224
3155.425026	2313.869930
3156.587821	2311.134965
3157.750443	2304.483217
3158.911399	2297.663636
3160.072184	2318.867133
3161.232796	2332.355944
3162.391744	2335.653147
3163.550521	2361.572028
3164.709125	2338.093007
3165.867558	2344.284615
3167.025820	2326.510490
3168.182419	2325.279021
3169.337357	2321.412587
3170.493614	2321.453147
3171.648210	2300.862937
3172.802636	2288.151748
3173.955402	2299.167133
3175.107997	2308.812587
3176.260423	2296.374126
3177.412679	2292.425874
3178.564764	2272.083217
3179.713703	2320.081119
3180.865450	2319.923077
3182.015538	2328.776224
3183.163970	2345.609790
3184.312232	2364.547552
3185.460326	2361.476224
3186.608251	2393.279720
3187.754520	2407.916783
3188.900621	2421.745455
3190.045068	2395.941259
3191.189347	2382.867832
3192.333458	2381.734266
3193.478886	2397.166434
3194.621176	2365.662238
3195.763299	2353.075524
3196.905254	2352.112587
3198.047042	2345.141958
3199.188663	2333.659441
3200.327149	2341.566434
3201.466952	2341.760839
3202.608072	2344.088112
3203.746059	2345.263636
3204.882396	2327.713986
3206.018567	2338.213287
3207.156055	2337.607692
3208.291895	2342.423776
3209.429052	2359.916783
3210.561596	2370.343357
3211.698422	2375.559441
3212.830636	2373.461538
3213.964167	2390.720979
3215.097534	2399.261538
3216.227773	2392.858741
3217.360810	2393.226573
3218.490721	2372.767832
3219.621948	2388.739860
3220.750051	2390.636364
3221.880950	2407.004895
3223.010205	2429.928671
3224.137817	2431.098601
3225.262306	2438.276224
3226.391071	2433.964336
3227.516714	2453.969930
3228.642195	2447.330769
3229.766033	2438.462238
3230.892667	2444.665035
3232.014703	2448.455944
3233.138055	2466.583916
3234.261245	2463.118881
3235.384272	2461.906294
3236.505661	2458.918881
3237.626887	2448.983916
3238.746476	2452.872727
3239.865903	2446.843357
3240.983692	2428.717483
3242.104273	2410.919580
3243.221741	2396.958042
3244.339048	2398.328671
3245.456195	2422.600000
3246.571705	2430.253846
3247.688531	2432.173427
3248.802247	2439.655245
3249.918752	2456.307692
3251.033623	2469.719580
3252.145384	2498.718881
3253.256987	2502.640559
3254.369905	2495.949650
3255.482663	2501.227972
3256.592315	2496.193706
3257.703282	2483.974825
3258.814090	2492.500000
3259.923266	2485.980420
3261.030811	2490.888811
3262.139671	2504.653846
3263.248373	2539.349650
3264.353972	2553.910490
3265.460885	2563.046853
3266.566169	2576.532168
3267.672767	2586.015385
3268.776265	2588.727273
3269.881077	2576.828671
3270.985732	2573.186713
3272.087289	2558.370629
3273.188689	2546.276224
3274.291403	2563.039860
3275.393961	2594.365734
3276.493422	2612.298601
3277.595667	2602.341259
3278.694816	2590.574126
3279.792341	2596.420979
3280.889710	2573.495804
3281.989861	2558.359441
3283.086920	2540.557343
3284.183823	2545.683217
3285.280571	2521.518182
3286.372760	2512.879720
3287.469199	2531.131469
3288.564015	2516.183916
3289.658677	2492.384615
3290.751717	2467.923776
3291.844602	2451.215385
3292.935867	2425.404895
3294.028445	2411.883916
3295.119403	2409.779720
3296.208741	2414.960839
3297.297926	2439.460140
3298.388424	2453.640559
3299.475837	2478.109790
3300.563097	2500.836364
3301.651670	2511.958741
3302.740090	2517.685315
3303.823964	2512.747552
3304.912079	2519.169930
3305.997112	2513.327972
3307.080530	2527.788112
3308.165260	2524.420979
3309.248374	2524.804895
3310.332801	2548.674825
3311.414149	2558.301399
3312.496809	2559.169231
3313.577855	2568.967832
3314.658750	2589.607692
3315.738031	2591.129371
3316.817162	2586.032867
3317.897605	2576.700000
3318.974973	2577.470629
3320.053653	2588.041259
3321.130721	2605.586014
3322.207640	2626.263636
3323.282947	2663.571329
3324.358105	2680.369231
3325.434574	2698.472028
3326.507973	2726.793706
3327.581222	2746.341958
3328.655783	2755.648951
3329.728735	2732.115385
3330.800078	2706.748252
3331.872732	2706.532168
3332.942320	2705.362238
3334.013218	2707.534266
3335.082509	2698.445455
3336.153111	2703.748951
3337.222106	2704.525175
3338.289495	2725.569231
3339.355279	2734.480420
3340.425289	2747.933566
3341.492236	2751.514685
3342.556121	2728.855944
3343.622773	2714.855944
3344.687822	2723.929371
3345.751267	2708.716084
3346.814566	2688.020979
3347.877718	2658.644755
3348.940724	2656.998601
3350.003584	2649.132867
3351.064842	2670.890210
3352.123043	2685.897203
3353.185464	2691.902098
3354.244830	2678.592308
3355.304050	2669.997902
3356.364579	2684.958741
3357.420600	2708.688112
3358.479384	2709.569231
3359.533661	2711.165734
3360.590702	2710.137762
3361.646144	2718.923776
3362.702896	2722.029371
3363.758049	2735.341259
3364.811605	2743.172028
3365.863565	2720.189510
3366.918286	2681.569930
3367.969958	2666.961538
3369.021487	2662.672727
3370.074324	2651.283916
3371.124114	2627.603497
3372.175213	2615.432168
3373.223266	2611.290909
3374.274078	2611.807692
3375.321846	2614.800699
3376.369470	2615.258741
3377.416953	2616.896503
3378.462843	2608.600000
3379.510041	2609.014685
3380.554197	2619.876224
3381.601111	2638.718182
3382.646433	2636.577622
3383.688714	2633.674825
3384.730854	2648.104196
3385.774303	2672.596503
3386.817610	2675.901399
3387.859327	2664.341958
3388.900904	2654.256643
3389.942339	2643.972727
3390.982186	2629.193706
3392.020444	2623.755944
3393.060010	2626.748951
3394.099436	2634.881119
3395.137274	2628.478322
3396.173525	2628.604196
3397.209637	2642.634965
3398.247056	2658.466434
3399.281442	2660.784615
3400.317135	2658.428671
3401.352689	2664.595105
3402.385212	2662.578322
3403.420487	2653.141958
3404.452733	2647.562937
3405.484840	2667.446853
3406.515363	2683.176224
3407.547193	2681.805594
3408.578885	2679.762937
3409.607549	2691.310490
3410.636076	2688.562238
3411.665909	2698.269930
3412.695605	2700.180420
3413.722275	2699.380420
3414.750251	2696.802797
3415.775204	2711.330070
3416.802906	2720.648252
3417.827585	2730.028671
3418.853570	2750.093007
3419.877975	2750.893706
3420.902244	2760.581119
3421.924934	2763.299301
3422.947488	2757.182517
3423.971348	2766.932867
3424.992188	2778.783916
3426.012892	2786.786414
3427.034903	2789.544031
3428.053895	2784.451349
3429.072751	2768.902947
3430.092914	2740.293407
3431.110060	2696.017308
