-118.146553	55.103846
-115.476953	49.289011
-112.810288	45.602697
-110.144375	43.668332
-107.481395	43.109341
-104.816984	43.549151
-102.155504	44.611189
-99.492595	43.793706
-96.834792	45.195105
-94.175560	47.401399
-91.517076	48.918881
-88.861517	48.579021
-86.204528	49.108392
-83.552638	48.955944
-80.899318	51.591608
-78.248917	48.195105
-75.597088	50.813986
-72.950349	48.829371
-70.302180	51.581818
-67.654754	49.550350
-65.010243	49.689510
-62.364302	53.281119
-59.723443	56.435664
-57.081155	58.923077
-54.441776	60.759441
-51.800967	67.702098
-49.160899	72.233566
-46.525904	71.813986
-43.889479	80.535664
-41.255957	86.396503
-38.621007	92.547552
-35.991122	93.940559
-33.357645	97.390210
-30.729230	101.586014
-28.101549	105.408392
-25.472439	74.345455
-22.848386	-112.030070
-20.220744	-861.263636
-17.598155	-2640.830769
-14.976298	-2990.346154
-12.355171	1863.001399
-9.734775	11959.895105
-7.117266	20464.049650
-4.498329	26451.116783
-1.882277	29878.968531
0.733046	30739.680420
3.347641	29037.828671
5.959355	24800.253147
8.572497	18152.672028
11.180605	9565.058042
13.792295	758.413287
16.398954	-4257.689510
19.007041	-3516.541259
21.614404	-283.293706
24.216742	116.770629
26.822658	121.587413
29.423552	111.359441
32.025874	103.269231
34.623179	95.765035
37.224059	90.878322
39.819924	86.720979
42.417218	82.123776
45.013792	82.067133
47.605357	78.255245
50.198350	75.134965
52.788482	70.469930
55.380041	67.271329
57.968742	65.002098
60.558869	60.274825
63.143997	62.600000
65.730553	65.574126
68.316395	64.916783
70.899383	67.198601
73.483797	68.813986
76.061083	73.502098
78.641935	73.299301
81.219938	71.978322
83.797231	69.553147
86.375950	67.554545
88.949687	66.441958
91.524852	65.290210
94.097173	65.943357
96.668786	64.493007
99.237559	66.525874
101.807759	71.915385
104.375120	73.863636
106.943908	75.950350
109.509859	77.079021
112.072975	83.079720
114.639647	88.428671
117.197098	100.612587
119.760234	125.595105
122.318410	167.390909
124.880141	236.989510
127.436915	348.944755
129.995115	517.813986
132.548363	731.036364
135.100913	984.614685
137.657013	1255.572028
140.208165	1525.523077
142.758620	1775.756643
145.308377	1999.700699
147.855315	2175.048252
150.401558	2300.411888
152.949226	2371.966434
155.496198	2404.738462
158.038235	2412.274825
160.579578	2408.028671
163.120228	2393.146853
165.662304	2378.157343
168.201568	2360.942657
170.738023	2342.148951
173.273788	2332.546853
175.810978	2337.723077
178.347477	2342.964336
180.881170	2352.455944
183.412059	2360.844056
185.942260	2376.404196
188.473887	2394.303497
191.002712	2407.016084
193.528738	2416.364336
196.054078	2427.452448
198.580843	2445.173427
201.104812	2457.411888
203.628096	2469.159441
206.150695	2474.830769
208.670501	2484.315385
211.189623	2491.057343
213.708064	2500.790909
216.227928	2519.630769
218.740791	2524.414685
221.257185	2518.844056
223.772897	2516.001399
226.283719	2513.104895
228.795966	2513.495105
231.305431	2508.625874
233.814216	2504.308392
236.322324	2503.554545
238.831856	2510.714685
241.336507	2518.574825
243.840482	2527.106993
246.345881	2539.469231
248.846405	2534.420979
251.350452	2611.934266
253.847529	2871.349650
256.348129	3326.620280
258.845957	3851.976224
261.343112	4317.630070
263.839594	4642.923776
266.331213	4799.658042
268.826352	4780.555245
271.318724	4586.099301
273.810426	4246.732867
276.299365	3810.676224
278.789727	3358.625874
281.277328	3024.822378
283.762169	2879.373427
286.250525	2869.580420
288.731941	2878.798601
291.216871	2848.765035
293.696956	2780.151049
296.180553	2699.290909
298.659307	2618.432867
301.139484	2538.970629
303.616910	2482.284615
306.093672	2471.373427
308.569770	2506.181818
311.043121	2575.994406
313.515809	2648.304196
315.987836	2714.594406
318.459202	2771.158741
320.927823	2799.125874
323.395785	2811.490909
325.865170	2805.693706
328.329732	2783.709091
330.797798	2741.945455
333.261044	2692.194406
335.723632	2656.827273
338.185564	2636.469930
340.646839	2640.289510
343.105380	2636.543357
345.565343	2636.253846
348.022573	2639.823077
350.479149	2635.502797
352.935071	2638.138462
355.388263	2639.830070
357.842878	2639.159441
360.292691	2634.046154
362.746000	2629.813287
365.194510	2619.188811
367.642370	2608.928671
370.091652	2600.505594
372.536140	2581.356643
374.982050	2569.025175
377.427310	2564.120979
379.869852	2556.538462
382.311746	2553.087413
384.752993	2553.779720
387.191524	2550.228671
389.631476	2553.107692
392.068715	2553.972727
394.503243	2551.900000
396.941258	2554.653846
399.374496	2556.422378
401.809155	2558.615385
404.239042	2569.223077
406.672414	2575.839161
409.101016	2581.508392
411.528976	2585.148252
413.958358	2596.407692
416.382974	2599.662238
418.809012	2611.361538
421.234409	2616.302797
423.659166	2629.694406
426.079165	2640.888811
428.500584	2649.094406
430.919308	2655.378322
433.339452	2664.729371
435.756901	2663.265734
438.175770	2666.572727
440.591946	2662.706294
443.003374	2666.457343
445.418279	2666.883217
447.830495	2670.396503
450.242076	2670.556643
452.653023	2673.465734
455.061284	2666.760839
457.468912	2660.887413
459.875908	2651.727972
462.282273	2647.218182
464.685955	2641.970629
467.089007	2639.500699
469.491429	2628.326573
471.893221	2627.784615
474.292335	2626.509790
476.692869	2626.712587
479.092774	2627.828671
481.487957	2631.990909
483.886606	2630.726573
486.280534	2632.512587
488.673837	2630.243357
491.066515	2625.039860
493.458567	2623.872727
495.852037	2615.193706
498.240795	2600.747552
500.626887	2587.144056
503.014399	2563.623077
505.401288	2542.759441
507.785513	2520.772028
510.171156	2501.383217
512.554138	2477.709091
514.934459	2458.968531
517.316199	2440.103497
519.695280	2430.850350
522.075779	2427.009790
524.453622	2427.723776
526.828808	2424.503497
529.203378	2425.560140
531.579365	2420.517483
533.952700	2411.389510
536.327452	2405.842657
538.697519	2392.609091
541.066970	2379.071329
543.437839	2367.239860
545.804027	2350.706294
548.171634	2344.951049
550.536596	2335.936364
552.900944	2332.597902
555.264679	2327.481818
557.629832	2332.092308
559.990313	2335.839860
562.352212	2338.973427
564.711470	2342.171329
567.068090	2347.158042
569.428156	2348.727972
571.781530	2345.102797
574.138349	2339.668531
576.492533	2336.749650
578.846108	2329.975524
581.199076	2319.113287
583.549411	2312.416783
585.901164	2306.302098
588.246240	2310.125175
590.596779	2308.751049
592.940646	2306.412587
595.289974	2311.224476
597.634653	2312.092308
599.976708	2313.488811
602.320180	2320.210490
604.661029	2326.078322
607.001275	2331.138462
609.338902	2322.590210
611.679963	2319.988112
614.016386	2315.156643
616.354226	2320.735664
618.689449	2315.588811
621.022056	2315.886713
623.356079	2312.024476
625.687488	2316.259441
628.018299	2319.973427
630.348513	2325.802098
632.678128	2331.660839
635.003120	2333.439860
637.333554	2330.300699
639.659367	2333.615385
641.982572	2340.060839
644.307194	2351.463636
646.629210	2351.333566
648.950632	2354.530769
651.269452	2355.323077
653.589687	2357.399301
655.909329	2358.604895
658.226370	2360.467133
660.542819	2359.956643
662.856670	2356.879720
665.171937	2357.585315
667.484607	2358.893007
669.798692	2361.026573
672.108177	2363.267832
674.419078	2359.476923
676.727386	2358.945455
679.035106	2353.860839
681.344240	2347.834266
683.648782	2350.954545
685.952738	2351.900699
688.256108	2343.460140
690.560892	2332.946853
692.861089	2327.074825
695.162702	2318.393007
697.463729	2314.938462
699.760175	2306.912587
702.058036	2298.900699
704.355313	2295.235664
706.652007	2286.571329
708.944125	2286.070629
711.239654	2290.819580
713.530609	2295.907692
715.822979	2293.966434
718.112774	2295.556643
720.401988	2298.140559
722.690623	2304.918182
724.976685	2314.006993
727.264162	2311.488811
729.549067	2315.637063
731.833395	2316.918881
734.115154	2309.601399
736.398327	2313.616783
738.680923	2310.667133
740.958963	2315.848951
743.238418	2317.658741
745.517296	2319.865035
747.795600	2323.466434
750.069354	2333.765734
752.344521	2336.004895
754.619115	2333.525874
756.891150	2337.688811
759.164598	2331.395804
761.435488	2326.497902
763.703822	2321.058741
765.973569	2309.247552
768.240761	2317.526573
770.507384	2320.234965
772.773436	2324.040559
775.036937	2332.565734
777.301851	2339.139161
779.566195	2346.286014
781.826010	2358.087413
784.087237	2372.676923
786.347897	2370.433566
788.606011	2377.396503
790.861580	2377.900000
793.120540	2371.746154
795.373000	2375.918881
797.630828	2362.853147
799.884137	2350.030769
802.134906	2344.771329
804.387087	2334.776224
806.636729	2336.906993
808.887784	2337.948252
811.134327	2332.382517
813.382282	2326.633566
815.627703	2324.797902
817.874535	2327.637762
820.120806	2323.866434
822.362572	2321.753147
824.607722	2322.067832
826.846399	2319.682517
829.088458	2315.767832
831.326019	2317.858042
833.564992	2329.805594
835.801438	2327.904895
838.039295	2318.637063
840.274627	2316.467133
842.507436	2310.118881
844.741656	2314.848951
846.973353	2316.243357
849.204496	2313.016783
851.435084	2313.044755
853.665118	2303.785315
855.894598	2305.664336
858.119596	2315.412587
860.347969	2322.981818
862.571862	2319.089510
864.797167	2317.953846
867.017996	2319.380420
869.242197	2323.146853
871.461925	2324.113986
873.683063	2324.725874
875.903651	2322.299301
878.121730	2324.457343
880.341218	2322.066434
882.556240	2319.547552
884.770714	2320.972727
886.984641	2330.908392
889.198021	2333.320979
891.410853	2349.520979
893.623139	2357.731469
895.832922	2361.434266
898.042160	2361.088811
900.250853	2363.477622
902.457046	2365.972028
904.664650	2365.357343
906.869755	2345.126573
909.074317	2337.436364
911.276384	2331.974126
913.479860	2337.209091
915.680842	2336.318182
917.881282	2347.702797
920.083131	2336.532867
922.278589	2340.687413
924.477406	2356.245455
926.671784	2380.174825
928.869520	2387.727273
931.062820	2394.976224
933.257529	2400.640559
935.449752	2403.614685
937.641436	2402.448252
939.832583	2416.030070
942.021247	2426.808392
944.209375	2427.500000
946.395022	2423.016084
948.584021	2452.208392
950.768597	2492.393007
952.952638	2500.530769
955.140029	2510.905594
957.319116	2520.732168
959.501554	2521.565734
961.683458	2525.039860
963.862887	2527.935664
966.039844	2548.522378
968.218209	2568.862937
970.397981	2568.632867
972.571404	2577.488811
974.748173	2593.592308
976.920535	2630.772028
979.094305	2614.275524
981.263671	2645.147552
983.436381	2661.279720
985.606626	2679.253147
987.776341	2702.060140
989.945529	2738.401399
992.110319	2768.021678
994.278450	2782.253846
996.442186	2772.595105
998.607330	2784.625175
1000.770014	2794.070629
1002.932173	2837.144056
1005.091875	2811.827972
1007.251052	2836.512587
1009.411636	2840.529371
1011.569765	2847.958042
1013.727371	2858.034266
1015.884453	2864.337063
1018.041011	2854.786014
1020.193190	2867.873427
1022.346776	2868.023776
1024.499840	2898.441958
1026.650455	2908.562238
1028.802477	2938.813287
1030.950125	2913.902797
1033.101105	2895.506993
1035.247714	2863.633566
1037.393804	2843.253846
1039.539376	2790.976224
1041.686353	2756.218182
1043.827041	2746.892308
1045.971059	2728.930070
1048.112636	2705.052448
1050.253697	2721.640559
1052.396162	2699.718182
1054.532347	2711.891608
1056.671859	2696.380420
1058.807016	2691.908392
1060.945497	2723.560140
1063.079624	2772.802797
1065.213238	2789.055245
1067.348256	2842.157343
1069.478926	2862.276224
1071.611000	2863.122378
1073.740645	2874.448951
1075.869778	2915.008392
1077.998399	2857.942657
1080.126509	2847.979021
1082.252193	2834.067133
1084.377367	2829.248252
1086.503945	2842.802797
1088.626185	2846.837063
1090.749830	2861.110490
1092.869140	2880.872028
1094.993679	2878.696503
1097.111974	2873.032867
1099.231673	2846.855944
1101.348953	2847.062238
1103.465726	2777.540559
1105.581994	2779.382517
1107.695845	2770.091608
1109.811101	2748.687413
1111.922033	2751.034266
1114.036278	2744.839860
1116.146202	2772.868531
1118.257530	2774.512587
1120.368353	2778.813986
1122.474860	2782.944056
1124.584676	2777.584615
1126.690179	2786.302797
1128.797084	2762.957343
1130.897774	2771.461538
1133.003676	2749.940559
1135.105269	2715.360839
1137.208265	2701.400000
1139.310760	2667.450350
1141.407048	2646.255944
1143.508543	2609.204196
1145.605736	2586.507692
1147.702431	2596.655944
1149.798627	2603.750350
1151.894325	2597.380420
1153.989526	2591.557343
1156.082330	2598.383916
1158.176536	2593.399301
1160.264551	2587.877622
1162.357765	2600.152448
1164.444790	2600.294406
1166.535114	2601.825175
1168.621150	2596.371329
1170.710485	2603.602797
1172.793638	2634.036364
1174.878193	2646.376224
1176.964150	2634.796503
1179.045825	2628.774126
1181.128901	2622.195804
1183.209592	2618.553147
1185.289792	2596.400000
1187.369500	2576.767133
1189.448717	2570.501399
1191.525552	2562.437063
1193.600005	2567.127972
1195.677751	2583.507692
1197.751227	2607.691608
1199.826103	2609.374825
1201.896712	2588.116783
1203.968722	2587.060140
1206.038357	2579.701399
1208.109391	2568.976224
1210.179939	2552.683217
1212.246225	2547.616783
1214.313912	2547.478322
1216.379227	2538.569231
1218.445942	2534.761538
1220.508401	2543.279720
1222.574145	2545.253147
1224.635635	2538.980420
1226.698526	2538.319580
1228.759049	2539.757343
1230.819088	2544.815385
1232.878644	2543.085315
1234.935836	2543.853846
1236.992546	2544.818182
1239.046892	2539.934965
1241.104520	2529.444755
1243.159785	2523.272028
1245.210809	2517.167832
1247.263233	2501.548252
1249.315177	2518.019580
1251.364763	2529.264336
1253.413870	2530.969231
1255.462498	2529.500699
1257.510648	2529.503497
1259.558320	2529.975524
1261.601761	2535.163636
1263.648478	2528.893706
1265.692841	2516.130769
1267.736728	2517.975524
1269.778263	2512.148252
1271.817449	2514.040559
1273.859908	2549.453147
1275.898144	2560.866434
1277.937779	2573.413986
1279.976939	2588.025874
1282.011880	2599.146154
1284.048220	2617.500699
1286.082216	2611.015385
1288.117609	2589.464336
1290.148790	2590.886713
1292.181368	2601.295804
1294.213475	2595.727273
1296.243241	2596.533566
1298.274404	2595.504196
1300.301361	2583.688811
1302.329715	2589.609091
1304.353864	2579.893706
1306.381279	2569.729371
1308.404491	2564.362937
1310.429101	2544.625874
1312.451377	2531.900699
1314.475049	2541.095804
1316.496389	2545.170629
1318.517262	2541.118881
1320.537667	2538.523077
1322.553879	2540.351748
1324.571488	2538.412587
1326.586769	2551.906993
1328.605309	2541.469231
1330.619660	2531.036364
1332.631684	2516.685315
1334.646967	2515.354545
1336.658064	2506.425175
1338.670558	2501.458042
1340.678869	2490.160839
1342.690435	2476.666434
1344.695963	2469.574825
1346.704746	2466.637063
1348.709351	2462.206993
1350.717210	2469.736364
1352.724607	2460.164336
1354.725973	2444.151049
1356.728735	2449.398601
1358.731038	2459.706993
1360.732881	2458.662937
1362.734264	2461.862238
1364.733334	2459.223776
1366.731945	2449.665734
1368.730097	2446.807692
1370.727792	2439.293706
1372.721324	2439.765734
1374.716251	2439.795105
1376.710722	2448.260140
1378.704736	2447.504196
1380.696443	2450.192308
1382.687694	2452.458741
1384.676640	2445.654545
1386.666982	2450.146853
1388.656868	2452.303497
1390.644450	2442.165035
1392.631579	2433.222378
1394.616406	2426.572028
1396.602628	2431.553147
1398.586549	2438.472028
1400.570018	2457.383217
1402.553035	2461.375524
1404.533754	2461.551748
1406.515867	2459.591608
1408.495684	2465.230769
1410.475049	2478.961538
1412.450276	2485.769930
1414.428741	2488.017483
1416.404913	2471.920280
1418.380635	2460.832867
1420.355909	2459.382517
1422.328891	2458.481818
1424.301425	2454.273427
1426.273511	2446.494406
1428.245150	2446.532867
1430.212660	2442.651748
1432.185244	2453.651049
1434.150022	2459.866434
1436.119873	2466.590909
1438.085600	2479.056643
1440.052719	2473.833566
1442.017555	2473.205594
1443.978271	2475.155944
1445.944055	2481.772727
1447.903884	2483.467832
1449.865107	2484.244056
1451.827721	2497.623776
1453.786221	2497.642657
1455.744279	2505.020979
1457.701895	2496.563636
1459.659068	2495.966434
1461.613966	2507.113986
1463.570257	2502.708392
1465.524273	2493.002797
1467.477848	2491.344755
1469.429151	2497.295804
1471.381846	2502.065734
1473.332270	2506.972028
1475.282255	2513.494406
1477.231801	2514.832168
1479.179078	2514.714685
1481.124087	2513.042657
1483.070489	2508.502098
1485.016453	2507.113287
1486.961980	2498.698601
1488.905241	2501.209790
1490.848067	2504.606993
1492.788628	2493.698601
1494.730582	2490.804196
1496.670273	2494.955944
1498.609529	2491.043357
1500.548351	2500.848252
1502.484913	2502.002797
1504.422866	2515.118881
1506.358560	2523.054545
1508.293821	2531.541958
1510.226825	2547.901399
1512.159398	2550.637063
1514.091538	2552.886014
1516.023246	2545.758042
1517.952700	2542.700000
1519.883545	2540.365734
1521.813958	2537.369930
1523.740299	2545.596503
1525.668030	2543.588112
1527.593512	2548.611888
1529.518564	2558.897203
1531.443187	2560.472028
1533.367380	2574.520979
1535.289327	2580.291608
1537.212664	2590.905594
1539.133754	2582.227972
1541.052600	2568.766434
1542.972836	2569.787413
1544.890829	2578.826573
1546.808394	2591.708392
1548.723719	2600.248951
1550.640433	2618.562238
1552.553092	2624.836364
1554.468955	2635.292308
1556.382578	2652.396503
1558.293963	2656.155245
1560.206738	2644.193706
1562.115463	2624.758741
1564.025577	2603.995804
1565.935268	2600.814685
1567.844536	2591.304196
1569.751570	2588.947552
1571.656371	2607.445455
1573.562561	2619.614685
1575.466519	2621.399301
1577.370056	2640.508392
1579.273173	2635.539161
1581.174060	2650.383217
1583.076336	2658.758042
1584.976384	2663.092308
1586.877819	2663.865035
1588.775221	2664.269930
1590.672204	2644.432867
1592.568769	2634.007692
1594.466721	2655.064336
1596.358839	2649.185315
1598.254151	2636.834965
1600.149045	2630.705594
1602.041717	2627.770629
1603.933972	2641.827273
1605.824008	2650.066434
1607.713628	2667.062238
1609.602833	2681.284615
1611.491623	2700.692308
1613.378195	2705.518182
1615.266155	2721.048252
1617.150098	2747.901399
1619.035428	2758.353147
1620.920345	2773.820280
1622.803048	2808.927273
1624.687138	2821.637762
1626.567216	2828.820979
1628.448682	2841.009790
1630.327937	2855.039860
1632.208578	2865.598601
1634.083415	2865.540559
1635.963233	2836.053846
1637.839047	2827.218881
1639.714450	2832.155245
1641.591239	2847.159441
1643.462232	2878.211189
1645.336406	2893.213986
1647.206581	2887.348951
1649.079937	2898.237762
1650.951090	2908.904196
1652.820042	2920.639161
1654.690378	2927.932168
1656.556722	2902.209091
1658.424451	2891.008392
1660.289981	2895.038462
1662.156897	2923.161538
1664.019823	2932.616783
1665.884136	2955.822378
1667.746252	2960.927273
1669.607963	2960.800699
1671.471060	2975.555245
1673.331961	2986.797902
1675.190670	2991.402797
1677.048975	3006.228671
1678.908664	2983.467133
1680.762587	3005.078322
1682.619683	3000.925874
1684.476375	3000.886713
1686.329092	2982.561538
1688.184980	2944.580420
1690.036894	2937.004895
1691.888407	2924.097902
1693.739519	2918.563636
1695.590230	2908.102098
1697.440541	2893.383916
1699.288668	2904.743357
1701.138179	2910.063636
1702.981940	2954.797902
1704.830652	2963.634266
1706.673617	2959.965035
1708.519749	2968.020979
1710.361918	2979.979021
1712.207253	3012.059441
1714.046847	3022.899301
1715.887825	3007.709091
1717.730186	2981.593007
1719.568591	2955.977622
1721.408379	2948.782517
1723.245991	2936.763636
1725.083209	2954.803497
1726.918253	2940.537063
1728.754680	2936.140559
1730.588935	2944.695105
1732.422795	2976.005594
1734.256261	2957.761538
1736.085782	2972.285315
1737.918461	3001.218182
1739.747196	3003.665734
1741.579088	3021.365035
1743.407038	3039.518182
1745.234596	3067.126573
1747.061763	3069.527273
1748.888538	3032.356643
1750.714921	3023.078322
1752.537368	2987.731469
1754.362970	2991.011888
1756.184637	2983.346154
1758.007686	2994.844755
1759.828573	3036.182517
1761.649072	3012.927273
1763.470951	3027.638462
1765.287132	3048.132867
1767.106464	3066.716084
1768.921868	3032.577622
1770.740424	3012.467133
1772.555054	3004.985315
1774.369297	2989.992308
1776.183154	3011.126573
1777.996624	3008.981119
1779.807941	2994.419580
1781.620638	3001.224476
1783.432950	2988.075524
1785.241343	2978.450350
1787.051118	2989.574126
1788.856978	2985.675524
1790.665983	2976.976224
1792.471075	2977.825874
1794.277548	2963.065734
1796.083637	2949.914685
1797.885815	2936.782517
1799.691138	2948.768531
1801.492552	2964.569231
1803.295346	2952.931469
1805.094234	2936.051748
1806.894503	2918.051049
1808.694390	2942.318881
1810.492135	2896.112587
1812.289500	2870.886713
1814.086484	2858.700699
1815.883089	2816.401399
1817.677554	2800.954545
1819.473398	2778.390210
1821.263587	2807.920979
1823.058673	2804.436364
1824.848106	2807.353147
1826.640677	2816.869231
1828.431112	2868.525175
1830.219413	2892.979720
1832.010849	2860.157343
1833.796639	2857.895804
1835.583809	2879.049650
1837.368847	2861.520979
1839.157019	2863.012587
1840.941305	2853.238462
1842.723461	2851.117483
1844.506997	2829.889510
1846.288404	2825.085315
1848.071190	2812.911189
1849.850095	2811.440559
1851.630379	2790.124476
1853.408538	2767.350350
1855.188075	2741.742657
1856.965486	2743.036364
1858.740775	2720.376923
1860.517441	2710.553846
1862.291985	2716.307692
1864.067907	2690.613986
1865.838208	2689.336364
1867.611637	2698.152448
1869.382946	2695.160140
1871.153884	2701.109790
1872.926200	2714.435664
1874.692902	2725.776923
1876.462729	2717.231469
1878.228693	2713.511888
1879.997781	2703.132168
1881.763007	2684.460140
1883.527865	2669.200699
1885.294100	2649.509091
1887.056476	2651.409790
1888.818484	2643.555944
1890.580126	2623.659441
1892.341401	2610.603497
1894.102308	2614.558741
1895.862849	2606.838462
1897.621280	2599.448252
1899.379345	2589.308392
1901.135303	2589.686014
1902.892637	2577.092308
1904.649606	2561.924476
1906.404468	2562.887413
1908.157226	2560.363636
1909.909619	2553.306993
1911.663389	2545.142657
1913.415055	2528.920979
1915.164619	2544.134965
1916.915558	2548.282517
1918.666135	2565.453846
1920.412872	2565.303497
1922.160986	2571.686713
1923.907000	2564.897902
1925.654389	2559.034266
1927.399681	2558.486014
1929.142875	2560.111888
1930.887444	2550.816783
1932.629917	2550.727972
1934.372031	2550.065035
1936.113784	2570.395455
1937.855177	2589.700000
1939.594477	2589.388462
1941.333418	2585.802797
1943.072000	2583.295455
1944.808491	2578.960140
1946.544624	2579.504545
1948.282131	2568.837762
1950.015816	2559.467483
1951.750876	2527.748252
1953.483847	2518.750699
1955.216462	2512.694406
1956.948721	2526.756294
1958.680623	2534.240559
1960.410439	2544.371329
1962.138170	2573.209790
1963.867276	2596.986014
1965.596026	2619.990210
1967.322694	2644.811888
1969.049007	2636.427972
1970.776693	2641.579720
1972.498843	2613.855944
1974.224094	2599.972028
1975.945538	2592.297203
1977.670082	2580.733566
1979.392547	2572.801399
1981.111209	2579.773427
1982.832969	2579.155944
1984.550927	2580.081119
1986.270258	2585.522378
1987.985790	2599.595804
1989.706142	2597.805594
1991.422696	2606.734266
1993.135453	2593.869930
1994.851306	2596.690909
1996.565087	2591.379021
1998.278518	2579.694406
1999.989878	2573.409790
2001.702610	2569.655245
2003.411552	2555.534266
2005.123586	2552.186014
2006.830111	2557.860839
2008.539729	2570.608392
2010.247279	2583.716084
2011.954482	2569.448252
2013.659619	2565.337762
2015.364410	2569.951049
2017.070572	2564.051049
2018.772952	2555.275524
2020.476703	2537.958741
2022.178392	2529.062238
2023.879735	2526.016783
2025.580734	2522.144056
2027.279671	2533.548951
2028.979980	2539.086713
2030.676513	2538.024476
2032.374418	2532.102797
2034.070265	2545.662238
2035.769197	2553.019580
2037.462643	2561.397902
2039.157460	2548.619580
2040.851935	2531.730070
2042.542641	2524.926573
2044.236431	2527.788112
2045.926454	2519.555944
2047.617848	2511.660839
2049.307189	2498.453846
2050.997900	2482.455944
2052.684848	2499.821678
2054.371457	2499.906993
2056.059435	2504.272727
2057.743654	2516.244755
2059.429244	2509.106993
2061.114494	2509.778322
2062.797695	2511.669930
2064.482267	2515.045455
2066.161375	2519.592308
2067.845270	2516.738462
2069.523703	2516.016084
2071.205214	2505.026573
2072.882973	2515.093706
2074.560396	2505.028671
2076.239188	2507.391608
2077.915938	2514.364336
2079.590645	2495.207692
2081.266723	2491.290909
2082.940759	2475.036364
2084.614461	2465.590909
2086.287827	2462.674825
2087.959154	2467.251748
2089.630147	2461.467832
2091.300806	2457.434266
2092.971131	2467.227273
2094.641122	2477.966434
2096.309077	2489.646853
2097.976698	2501.640559
2099.642286	2503.933566
2101.309242	2527.287413
2102.974165	2522.223077
2104.638756	2524.298601
2106.301315	2531.020280
2107.965242	2540.945455
2109.627138	2524.494406
2111.288704	2526.828671
2112.949938	2522.347552
2114.609144	2524.303497
2116.268019	2512.446853
2117.926565	2513.807692
2119.584780	2513.667133
2121.239273	2523.680420
2122.896830	2517.390210
2124.554057	2523.520979
2126.207564	2522.544755
2127.862438	2522.842657
2129.513593	2507.524476
2131.167811	2502.227972
2132.818311	2500.344755
2134.470179	2509.482517
2136.116638	2508.590210
2137.767852	2510.540559
2139.415352	2514.496503
2141.064219	2535.399301
2142.711067	2535.063636
2144.357590	2550.742657
2146.003787	2550.762937
2147.646276	2548.960140
2149.291823	2543.685315
2150.933663	2537.844755
2152.578560	2545.632867
2154.219751	2530.646853
2155.860620	2513.568531
2157.501164	2496.831469
2159.139696	2482.043357
2160.779594	2483.141259
2162.415792	2488.144755
2164.053356	2500.844755
2165.690598	2507.858741
2167.325830	2509.965035
2168.960740	2527.227273
2170.595329	2516.421678
2172.229597	2521.799301
2173.860171	2503.781119
2175.493797	2491.003497
2177.123731	2494.525874
2178.755030	2490.597902
2180.384324	2500.592308
2182.013299	2502.806294
2183.641954	2512.051049
2185.270290	2521.571329
2186.896624	2520.988811
2188.522639	2527.255245
2190.146652	2516.787413
2191.772031	2526.293706
2193.395409	2518.416084
2195.020152	2512.756643
2196.641214	2520.507692
2198.261959	2504.153147
2199.884068	2496.420280
2201.504180	2493.207692
2203.122296	2491.560839
2204.740096	2491.925874
2206.357581	2489.422378
2207.974750	2487.809790
2209.591604	2499.940559
2211.208142	2508.190909
2212.822688	2507.226573
2214.435241	2510.575524
2216.049158	2501.467832
2217.661084	2485.037762
2219.274373	2487.390909
2220.885672	2480.210490
2222.494981	2472.716084
2224.105654	2478.369930
2225.714338	2485.793007
2227.322709	2497.190909
2228.929094	2517.999301
2230.536841	2532.589510
2232.142603	2533.305594
2233.748053	2541.893007
2235.351518	2532.478322
2236.956346	2523.641958
2238.559190	2519.827972
2240.160051	2523.858741
2241.762275	2528.040559
2243.362517	2537.262238
2244.964121	2544.738462
2246.562072	2548.029371
2248.161386	2554.950350
2249.758720	2567.737762
2251.355746	2558.872028
2252.954134	2567.234266
2254.548873	2564.393706
2256.141635	2552.688811
2257.735760	2557.638462
2259.331246	2575.295804
2260.923087	2576.805594
2262.514622	2572.548252
2264.107519	2562.253846
2265.695106	2577.725874
2267.287389	2587.175524
2268.874366	2595.041259
2270.464370	2590.065734
2272.049070	2593.148252
2273.638464	2586.282517
2275.222556	2594.248252
2276.808008	2605.569930
2278.391492	2641.376224
2279.978001	2650.849650
2281.560877	2662.790909
2283.143450	2675.683916
2284.725719	2693.116084
2286.304358	2686.919580
2287.886022	2678.667832
2289.464057	2666.401399
2291.045115	2647.757343
2292.622546	2640.646154
2294.198014	2666.778322
2295.776504	2667.662238
2297.351370	2703.941259
2298.925935	2709.169231
2300.500199	2732.298601
2302.074164	2718.837063
2303.647827	2707.962937
2305.221191	2730.031469
2306.790936	2724.717483
2308.360382	2706.324476
2309.932846	2697.513287
2311.500036	2691.413986
2313.070244	2690.193706
2314.636837	2674.231469
2316.204790	2660.093007
2317.770787	2649.012587
2319.336487	2650.434965
2320.901889	2653.411189
2322.465338	2684.620280
2324.030146	2752.758042
2325.591346	2757.135664
2327.155560	2769.416084
2328.714512	2782.118182
2330.276478	2757.213986
2331.836494	2765.002797
2333.396215	2741.950350
2334.953986	2701.269930
2336.511462	2694.083217
2338.068644	2706.673427
2339.623878	2703.337762
2341.178819	2709.532168
2342.733465	2726.885315
2344.287818	2721.215385
2345.841877	2724.157343
2347.395643	2732.820979
2348.947464	2716.548252
2350.497343	2734.784615
2352.050229	2714.702098
2353.597872	2696.503497
2355.148524	2709.079720
2356.695584	2735.625175
2358.244002	2723.325175
2359.792129	2733.157343
2361.336667	2747.227273
2362.882563	2761.471329
2364.426521	2755.253846
2365.971835	2788.166434
2367.513566	2784.932168
2369.056653	2803.548951
2370.597804	2811.370629
2372.138666	2822.845455
2373.679239	2845.660140
2375.219523	2856.435664
2376.759518	2832.851748
2378.295935	2834.248951
2379.835353	2819.004895
2381.371193	2784.723776
2382.908391	2746.697203
2384.442013	2744.373427
2385.978635	2713.929371
2387.513327	2715.197902
2389.046089	2724.179720
2390.578564	2734.923776
2392.109111	2735.267133
2393.642656	2723.040559
2395.170990	2733.728671
2396.700680	2776.920280
2398.230085	2775.116783
2399.759205	2768.897902
2401.288039	2756.328671
2402.811669	2739.367133
2404.339934	2729.908392
2405.862997	2746.515385
2407.390693	2755.918881
2408.911550	2755.763636
2410.437039	2760.629371
2411.958969	2783.614685
2413.482253	2807.732168
2415.003617	2825.623776
2416.523061	2833.358042
2418.043860	2809.544056
2419.562740	2794.527972
2421.081339	2768.613287
2422.598020	2756.278322
2424.116055	2772.446853
2425.633809	2763.323077
2427.148011	2748.967832
2428.661934	2734.952448
2430.175576	2717.453846
2431.690573	2697.897902
2433.202021	2680.783916
2434.714823	2669.062238
2436.225713	2655.841259
2437.736324	2649.152448
2439.245023	2635.518881
2440.756708	2642.398601
2442.264850	2688.896503
2443.772714	2666.478322
2445.280299	2658.125874
2446.784345	2657.004196
2448.291375	2659.081818
2449.796497	2683.559441
2451.301342	2694.751049
2452.804280	2692.149650
2454.306942	2711.833566
2455.809327	2694.171329
2457.309807	2656.690210
2458.811640	2651.016783
2460.311568	2652.796503
2461.811221	2603.727273
2463.310599	2596.657343
2464.808074	2611.486014
2466.303647	2643.202797
2467.802200	2664.108392
2469.297225	2691.095105
2470.793602	2696.420979
2472.286453	2653.034965
2473.780657	2605.109091
2475.274587	2578.723776
2476.764993	2593.894406
2478.258377	2582.725175
2479.749863	2576.059441
2481.239452	2597.728671
2482.728769	2637.530769
2484.216190	2653.610490
2485.706587	2646.181818
2487.193466	2660.851049
2488.681696	2634.002797
2490.166409	2576.910490
2491.650853	2566.835664
2493.136647	2563.939161
2494.620550	2563.412587
2496.105803	2553.859441
2497.585923	2570.944755
2499.069016	2583.673427
2500.550218	2597.156643
2502.031151	2584.770629
2503.510195	2597.280420
2504.988970	2634.234965
2506.467477	2646.853846
2507.945716	2645.401399
2509.423686	2657.020979
2510.898151	2643.967832
2512.375586	2641.983916
2513.849517	2606.868531
2515.324798	2585.032867
2516.799812	2582.536364
2518.271325	2549.576923
2519.744189	2533.832867
2521.215170	2513.423776
2522.687501	2510.874825
2524.154718	2491.193706
2525.624902	2480.464336
2527.093205	2487.817483
2528.561243	2473.709790
2530.029016	2469.409091
2531.496524	2487.823776
2532.963767	2517.430769
2534.427518	2552.104895
2535.892619	2539.038462
2537.355843	2543.144755
2538.820416	2519.560839
2540.281501	2526.406993
2541.743935	2538.638462
2543.206106	2530.079720
2544.664791	2524.027972
2546.128047	2498.810490
2547.586208	2504.528671
2549.045717	2517.239860
2550.500132	2514.942657
2551.959118	2514.693007
2553.416232	2504.879720
2554.871474	2512.396503
2556.326456	2517.904196
2557.779569	2534.876224
2559.234029	2547.575524
2560.686621	2523.495804
2562.138953	2513.409790
2563.589418	2507.446154
2565.042838	2521.083916
2566.491176	2500.499301
2567.942469	2501.026573
2569.391897	2512.418182
2570.837852	2523.869231
2572.286762	2526.586014
2573.732202	2526.518182
2575.178989	2520.120979
2576.623913	2497.369930
2578.068580	2489.263636
2579.514594	2491.704196
2580.957142	2512.104895
2582.401037	2494.258741
2583.841466	2481.837762
2585.283244	2481.518881
2586.723162	2496.359441
2588.164427	2506.990909
2589.602230	2513.953846
2591.042983	2515.160140
2592.478674	2518.076224
2593.917314	2514.439161
2595.354096	2534.525874
2596.789023	2543.411189
2598.226897	2546.235664
2599.659714	2533.588112
2601.093878	2531.086014
2602.526188	2503.553846
2603.959844	2488.498601
2605.391647	2491.626573
2606.823196	2478.192308
2608.254493	2459.530070
2609.683937	2427.231469
2611.113129	2423.585315
2612.540471	2434.516084
2613.969158	2442.909091
2615.397594	2450.124476
2616.822582	2450.014685
2618.248917	2447.793706
2619.673403	2458.586014
2621.099235	2458.308392
2622.521623	2460.920280
2623.945357	2455.141958
2625.367244	2449.520979
2626.788882	2406.923077
2628.208674	2422.938462
2629.629812	2427.234965
2631.050700	2439.317483
2632.468149	2436.804196
2633.888539	2415.676923
2635.305491	2421.961538
2636.722194	2443.506294
2638.138649	2441.787413
2639.554856	2438.274126
2640.970815	2447.145455
2642.384933	2427.383916
2643.798803	2414.320979
2645.210834	2410.227972
2646.624210	2400.222378
2648.034156	2398.057343
2649.447038	2378.867133
2650.856491	2368.781119
2652.265698	2389.404895
2653.673069	2399.861538
2655.083374	2410.823776
2656.491844	2417.533566
2657.898478	2421.635664
2659.304867	2434.065734
2660.709422	2435.302098
2662.115321	2421.165734
2663.519387	2426.827273
2664.923208	2432.181119
2666.326785	2445.264336
2667.728531	2450.569930
2669.131620	2453.656643
2670.531291	2446.904895
2671.932306	2439.224476
2673.329905	2450.973427
2674.730433	2460.493706
2676.127547	2476.411888
2677.526004	2466.685315
2678.922634	2469.191608
2680.319021	2479.434266
2681.715166	2456.510490
2683.109485	2427.408392
2684.505147	2415.934965
2685.897400	2416.769231
2687.290995	2421.870629
2688.682766	2407.309091
2690.075880	2440.428671
2691.467170	2469.055944
2692.856637	2476.315385
2694.245864	2475.009790
2695.634852	2466.874126
2697.025181	2425.661538
2698.410527	2380.617483
2699.798796	2356.900000
2701.185245	2350.646853
2702.571455	2335.269231
2703.957426	2329.434965
2705.339999	2309.286014
2706.723914	2337.852448
2708.107591	2351.125175
2709.491029	2339.154545
2710.871072	2347.225874
2712.252457	2357.518182
2713.632027	2347.199301
2715.012937	2361.399301
2716.392033	2384.399301
2717.769315	2373.918881
2719.147938	2384.944056
2720.524747	2392.995804
2721.901321	2397.862937
2723.277659	2411.692308
2724.652186	2419.448951
2726.028053	2415.445455
2727.400533	2424.620979
2728.775929	2423.394406
2730.146365	2436.048951
2731.518142	2434.981818
2732.889684	2418.802098
2734.259418	2413.089510
2735.630493	2422.051049
2736.999759	2402.060839
2738.368792	2391.962238
2739.736019	2379.488811
2741.103012	2373.719580
2742.469773	2364.262238
2743.836301	2344.295804
2745.201025	2328.035664
2746.565516	2326.898601
2747.929776	2311.258741
2749.293803	2294.776224
2750.657599	2326.714685
2752.018021	2306.797902
2753.381353	2313.369930
2754.739743	2318.893007
2756.101043	2335.795804
2757.458973	2345.072028
2758.819811	2347.679021
2760.178850	2336.043357
2761.534520	2325.098601
2762.893098	2342.013986
2764.248309	2346.673427
2765.603291	2346.097902
2766.956476	2354.527972
2768.312568	2331.501399
2769.665296	2352.354545
2771.017796	2347.877622
2772.370067	2346.388811
2773.723676	2337.613287
2775.073925	2331.797902
2776.422379	2341.095804
2777.773738	2327.623776
2779.121739	2343.735664
2780.471077	2326.558042
2781.818623	2310.630769
2783.165943	2287.591608
2784.513036	2282.997203
2785.858337	2290.448951
2787.203413	2281.065035
2788.548263	2293.344755
2789.892887	2283.318182
2791.234159	2290.748951
2792.576769	2303.267133
2793.919153	2289.991608
2795.261312	2306.148252
2796.600122	2305.900699
2797.941832	2294.679021
2799.280193	2296.869930
2800.619892	2310.796503
2801.957806	2322.090909
2803.293934	2330.101399
2804.629840	2333.304196
2805.967083	2317.096503
2807.302542	2322.639161
2808.637778	2320.099301
2809.971231	2319.085315
2811.306021	2326.290210
2812.637471	2334.904196
2813.971816	2340.269231
2815.301263	2336.831469
2816.632046	2339.469930
2817.962609	2332.811189
2819.291392	2346.384615
2820.621511	2313.416084
2821.949852	2283.935664
2823.277972	2269.840559
2824.604314	2265.016783
2825.931993	2251.360140
2827.256338	2245.713287
2828.582020	2279.764336
2829.905926	2283.005594
2831.229612	2273.795804
2832.554635	2300.004196
2833.876327	2319.151748
2835.197801	2339.175524
2836.519056	2302.902098
2837.840092	2280.439161
2839.159355	2283.300000
2840.479954	2275.169231
2841.798782	2262.492308
2843.117391	2249.004196
2844.434229	2252.042657
2845.750850	2215.400000
2847.067254	2195.148252
2848.381888	2210.525874
2849.697858	2219.313287
2851.010507	2212.294406
2852.324491	2188.079021
2853.638259	2155.781818
2854.951810	2154.295105
2856.263595	2164.481818
2857.573613	2171.387413
2858.884966	2177.921678
2860.193004	2182.740559
2861.502376	2185.297902
2862.811534	2189.732867
2864.120476	2215.535664
2865.427654	2231.943357
2866.733070	2249.790210
2868.039819	2237.848252
2869.344807	2229.318182
2870.649580	2257.196503
2871.952593	2273.474126
2873.258486	2288.359441
2874.559525	2286.567133
2875.861898	2270.810490
2877.162511	2259.460140
2878.464458	2238.967133
2879.766191	2229.057343
2881.064621	2230.702098
2882.364384	2223.062238
2883.662390	2211.379021
2884.960184	2226.024476
2886.256222	2244.336364
2887.553593	2260.554545
2888.849208	2273.490210
2890.144612	2256.862238
2891.439805	2257.894406
2892.731701	2237.976224
2894.026473	2234.639161
2895.317948	2226.799301
2896.610756	2212.176224
2897.903354	2195.067832
2899.192658	2199.254545
2900.483294	2215.260140
2901.772179	2212.151049
2903.062396	2236.263636
2904.349322	2246.327273
2905.637580	2254.659441
2906.924089	2270.831469
2908.210389	2282.984615
2909.496482	2302.427273
2910.780826	2292.004895
2912.068041	2270.734965
2913.350430	2251.348252
2914.634151	2261.659441
2915.916126	2282.125874
2917.197893	2271.758741
2918.477915	2294.262238
2919.760808	2277.274825
2921.041955	2273.567832
2922.319820	2284.130070
2923.600554	2280.508392
2924.878007	2273.713986
2926.155254	2241.027972
2927.430759	2214.545455
2928.709132	2201.414685
2929.982691	2216.262937
2931.259117	2210.623776
2932.533802	2200.950350
2933.806746	2202.318881
2935.081022	2208.144755
2936.353558	2225.189510
2937.625889	2249.771329
2938.894948	2265.151748
2940.166872	2278.220979
2941.437058	2275.107692
2942.707040	2280.251049
2943.976819	2260.538462
2945.244862	2211.434965
2946.511168	2179.246853
2947.777273	2167.116084
2949.044707	2148.973427
2950.310406	2162.860140
2951.575904	2156.828671
2952.841199	2179.574825
2954.103229	2198.884615
2955.366589	2210.948252
2956.629748	2237.771329
2957.891175	2242.495804
2959.153931	2231.216084
2960.414955	2211.013287
2961.674249	2204.410490
2962.933343	2201.441958
2964.192236	2199.533566
2965.450929	2183.384615
2966.709422	2166.983916
2967.966186	2160.892308
2969.222750	2155.958042
2970.477586	2154.231469
2971.733752	2176.007692
2972.986663	2195.167133
2974.240902	2206.302797
2975.494943	2192.562937
2976.747258	2210.319580
2977.999375	2222.358042
2979.249767	2241.861538
2980.503014	2241.585315
2981.751484	2235.040559
2983.002809	2228.542657
2984.250884	2236.993007
2985.498762	2229.286014
2986.746444	2240.643357
2987.993928	2217.789510
2989.239691	2189.810490
2990.485258	2172.430769
2991.732152	2195.834266
2992.975802	2167.808392
2994.220780	2181.685315
2995.462514	2176.848951
2996.707100	2166.915385
2997.949967	2182.684615
2999.189593	2205.198601
3000.432069	2189.931469
3001.671305	2187.695804
3002.911869	2192.371329
3004.150716	2200.790909
3005.389369	2219.398601
3006.626306	2218.594406
3007.864571	2191.018881
3009.101120	2184.979720
3010.337476	2161.111189
3011.573638	2163.239161
3012.808086	2153.755245
3014.042342	2152.846853
3015.276404	2162.576224
3016.508753	2187.915385
3017.739392	2216.733566
3018.972876	2207.150350
3020.204648	2203.949650
3021.434710	2183.227273
3022.664579	2177.309091
3023.892739	2169.072727
3025.122226	2160.495105
3026.350003	2156.136364
3027.577589	2159.495105
3028.806501	2185.741958
3030.030671	2199.960839
3031.257685	2210.847552
3032.481474	2198.787413
3033.706590	2192.186014
3034.929999	2179.540559
3036.153218	2172.089510
3037.374732	2166.858741
3038.599087	2155.386014
3039.818707	2148.636364
3041.039653	2117.218881
3042.260410	2118.484615
3043.479463	2108.899301
3044.699841	2086.053846
3045.917003	2092.309091
3047.135491	2071.951049
3048.352276	2064.224476
3049.568874	2057.432168
3050.785283	2063.010490
3051.998479	2063.808392
3053.214514	2079.447552
3054.427336	2082.597902
3055.642994	2074.800000
3056.853931	2083.909091
3058.066192	2097.590909
3059.278266	2093.893706
3060.490154	2084.804895
3061.700345	2069.497902
3062.910349	2053.589860
3064.120167	2051.083217
3065.328289	2038.797552
3066.536226	2039.960140
3067.742467	2034.859091
3068.950033	2023.082517
3070.155904	2009.960490
3071.361590	2003.037063
3072.567092	2002.933217
3073.770900	1998.796503
3074.976032	1992.125524
3076.179471	2005.655245
3077.381219	2014.586364
3078.582782	2018.946853
3079.784162	2013.757343
3080.985358	2011.898601
3082.184864	2009.630070
3083.384187	2011.501399
3084.584833	2003.851049
3085.783789	2001.659441
3086.979551	2008.748252
3088.178142	2014.222378
3089.373539	2002.544056
3090.570259	2020.663636
3091.763787	2029.382517
3092.960143	2036.204895
3094.154812	2036.916084
3095.346291	2031.318182
3096.542102	2027.284615
3097.733218	2024.749650
3098.925658	2027.238462
3100.114910	2020.593706
3101.306987	2020.846853
3102.497381	2021.216783
3103.684589	2018.653147
3104.873119	2022.737063
3106.062972	2043.353147
3107.249641	2059.106294
3108.436129	2070.265734
3109.622439	2035.860839
3110.810070	2037.648252
3111.994519	2045.023077
3113.177289	2051.634965
3114.362881	2050.166434
3115.546794	2045.211189
3116.729028	2045.951049
3117.911083	2043.892308
3119.092960	2052.619580
3120.274659	2077.274126
3121.454681	2077.355944
3122.633026	2072.905594
3123.814191	2041.315385
3124.992181	2046.720979
3126.169994	2019.934965
3127.347630	2015.983217
3128.523592	2001.039161
3129.699376	1993.405594
3130.876482	1981.600000
3132.051913	1990.555245
3133.225671	2009.430070
3134.397756	2014.476224
3135.571163	2014.340559
3136.744393	2015.085315
3137.915952	2003.597203
3139.088831	2005.254545
3140.258543	2011.751049
3141.429576	2025.335664
3142.598939	2020.252448
3143.766631	2020.932168
3144.937139	2031.354545
3146.102989	2045.969930
3147.273147	2045.685315
3148.438649	2045.671329
3149.603976	2048.699301
3150.769130	2053.588112
3151.934111	2045.511189
3153.100411	2065.223776
3154.262059	2083.419580
3155.425026	2071.549650
3156.587821	2050.588112
3157.750443	2031.084615
3158.911399	2025.654545
3160.072184	2022.300699
3161.232796	2007.174825
3162.391744	2027.668531
3163.550521	2036.153846
3164.709125	2041.166434
3165.867558	2042.760140
3167.025820	2060.162937
3168.182419	2066.888112
3169.337357	2065.788811
3170.493614	2059.584615
3171.648210	2041.708392
3172.802636	2035.772028
3173.955402	2029.763636
3175.107997	2022.972028
3176.260423	2023.058741
3177.412679	2010.720280
3178.564764	2003.611888
3179.713703	1993.247552
3180.865450	1998.208392
3182.015538	2006.138462
3183.163970	2022.384615
3184.312232	2039.217483
3185.460326	2064.081119
3186.608251	2075.530070
3187.754520	2070.551748
3188.900621	2081.077622
3190.045068	2073.182517
3191.189347	2074.640559
3192.333458	2069.595804
3193.478886	2057.255245
3194.621176	2073.304895
3195.763299	2070.170629
3196.905254	2071.953846
3198.047042	2069.018881
3199.188663	2062.045455
3200.327149	2039.931469
3201.466952	2023.897203
3202.608072	2013.048252
3203.746059	1998.724476
3204.882396	1990.122378
3206.018567	2002.483217
3207.156055	2012.159441
3208.291895	2029.073427
3209.429052	2045.107692
3210.561596	2047.534965
3211.698422	2057.628671
3212.830636	2051.413287
3213.964167	2046.146853
3215.097534	2023.304895
3216.227773	1998.047552
3217.360810	1987.942657
3218.490721	1970.169930
3219.621948	1969.432867
3220.750051	1968.631469
3221.880950	1966.752448
3223.010205	1965.879720
3224.137817	1981.486713
3225.262306	2014.311189
3226.391071	2016.360140
3227.516714	2022.716783
3228.642195	2024.330769
3229.766033	2026.694406
3230.892667	2056.210490
3232.014703	2056.382517
3233.138055	2067.344755
3234.261245	2083.570629
3235.384272	2090.443357
3236.505661	2091.751748
3237.626887	2099.826573
3238.746476	2083.549650
3239.865903	2045.960839
3240.983692	2030.787413
3242.104273	2017.308392
3243.221741	2001.008392
3244.339048	1991.166434
3245.456195	1980.384615
3246.571705	1983.618182
3247.688531	2000.111888
3248.802247	2023.584615
3249.918752	2029.804196
3251.033623	2043.279720
3252.145384	2034.483916
3253.256987	2035.666434
3254.369905	2040.905594
3255.482663	2056.830070
3256.592315	2043.720979
3257.703282	2027.562937
3258.814090	2041.029371
3259.923266	2043.941259
3261.030811	2061.316783
3262.139671	2062.750350
3263.248373	2056.167133
3264.353972	2067.958042
3265.460885	2070.943357
3266.566169	2085.170629
3267.672767	2062.246853
3268.776265	2062.720979
3269.881077	2038.595804
3270.985732	2031.618881
3272.087289	2043.316783
3273.188689	2055.246853
3274.291403	2084.967133
3275.393961	2088.024476
3276.493422	2086.590909
3277.595667	2104.388811
3278.694816	2111.714685
3279.792341	2108.355245
3280.889710	2077.435664
3281.989861	2055.582517
3283.086920	2022.269930
3284.183823	2009.130070
3285.280571	2002.151748
3286.372760	2024.662937
3287.469199	2023.297902
3288.564015	2023.634965
3289.658677	2021.141958
3290.751717	2034.793007
3291.844602	2024.965035
3292.935867	2027.326573
3294.028445	2018.130769
3295.119403	2007.911189
3296.208741	2006.344755
3297.297926	2024.401399
3298.388424	2016.132168
3299.475837	2024.909790
3300.563097	2005.346154
3301.651670	2009.622378
3302.740090	2003.521678
3303.823964	2021.772028
3304.912079	2018.159441
3305.997112	2029.146853
3307.080530	2046.262238
3308.165260	2040.144056
3309.248374	2058.221678
3310.332801	2056.286014
3311.414149	2033.732168
3312.496809	2037.805594
3313.577855	2029.440559
3314.658750	2036.058042
3315.738031	2042.213287
3316.817162	2062.740559
3317.897605	2060.114685
3318.974973	2077.142657
3320.053653	2090.500000
3321.130721	2091.780420
3322.207640	2118.276224
3323.282947	2122.306993
3324.358105	2140.394406
3325.434574	2160.827972
3326.507973	2173.949650
3327.581222	2192.839161
3328.655783	2186.280420
3329.728735	2172.548951
3330.800078	2156.928671
3331.872732	2157.438462
3332.942320	2164.211189
3334.013218	2173.376923
3335.082509	2176.362238
3336.153111	2171.851748
3337.222106	2167.724476
3338.289495	2171.744755
3339.355279	2157.697902
3340.425289	2162.765035
3341.492236	2147.867133
3342.556121	2126.008392
3343.622773	2128.726573
3344.687822	2143.571329
3345.751267	2163.387413
3346.814566	2162.473427
3347.877718	2165.038462
3348.940724	2160.921678
3350.003584	2159.370629
3351.064842	2149.680420
3352.123043	2131.278322
3353.185464	2134.668531
3354.244830	2128.879021
3355.304050	2109.950350
3356.364579	2106.507692
3357.420600	2113.904895
3358.479384	2122.640559
3359.533661	2124.371329
3360.590702	2141.397203
3361.646144	2143.977622
3362.702896	2146.249650
3363.758049	2128.435664
3364.811605	2124.050350
3365.863565	2108.025874
3366.918286	2104.758042
3367.969958	2090.029371
3369.021487	2085.974126
3370.074324	2087.467832
3371.124114	2103.525175
3372.175213	2098.741958
3373.223266	2103.683916
3374.274078	2103.076224
3375.321846	2099.316783
3376.369470	2090.080420
3377.416953	2083.711189
3378.462843	2063.871329
3379.510041	2060.855245
3380.554197	2065.972028
3381.601111	2067.872727
3382.646433	2073.467133
3383.688714	2088.895804
3384.730854	2063.388112
3385.774303	2076.687413
3386.817610	2084.657343
3387.859327	2095.438462
3388.900904	2102.672028
3389.942339	2107.169231
3390.982186	2094.814685
3392.020444	2096.624476
3393.060010	2084.078322
3394.099436	2095.493706
3395.137274	2100.634266
3396.173525	2082.195804
3397.209637	2073.407692
3398.247056	2094.249650
3399.281442	2104.053147
3400.317135	2099.697203
3401.352689	2112.216783
3402.385212	2117.395105
3403.420487	2120.541259
3404.452733	2117.381119
3405.484840	2119.009790
3406.515363	2140.861538
3407.547193	2130.429371
3408.578885	2126.009790
3409.607549	2149.387413
3410.636076	2154.083217
3411.665909	2150.680420
3412.695605	2149.747552
3413.722275	2168.090210
3414.750251	2165.227273
3415.775204	2152.270629
3416.802906	2155.784615
3417.827585	2162.320979
3418.853570	2158.974126
3419.877975	2151.690909
3420.902244	2170.669231
3421.924934	2171.824476
3422.947488	2177.253846
3423.971348	2176.144056
3424.992188	2170.436364
3426.012892	2154.742358
3427.034903	2142.000350
3428.053895	2136.470829
3429.072751	2142.414286
3430.092914	2164.091209
3431.110060	2205.762088
