-118.146553	36.307418
-115.476953	35.545055
-112.810288	34.939311
-110.144375	34.503297
-107.481395	34.250125
-104.816984	34.192907
-102.155504	34.344755
-99.492595	35.312587
-96.834792	37.075524
-94.175560	36.666434
-91.517076	35.937063
-88.861517	33.674825
-86.204528	36.013986
-83.552638	31.583916
-80.899318	30.505594
-78.248917	28.024476
-75.597088	29.784615
-72.950349	30.759441
-70.302180	37.360140
-67.654754	37.869231
-65.010243	40.795105
-62.364302	40.903497
-59.723443	41.669930
-57.081155	41.934965
-54.441776	44.006294
-51.800967	41.859441
-49.160899	42.762937
-46.525904	45.669231
-43.889479	48.951049
-41.255957	50.305594
-38.621007	59.527273
-35.991122	58.296503
-33.357645	67.565734
-30.729230	68.246853
-28.101549	73.845455
-25.472439	53.862238
-22.848386	-68.348252
-20.220744	-598.534965
-17.598155	-1950.388112
-14.976298	-2376.301399
-12.355171	1703.388811
-9.734775	8629.551748
-7.117266	14363.304196
-4.498329	18363.411888
-1.882277	20616.365734
0.733046	21101.034965
3.347641	19835.716783
5.959355	16827.386713
8.572497	12165.212587
11.180605	6157.488112
13.792295	10.000699
16.398954	-3277.127273
19.007041	-2060.383916
21.614404	-152.730070
24.216742	78.520280
26.822658	81.733566
29.423552	80.603497
32.025874	74.525874
34.623179	69.062238
37.224059	63.553846
39.819924	63.076923
42.417218	59.178322
45.013792	56.736364
47.605357	51.339860
50.198350	50.549650
52.788482	48.438462
55.380041	48.909091
57.968742	47.642657
60.558869	50.584615
63.143997	49.404196
65.730553	52.416783
68.316395	54.547552
70.899383	56.854545
73.483797	54.591608
76.061083	56.265035
78.641935	55.007692
81.219938	52.079720
83.797231	48.861538
86.375950	46.011888
88.949687	44.351049
91.524852	44.806993
94.097173	42.644056
96.668786	47.979021
99.237559	47.608392
101.807759	49.961538
104.375120	49.779021
106.943908	52.786713
109.509859	52.583217
112.072975	57.939860
114.639647	59.961538
117.197098	66.940559
119.760234	76.229371
122.318410	99.249650
124.880141	132.802098
127.436915	196.051748
129.995115	280.359441
132.548363	394.521678
135.100913	530.214685
137.657013	678.983217
140.208165	829.480420
142.758620	978.504895
145.308377	1103.328671
147.855315	1207.365035
150.401558	1276.928671
152.949226	1325.941259
155.496198	1344.359441
158.038235	1351.636364
160.579578	1345.773427
163.120228	1339.698601
165.662304	1329.381119
168.201568	1316.514685
170.738023	1302.018182
173.273788	1296.762937
175.810978	1295.068531
178.347477	1301.823776
180.881170	1304.117483
183.412059	1314.234965
185.942260	1323.465035
188.473887	1337.811888
191.002712	1354.183916
193.528738	1373.148252
196.054078	1384.091608
198.580843	1392.090210
201.104812	1392.702098
203.628096	1398.666434
206.150695	1398.690909
208.670501	1404.229371
211.189623	1404.090909
213.708064	1414.907692
216.227928	1427.858741
218.740791	1441.410490
221.257185	1447.792308
223.772897	1450.127273
226.283719	1444.534965
228.795966	1436.717483
231.305431	1426.858741
233.814216	1417.704895
236.322324	1409.869231
238.831856	1408.765035
241.336507	1409.641259
243.840482	1417.028671
246.345881	1419.614685
248.846405	1420.919580
251.350452	1442.367832
253.847529	1618.902098
256.348129	1979.565035
258.845957	2437.613986
261.343112	2855.413287
263.839594	3165.198601
266.331213	3332.803497
268.826352	3344.928671
271.318724	3206.169231
273.810426	2926.989510
276.299365	2549.013287
278.789727	2142.738462
281.277328	1802.475524
283.762169	1640.351748
286.250525	1615.278322
288.731941	1626.782517
291.216871	1605.645455
293.696956	1560.895105
296.180553	1495.940559
298.659307	1429.226573
301.139484	1358.214685
303.616910	1303.046154
306.093672	1284.463636
308.569770	1303.967133
311.043121	1354.593706
313.515809	1400.517483
315.987836	1442.733566
318.459202	1474.924476
320.927823	1492.881818
323.395785	1502.034266
325.865170	1493.776224
328.329732	1474.458741
330.797798	1435.621678
333.261044	1404.570629
335.723632	1371.295804
338.185564	1353.840559
340.646839	1348.264336
343.105380	1346.796503
345.565343	1345.846154
348.022573	1344.248951
350.479149	1344.679720
352.935071	1351.165734
355.388263	1352.491608
357.842878	1351.462238
360.292691	1345.974126
362.746000	1345.450350
365.194510	1333.879021
367.642370	1328.651049
370.091652	1315.220979
372.536140	1310.179720
374.982050	1303.339161
377.427310	1297.734266
379.869852	1290.005594
382.311746	1286.230070
384.752993	1280.433566
387.191524	1275.518881
389.631476	1268.371329
392.068715	1267.904196
394.503243	1265.588811
396.941258	1265.349650
399.374496	1258.324476
401.809155	1257.246154
404.239042	1261.130769
406.672414	1267.323776
409.101016	1269.242657
411.528976	1270.802098
413.958358	1272.255944
416.382974	1273.034266
418.809012	1272.251748
421.234409	1278.362238
423.659166	1286.208392
426.079165	1289.949650
428.500584	1289.655944
430.919308	1295.615385
433.339452	1302.888811
435.756901	1304.763636
438.175770	1304.258741
440.591946	1298.805594
443.003374	1300.511888
445.418279	1297.498601
447.830495	1297.620979
450.242076	1302.860839
452.653023	1305.306993
455.061284	1303.409790
457.468912	1300.101399
459.875908	1299.960140
462.282273	1288.525175
464.685955	1278.012587
467.089007	1273.990909
469.491429	1266.359441
471.893221	1268.632867
474.292335	1267.510490
476.692869	1272.266434
479.092774	1277.158042
481.487957	1279.541259
483.886606	1284.223776
486.280534	1279.409091
488.673837	1276.418182
491.066515	1263.000000
493.458567	1256.491608
495.852037	1246.461538
498.240795	1230.076224
500.626887	1216.521678
503.014399	1201.751748
505.401288	1183.802797
507.785513	1166.664336
510.171156	1152.033566
512.554138	1131.549650
514.934459	1110.248252
517.316199	1095.311189
519.695280	1081.675524
522.075779	1080.632867
524.453622	1076.031469
526.828808	1075.014685
529.203378	1074.112587
531.579365	1071.402098
533.952700	1059.489510
536.327452	1053.547552
538.697519	1044.775524
541.066970	1030.584615
543.437839	1018.033566
545.804027	1005.879720
548.171634	993.751049
550.536596	990.449650
552.900944	983.604895
555.264679	985.948951
557.629832	982.553147
559.990313	976.590210
562.352212	974.192308
564.711470	981.749650
567.068090	983.747552
569.428156	988.452448
571.781530	990.448951
574.138349	993.718881
576.492533	988.728671
578.846108	987.617483
581.199076	980.716084
583.549411	978.297902
585.901164	966.765734
588.246240	958.104895
590.596779	954.895105
592.940646	952.939860
595.289974	952.981119
597.634653	961.304196
599.976708	968.528671
602.320180	971.252448
604.661029	969.052448
607.001275	968.620280
609.338902	962.279720
611.679963	962.616084
614.016386	956.797203
616.354226	951.807692
618.689449	950.326573
621.022056	951.269930
623.356079	956.990210
625.687488	960.456643
628.018299	966.315385
630.348513	969.621678
632.678128	970.874126
635.003120	974.335664
637.333554	970.579021
639.659367	973.907692
641.982572	972.489510
644.307194	971.760140
646.629210	969.809091
648.950632	965.919580
651.269452	960.692308
653.589687	957.458741
655.909329	963.500699
658.226370	963.493007
660.542819	963.495804
662.856670	965.065734
665.171937	961.572727
667.484607	962.084615
669.798692	964.482517
672.108177	967.040559
674.419078	962.154545
676.727386	956.827972
679.035106	953.702797
681.344240	951.246853
683.648782	949.155944
685.952738	944.761538
688.256108	940.679021
690.560892	935.064336
692.861089	928.819580
695.162702	922.162937
697.463729	918.974126
699.760175	915.618881
702.058036	909.986713
704.355313	903.667832
706.652007	897.406294
708.944125	892.213287
711.239654	887.962937
713.530609	891.830769
715.822979	886.465734
718.112774	883.709091
720.401988	884.841958
722.690623	884.009091
724.976685	885.179021
727.264162	885.283916
729.549067	883.732168
731.833395	883.085315
734.115154	882.160140
736.398327	885.159441
738.680923	885.804196
740.958963	888.277622
743.238418	881.589510
745.517296	879.994406
747.795600	878.911189
750.069354	878.600699
752.344521	877.488112
754.619115	871.739860
756.891150	867.665734
759.164598	870.987413
761.435488	867.668531
763.703822	871.915385
765.973569	873.652448
768.240761	874.181119
770.507384	874.306294
772.773436	878.431469
775.036937	881.268531
777.301851	887.209790
779.566195	884.036364
781.826010	886.179021
784.087237	895.182517
786.347897	896.031469
788.606011	890.225175
790.861580	896.479720
793.120540	891.459441
795.373000	890.658741
797.630828	892.489510
799.884137	893.865734
802.134906	892.225175
804.387087	889.860839
806.636729	882.769930
808.887784	882.300699
811.134327	873.079720
813.382282	859.687413
815.627703	853.154545
817.874535	854.322378
820.120806	856.512587
822.362572	868.998601
824.607722	876.515385
826.846399	876.067133
829.088458	881.950350
831.326019	882.058741
833.564992	875.898601
835.801438	869.806294
838.039295	856.653147
840.274627	852.520979
842.507436	850.615385
844.741656	845.602797
846.973353	843.998601
849.204496	845.718182
851.435084	845.497902
853.665118	836.769930
855.894598	838.681818
858.119596	840.457343
860.347969	834.708392
862.571862	833.923077
864.797167	835.972727
867.017996	833.922378
869.242197	830.584615
871.461925	823.076224
873.683063	815.804196
875.903651	823.719580
878.121730	827.546154
880.341218	827.873427
882.556240	829.751748
884.770714	837.551049
886.984641	835.941259
889.198021	842.039161
891.410853	855.376923
893.623139	845.001399
895.832922	859.217483
898.042160	863.872028
900.250853	860.313287
902.457046	863.269231
904.664650	849.634965
906.869755	841.461538
909.074317	824.034965
911.276384	822.081818
913.479860	804.807692
915.680842	796.562238
917.881282	808.991608
920.083131	794.039161
922.278589	810.606294
924.477406	816.617483
926.671784	817.721678
928.869520	831.242657
931.062820	832.935664
933.257529	845.818881
935.449752	849.320979
937.641436	846.961538
939.832583	829.965734
942.021247	828.419580
944.209375	836.604895
946.395022	824.688112
948.584021	831.951049
950.768597	845.104895
952.952638	852.403497
955.140029	863.051748
957.319116	866.708392
959.501554	874.739161
961.683458	884.435664
963.862887	871.139860
966.039844	858.893007
968.218209	858.779720
970.397981	868.364336
972.571404	882.895804
974.748173	879.720280
976.920535	891.734266
979.094305	889.169930
981.263671	859.334965
983.436381	858.492308
985.606626	872.968531
987.776341	849.809790
989.945529	827.199301
992.110319	812.767832
994.278450	823.418881
996.442186	819.220979
998.607330	814.971329
1000.770014	822.912587
1002.932173	839.913287
1005.091875	841.823077
1007.251052	841.545455
1009.411636	857.070629
1011.569765	861.783916
1013.727371	820.634965
1015.884453	815.358042
1018.041011	767.565734
1020.193190	748.001399
1022.346776	700.985315
1024.499840	654.003497
1026.650455	616.576224
1028.802477	561.030070
1030.950125	516.998601
1033.101105	476.812587
1035.247714	421.094406
1037.393804	391.014685
1039.539376	378.113986
1041.686353	379.410490
1043.827041	366.186713
1045.971059	380.487413
1048.112636	370.005594
1050.253697	370.625175
1052.396162	352.772028
1054.532347	336.772727
1056.671859	322.306993
1058.807016	293.939860
1060.945497	280.665734
1063.079624	293.799301
1065.213238	312.155245
1067.348256	344.197203
1069.478926	354.494406
1071.611000	355.986014
1073.740645	374.069930
1075.869778	423.335664
1077.998399	459.695804
1080.126509	490.215385
1082.252193	544.798601
1084.377367	605.518182
1086.503945	676.311189
1088.626185	720.288112
1090.749830	762.713287
1092.869140	796.969231
1094.993679	816.143357
1097.111974	797.718182
1099.231673	819.790909
1101.348953	828.000699
1103.465726	828.318182
1105.581994	803.616783
1107.695845	823.030070
1109.811101	829.055944
1111.922033	822.236364
1114.036278	799.668531
1116.146202	813.160839
1118.257530	806.439161
1120.368353	809.588811
1122.474860	772.295804
1124.584676	783.525175
1126.690179	801.770629
1128.797084	826.462937
1130.897774	840.995804
1133.003676	860.340559
1135.105269	891.697902
1137.208265	915.456643
1139.310760	928.937762
1141.407048	953.827273
1143.508543	953.364336
1145.605736	935.964336
1147.702431	904.191608
1149.798627	884.130070
1151.894325	878.077622
1153.989526	857.657343
1156.082330	839.337762
1158.176536	831.352448
1160.264551	847.583916
1162.357765	840.727273
1164.444790	848.702098
1166.535114	849.692308
1168.621150	858.052448
1170.710485	869.771329
1172.793638	865.446154
1174.878193	853.771329
1176.964150	849.877622
1179.045825	865.624476
1181.128901	877.050350
1183.209592	890.855245
1185.289792	903.279720
1187.369500	906.621678
1189.448717	917.535664
1191.525552	907.124476
1193.600005	895.294406
1195.677751	896.569930
1197.751227	871.257343
1199.826103	878.816783
1201.896712	879.244056
1203.968722	880.788112
1206.038357	880.877622
1208.109391	886.544755
1210.179939	899.163636
1212.246225	884.690210
1214.313912	871.790909
1216.379227	866.432867
1218.445942	854.534266
1220.508401	863.257343
1222.574145	865.198601
1224.635635	870.912587
1226.698526	872.725175
1228.759049	866.546853
1230.819088	871.655245
1232.878644	865.148951
1234.935836	863.165734
1236.992546	841.804196
1239.046892	845.167832
1241.104520	848.339161
1243.159785	847.855944
1245.210809	863.655245
1247.263233	862.123077
1249.315177	853.705594
1251.364763	869.179720
1253.413870	859.155245
1255.462498	854.512587
1257.510648	852.681119
1259.558320	861.532867
1261.601761	845.055245
1263.648478	854.810490
1265.692841	838.716783
1267.736728	830.046853
1269.778263	845.665035
1271.817449	825.389510
1273.859908	815.858741
1275.898144	809.756643
1277.937779	803.830769
1279.976939	793.420280
1282.011880	810.058042
1284.048220	827.084615
1286.082216	820.393007
1288.117609	840.707692
1290.148790	823.251049
1292.181368	825.087413
1294.213475	834.002098
1296.243241	810.758042
1298.274404	784.219580
1300.301361	756.146853
1302.329715	753.834266
1304.353864	762.941259
1306.381279	787.728671
1308.404491	815.679021
1310.429101	811.655245
1312.451377	825.678322
1314.475049	823.278322
1316.496389	847.076923
1318.517262	855.167133
1320.537667	857.126573
1322.553879	839.206294
1324.571488	834.934965
1326.586769	851.920979
1328.605309	872.746154
1330.619660	887.925175
1332.631684	899.410490
1334.646967	875.427972
1336.658064	878.497203
1338.670558	870.992308
1340.678869	871.572727
1342.690435	861.600699
1344.695963	865.255245
1346.704746	849.315385
1348.709351	836.149650
1350.717210	838.569231
1352.724607	842.130070
1354.725973	845.564336
1356.728735	844.737063
1358.731038	838.487413
1360.732881	842.137762
1362.734264	838.529371
1364.733334	838.771329
1366.731945	848.122378
1368.730097	857.541259
1370.727792	850.706294
1372.721324	852.415385
1374.716251	863.226573
1376.710722	866.044755
1378.704736	871.604895
1380.696443	882.225175
1382.687694	881.134266
1384.676640	878.018881
1386.666982	873.061538
1388.656868	872.556643
1390.644450	895.897902
1392.631579	895.309790
1394.616406	902.378322
1396.602628	906.379720
1398.586549	910.922378
1400.570018	900.261538
1402.553035	895.189510
1404.533754	891.083916
1406.515867	879.088811
1408.495684	867.913287
1410.475049	861.848951
1412.450276	860.336364
1414.428741	878.274825
1416.404913	867.260839
1418.380635	871.788811
1420.355909	870.169231
1422.328891	867.663636
1424.301425	865.752448
1426.273511	861.394406
1428.245150	859.737063
1430.212660	857.770629
1432.185244	855.118881
1434.150022	866.140559
1436.119873	854.470629
1438.085600	858.102797
1440.052719	845.971329
1442.017555	856.248951
1443.978271	866.267832
1445.944055	877.300699
1447.903884	891.617483
1449.865107	890.732168
1451.827721	894.508392
1453.786221	898.127273
1455.744279	902.211189
1457.701895	909.223077
1459.659068	895.508392
1461.613966	893.112587
1463.570257	884.262238
1465.524273	888.114685
1467.477848	882.078322
1469.429151	879.261538
1471.381846	872.399301
1473.332270	860.316084
1475.282255	845.860140
1477.231801	859.995105
1479.179078	867.106993
1481.124087	871.375524
1483.070489	889.204196
1485.016453	896.792308
1486.961980	914.346853
1488.905241	924.174126
1490.848067	919.839860
1492.788628	916.970629
1494.730582	914.954545
1496.670273	908.048252
1498.609529	898.848252
1500.548351	908.795804
1502.484913	894.817483
1504.422866	885.155944
1506.358560	882.728671
1508.293821	875.237063
1510.226825	877.136364
1512.159398	876.961538
1514.091538	883.725175
1516.023246	893.675524
1517.952700	898.574825
1519.883545	907.672727
1521.813958	916.153147
1523.740299	924.981119
1525.668030	915.730769
1527.593512	909.686713
1529.518564	890.642657
1531.443187	897.439860
1533.367380	902.783217
1535.289327	902.854545
1537.212664	897.332867
1539.133754	880.141259
1541.052600	865.915385
1542.972836	871.862238
1544.890829	857.909091
1546.808394	850.528671
1548.723719	838.728671
1550.640433	847.509091
1552.553092	847.409790
1554.468955	869.582517
1556.382578	875.934266
1558.293963	870.262238
1560.206738	855.628671
1562.115463	852.111189
1564.025577	843.720979
1565.935268	837.431469
1567.844536	842.216084
1569.751570	835.127972
1571.656371	857.634965
1573.562561	858.801399
1575.466519	854.000000
1577.370056	857.136364
1579.273173	864.893007
1581.174060	860.559441
1583.076336	844.603497
1584.976384	828.211888
1586.877819	803.893706
1588.775221	792.476224
1590.672204	817.578322
1592.568769	811.079720
1594.466721	837.120280
1596.358839	821.683217
1598.254151	826.120280
1600.149045	820.330769
1602.041717	834.934266
1603.933972	839.341958
1605.824008	847.118881
1607.713628	856.632168
1609.602833	850.553846
1611.491623	835.524476
1613.378195	830.718182
1615.266155	825.518182
1617.150098	798.515385
1619.035428	769.730769
1620.920345	747.046853
1622.803048	720.365035
1624.687138	724.615385
1626.567216	747.899301
1628.448682	790.644755
1630.327937	797.734266
1632.208578	819.923077
1634.083415	815.152448
1635.963233	812.870629
1637.839047	833.904895
1639.714450	820.876923
1641.591239	798.476224
1643.462232	786.964336
1645.336406	771.893007
1647.206581	770.755944
1649.079937	782.064336
1650.951090	775.334965
1652.820042	748.064336
1654.690378	753.337762
1656.556722	737.111189
1658.424451	724.165734
1660.289981	719.639161
1662.156897	678.896503
1664.019823	652.400699
1665.884136	670.290210
1667.746252	660.437063
1669.607963	665.619580
1671.471060	666.517483
1673.331961	666.202797
1675.190670	666.951049
1677.048975	658.031469
1678.908664	661.629371
1680.762587	655.627972
1682.619683	632.051748
1684.476375	609.502797
1686.329092	617.483217
1688.184980	622.907692
1690.036894	582.547552
1691.888407	582.230769
1693.739519	584.265035
1695.590230	565.893007
1697.440541	555.709091
1699.288668	542.934965
1701.138179	527.642657
1702.981940	529.014685
1704.830652	514.471329
1706.673617	529.462238
1708.519749	549.031469
1710.361918	540.013287
1712.207253	529.123776
1714.046847	525.968531
1715.887825	517.878322
1717.730186	501.722378
1719.568591	495.272727
1721.408379	479.054545
1723.245991	436.676224
1725.083209	418.448252
1726.918253	417.402098
1728.754680	428.097902
1730.588935	438.725874
1732.422795	427.470629
1734.256261	415.760140
1736.085782	397.193007
1737.918461	430.598601
1739.747196	474.906294
1741.579088	501.676923
1743.407038	493.792308
1745.234596	469.437063
1747.061763	465.437762
1748.888538	489.742657
1750.714921	502.183916
1752.537368	493.503497
1754.362970	462.181818
1756.184637	411.474825
1758.007686	421.500699
1759.828573	454.153147
1761.649072	470.930070
1763.470951	491.690909
1765.287132	462.595105
1767.106464	459.153147
1768.921868	449.755944
1770.740424	473.445455
1772.555054	463.706294
1774.369297	450.933566
1776.183154	460.721678
1777.996624	479.883217
1779.807941	507.393706
1781.620638	546.453147
1783.432950	597.382517
1785.241343	645.465035
1787.051118	635.832168
1788.856978	653.049650
1790.665983	666.510490
1792.471075	673.827972
1794.277548	662.093706
1796.083637	660.103497
1797.885815	671.103497
1799.691138	655.927972
1801.492552	637.105594
1803.295346	652.395804
1805.094234	667.000000
1806.894503	636.158741
1808.694390	644.098601
1810.492135	681.020979
1812.289500	704.325175
1814.086484	709.222378
1815.883089	722.308392
1817.677554	727.323776
1819.473398	749.500699
1821.263587	728.772028
1823.058673	727.071329
1824.848106	711.239161
1826.640677	697.127273
1828.431112	670.041958
1830.219413	675.160140
1832.010849	681.942657
1833.796639	714.063636
1835.583809	751.853147
1837.368847	761.921678
1839.157019	785.709790
1840.941305	802.479021
1842.723461	795.465734
1844.506997	819.388112
1846.288404	810.219580
1848.071190	795.659441
1849.850095	767.784615
1851.630379	772.836364
1853.408538	805.877622
1855.188075	831.010490
1856.965486	840.644755
1858.740775	822.795804
1860.517441	817.140559
1862.291985	809.978322
1864.067907	785.983217
1865.838208	800.181818
1867.611637	787.730070
1869.382946	793.424476
1871.153884	814.601399
1872.926200	851.439860
1874.692902	868.768531
1876.462729	869.400000
1878.228693	898.551049
1879.997781	883.368531
1881.763007	883.625175
1883.527865	884.213986
1885.294100	849.886014
1887.056476	849.382517
1888.818484	820.990909
1890.580126	828.012587
1892.341401	826.630769
1894.102308	817.220280
1895.862849	824.881119
1897.621280	837.298601
1899.379345	875.345455
1901.135303	866.432867
1902.892637	902.661538
1904.649606	919.344755
1906.404468	909.727972
1908.157226	899.934965
1909.909619	886.993007
1911.663389	896.084615
1913.415055	873.226573
1915.164619	869.531469
1916.915558	868.137762
1918.666135	872.857343
1920.412872	865.306294
1922.160986	838.574825
1923.907000	849.714685
1925.654389	844.087413
1927.399681	825.028671
1929.142875	826.323776
1930.887444	825.886014
1932.629917	841.979021
1934.372031	836.183217
1936.113784	838.549650
1937.855177	836.623077
1939.594477	834.829371
1941.333418	815.504196
1943.072000	812.225175
1944.808491	810.990210
1946.544624	804.780420
1948.282131	815.702797
1950.015816	834.339161
1951.750876	855.976923
1953.483847	873.329371
1955.216462	859.142657
1956.948721	882.723776
1958.680623	878.443357
1960.410439	901.266434
1962.138170	910.151049
1963.867276	920.506993
1965.596026	911.276224
1967.322694	921.244056
1969.049007	934.755245
1970.776693	931.702797
1972.498843	930.555944
1974.224094	915.057343
1975.945538	895.171329
1977.670082	901.336364
1979.392547	878.841958
1981.111209	883.770629
1982.832969	883.181119
1984.550927	871.562238
1986.270258	863.723077
1987.985790	869.215385
1989.706142	885.479720
1991.422696	903.109790
1993.135453	920.914685
1994.851306	951.267832
1996.565087	952.868531
1998.278518	952.272028
1999.989878	966.125874
2001.702610	964.100000
2003.411552	962.820979
2005.123586	957.153147
2006.830111	950.796503
2008.539729	954.683916
2010.247279	962.044755
2011.954482	961.289510
2013.659619	960.083916
2015.364410	947.349650
2017.070572	929.019580
2018.772952	925.722378
2020.476703	941.295105
2022.178392	926.485315
2023.879735	933.534266
2025.580734	943.463636
2027.279671	955.834965
2028.979980	981.105594
2030.676513	990.025175
2032.374418	989.961538
2034.070265	982.390909
2035.769197	964.388112
2037.462643	959.785315
2039.157460	955.141958
2040.851935	948.788112
2042.542641	923.225874
2044.236431	921.281119
2045.926454	910.913287
2047.617848	931.241259
2049.307189	944.874825
2050.997900	944.215385
2052.684848	946.602797
2054.371457	939.654545
2056.059435	941.014685
2057.743654	950.987413
2059.429244	959.116084
2061.114494	968.355944
2062.797695	964.434266
2064.482267	964.718881
2066.161375	971.834266
2067.845270	973.541958
2069.523703	961.681818
2071.205214	940.401399
2072.882973	922.876224
2074.560396	897.946853
2076.239188	892.868531
2077.915938	907.602797
2079.590645	922.282517
2081.266723	941.800699
2082.940759	957.546154
2084.614461	968.869930
2086.287827	981.101399
2087.959154	963.839161
2089.630147	951.416084
2091.300806	931.913986
2092.971131	925.891608
2094.641122	900.995804
2096.309077	901.925874
2097.976698	913.401399
2099.642286	923.372727
2101.309242	923.413986
2102.974165	948.036364
2104.638756	955.306294
2106.301315	965.315385
2107.965242	947.028671
2109.627138	947.165035
2111.288704	939.920979
2112.949938	938.952448
2114.609144	943.137762
2116.268019	956.907692
2117.926565	965.965734
2119.584780	970.743357
2121.239273	957.162238
2122.896830	967.672727
2124.554057	954.308392
2126.207564	956.723776
2127.862438	946.313287
2129.513593	948.109790
2131.167811	944.834266
2132.818311	955.667832
2134.470179	965.287413
2136.116638	963.249650
2137.767852	950.338462
2139.415352	941.576224
2141.064219	932.439860
2142.711067	922.927972
2144.357590	912.778322
2146.003787	926.627972
2147.646276	922.767832
2149.291823	933.855245
2150.933663	944.673427
2152.578560	962.053846
2154.219751	963.301399
2155.860620	964.618182
2157.501164	956.840559
2159.139696	966.715385
2160.779594	963.938462
2162.415792	945.785315
2164.053356	932.502098
2165.690598	932.647552
2167.325830	930.772028
2168.960740	956.610490
2170.595329	959.910490
2172.229597	965.581818
2173.860171	974.276224
2175.493797	981.294406
2177.123731	971.448951
2178.755030	978.174126
2180.384324	972.286014
2182.013299	950.358741
2183.641954	940.052448
2185.270290	945.430769
2186.896624	955.855245
2188.522639	954.578322
2190.146652	939.662937
2191.772031	925.958741
2193.395409	920.978322
2195.020152	913.855944
2196.641214	904.411189
2198.261959	926.806294
2199.884068	936.343357
2201.504180	934.878322
2203.122296	944.898601
2204.740096	955.965734
2206.357581	954.391608
2207.974750	937.993007
2209.591604	925.531469
2211.208142	910.536364
2212.822688	898.331469
2214.435241	889.848951
2216.049158	898.135664
2217.661084	916.944755
2219.274373	913.275524
2220.885672	899.933566
2222.494981	898.633566
2224.105654	906.079720
2225.714338	900.952448
2227.322709	890.927273
2228.929094	893.383217
2230.536841	901.893706
2232.142603	905.017483
2233.748053	905.492308
2235.351518	906.199301
2236.956346	911.137063
2238.559190	894.139860
2240.160051	891.500699
2241.762275	912.046154
2243.362517	923.793706
2244.964121	920.404895
2246.562072	906.118182
2248.161386	899.798601
2249.758720	902.488112
2251.355746	903.167133
2252.954134	894.158741
2254.548873	904.451748
2256.141635	917.056643
2257.735760	937.325175
2259.331246	958.527273
2260.923087	1002.548951
2262.514622	1007.184615
2264.107519	1006.647552
2265.695106	988.946853
2267.287389	983.326573
2268.874366	973.534266
2270.464370	970.325175
2272.049070	957.569930
2273.638464	945.760839
2275.222556	932.795105
2276.808008	919.976224
2278.391492	909.881818
2279.978001	908.364336
2281.560877	888.961538
2283.143450	888.760140
2284.725719	889.318182
2286.304358	892.804196
2287.886022	888.628671
2289.464057	906.345455
2291.045115	919.756643
2292.622546	917.076923
2294.198014	906.230769
2295.776504	882.896503
2297.351370	875.716783
2298.925935	876.928671
2300.500199	860.500000
2302.074164	842.804895
2303.647827	832.732867
2305.221191	820.302797
2306.790936	810.132867
2308.360382	852.131469
2309.932846	864.366434
2311.500036	878.237063
2313.070244	900.386713
2314.636837	932.892308
2316.204790	956.796503
2317.770787	976.244755
2319.336487	945.425175
2320.901889	937.200699
2322.465338	925.711888
2324.030146	905.895804
2325.591346	884.369231
2327.155560	895.344755
2328.714512	874.497902
2330.276478	865.254545
2331.836494	869.950350
2333.396215	879.366434
2334.953986	865.168531
2336.511462	856.137063
2338.068644	843.465734
2339.623878	872.188811
2341.178819	891.073427
2342.733465	890.748252
2344.287818	889.371329
2345.841877	914.526573
2347.395643	936.883217
2348.947464	927.619580
2350.497343	937.893706
2352.050229	920.754545
2353.597872	894.286713
2355.148524	878.223776
2356.695584	870.160839
2358.244002	862.081818
2359.792129	847.915385
2361.336667	826.768531
2362.882563	817.067832
2364.426521	840.061538
2365.971835	861.793007
2367.513566	851.626573
2369.056653	832.473427
2370.597804	807.525175
2372.138666	811.787413
2373.679239	805.297203
2375.219523	795.225874
2376.759518	789.328671
2378.295935	803.972727
2379.835353	816.384615
2381.371193	816.883217
2382.908391	823.515385
2384.442013	852.444056
2385.978635	854.581818
2387.513327	854.334266
2389.046089	880.363636
2390.578564	887.706993
2392.109111	895.155944
2393.642656	888.789510
2395.170990	869.905594
2396.700680	874.594406
2398.230085	867.362937
2399.759205	854.466434
2401.288039	846.425874
2402.811669	850.069231
2404.339934	849.803497
2405.862997	848.072727
2407.390693	867.881119
2408.911550	863.190210
2410.437039	865.615385
2411.958969	869.615385
2413.482253	842.397902
2415.003617	839.154545
2416.523061	846.606993
2418.043860	862.953147
2419.562740	878.505594
2421.081339	892.734965
2422.598020	910.295804
2424.116055	901.537762
2425.633809	902.588112
2427.148011	895.732168
2428.661934	903.524476
2430.175576	911.023077
2431.690573	867.765035
2433.202021	849.597203
2434.714823	851.059441
2436.225713	859.827972
2437.736324	880.153846
2439.245023	895.273427
2440.756708	885.444056
2442.264850	880.466434
2443.772714	878.573427
2445.280299	904.288112
2446.784345	917.002098
2448.291375	952.362937
2449.796497	950.398601
2451.301342	949.447552
2452.804280	939.183217
2454.306942	947.526573
2455.809327	937.689510
2457.309807	916.036364
2458.811640	893.176224
2460.311568	895.381818
2461.811221	867.844056
2463.310599	913.055944
2464.808074	909.579720
2466.303647	956.349650
2467.802200	941.625175
2469.297225	927.267133
2470.793602	922.977622
2472.286453	930.626573
2473.780657	925.065035
2475.274587	909.000699
2476.764993	903.031469
2478.258377	897.846853
2479.749863	884.244755
2481.239452	906.361538
2482.728769	883.574825
2484.216190	896.481818
2485.706587	866.113986
2487.193466	855.811888
2488.681696	874.351049
2490.166409	912.310490
2491.650853	937.974126
2493.136647	950.580420
2494.620550	969.607692
2496.105803	980.015385
2497.585923	992.421678
2499.069016	990.052448
2500.550218	978.262937
2502.031151	974.813287
2503.510195	961.696503
2504.988970	974.723077
2506.467477	980.011888
2507.945716	985.284615
2509.423686	969.901399
2510.898151	960.531469
2512.375586	961.706993
2513.849517	979.725874
2515.324798	975.255245
2516.799812	980.901399
2518.271325	980.334266
2519.744189	994.451049
2521.215170	1008.495804
2522.687501	996.381119
2524.154718	971.748252
2525.624902	944.429371
2527.093205	909.195105
2528.561243	893.855245
2530.029016	919.775524
2531.496524	938.809790
2532.963767	939.730070
2534.427518	958.341259
2535.892619	973.025874
2537.355843	996.714685
2538.820416	1009.001399
2540.281501	981.716783
2541.743935	964.055245
2543.206106	923.694406
2544.664791	900.011189
2546.128047	922.534965
2547.586208	941.018881
2549.045717	938.710490
2550.500132	939.444755
2551.959118	935.262937
2553.416232	959.780420
2554.871474	987.134965
2556.326456	1002.010490
2557.779569	997.484615
2559.234029	994.583217
2560.686621	1005.302797
2562.138953	1012.332168
2563.589418	1035.779720
2565.042838	1025.778322
2566.491176	1016.720979
2567.942469	1005.941958
2569.391897	976.436364
2570.837852	977.556643
2572.286762	979.055944
2573.732202	991.588112
2575.178989	996.308392
2576.623913	1008.617483
2578.068580	1041.594406
2579.514594	1038.938462
2580.957142	1045.881119
2582.401037	1071.072028
2583.841466	1065.095804
2585.283244	1076.204196
2586.723162	1072.279021
2588.164427	1074.276224
2589.602230	1068.031469
2591.042983	1078.962937
2592.478674	1065.903497
2593.917314	1067.058741
2595.354096	1085.448252
2596.789023	1067.858741
2598.226897	1074.202797
2599.659714	1088.886713
2601.093878	1083.037063
2602.526188	1088.109790
2603.959844	1078.637063
2605.391647	1060.171329
2606.823196	1028.267832
2608.254493	1017.895804
2609.683937	996.179720
2611.113129	981.238462
2612.540471	988.118182
2613.969158	949.467832
2615.397594	951.228671
2616.822582	947.430769
2618.248917	952.580420
2619.673403	959.352448
2621.099235	986.866434
2622.521623	997.749650
2623.945357	978.080420
2625.367244	1000.139161
2626.788882	1001.018182
2628.208674	1013.485315
2629.629812	1033.241958
2631.050700	1013.319580
2632.468149	1025.048252
2633.888539	1034.936364
2635.305491	1048.936364
2636.722194	1075.623776
2638.138649	1090.230769
2639.554856	1078.478322
2640.970815	1071.581818
2642.384933	1087.274126
2643.798803	1082.697902
2645.210834	1097.580420
2646.624210	1094.130070
2648.034156	1066.844056
2649.447038	1054.870629
2650.856491	1055.146154
2652.265698	1027.112587
2653.673069	1021.476923
2655.083374	1017.913986
2656.491844	1022.074126
2657.898478	1039.260140
2659.304867	1045.958741
2660.709422	1051.151748
2662.115321	1053.527972
2663.519387	1061.906993
2664.923208	1046.013287
2666.326785	1051.960839
2667.728531	1050.827273
2669.131620	1021.032867
2670.531291	1036.764336
2671.932306	1032.862937
2673.329905	1040.071329
2674.730433	1035.325874
2676.127547	1034.411189
2677.526004	1042.469930
2678.922634	1031.329371
2680.319021	1046.452448
2681.715166	1051.526573
2683.109485	1082.465734
2684.505147	1062.512587
2685.897400	1060.851748
2687.290995	1067.123776
2688.682766	1063.634965
2690.075880	1065.001399
2691.467170	1036.072028
2692.856637	1024.670629
2694.245864	1017.993007
2695.634852	1004.563636
2697.025181	1021.961538
2698.410527	1027.297902
2699.798796	1038.739860
2701.185245	1016.863636
2702.571455	1039.520979
2703.957426	1038.459441
2705.339999	1056.705594
2706.723914	1062.321678
2708.107591	1044.283916
2709.491029	1036.698601
2710.871072	1028.476224
2712.252457	1039.579720
2713.632027	1062.395105
2715.012937	1059.275524
2716.392033	1065.823077
2717.769315	1059.334965
2719.147938	1058.063636
2720.524747	1045.532867
2721.901321	1054.706294
2723.277659	1055.232867
2724.652186	1049.130070
2726.028053	1063.287413
2727.400533	1078.362238
2728.775929	1114.118881
2730.146365	1151.685315
2731.518142	1161.867133
2732.889684	1170.304196
2734.259418	1163.511189
2735.630493	1160.579021
2736.999759	1127.660839
2738.368792	1100.017483
2739.736019	1076.998601
2741.103012	1051.526573
2742.469773	1052.091608
2743.836301	1044.528671
2745.201025	1060.954545
2746.565516	1076.503497
2747.929776	1087.549650
2749.293803	1112.894406
2750.657599	1106.021678
2752.018021	1106.051049
2753.381353	1100.567832
2754.739743	1087.839161
2756.101043	1066.860839
2757.458973	1044.385315
2758.819811	1062.483916
2760.178850	1075.148951
2761.534520	1102.457343
2762.893098	1107.520979
2764.248309	1123.174126
2765.603291	1122.176224
2766.956476	1099.078322
2768.312568	1093.448951
2769.665296	1096.002797
2771.017796	1061.244755
2772.370067	1053.841958
2773.723676	1051.397203
2775.073925	1062.847552
2776.422379	1061.265035
2777.773738	1087.123077
2779.121739	1099.879720
2780.471077	1105.378322
2781.818623	1088.343357
2783.165943	1084.880420
2784.513036	1088.204895
2785.858337	1112.745455
2787.203413	1117.404895
2788.548263	1110.012587
2789.892887	1112.033566
2791.234159	1113.021678
2792.576769	1109.498601
2793.919153	1132.862937
2795.261312	1136.762238
2796.600122	1125.346154
2797.941832	1124.007692
2799.280193	1113.783217
2800.619892	1108.711888
2801.957806	1101.776224
2803.293934	1082.240559
2804.629840	1068.248951
2805.967083	1091.459441
2807.302542	1097.005594
2808.637778	1092.979021
2809.971231	1113.979021
2811.306021	1144.630070
2812.637471	1170.690210
2813.971816	1180.986014
2815.301263	1174.592308
2816.632046	1140.363636
2817.962609	1140.313986
2819.291392	1131.330070
2820.621511	1126.320280
2821.949852	1110.483217
2823.277972	1100.903497
2824.604314	1097.141958
2825.931993	1112.141259
2827.256338	1112.371329
2828.582020	1113.082517
2829.905926	1117.129371
2831.229612	1141.237063
2832.554635	1128.693706
2833.876327	1155.144056
2835.197801	1135.465035
2836.519056	1104.772028
2837.840092	1068.149650
2839.159355	1073.375524
2840.479954	1060.946154
2841.798782	1061.595105
2843.117391	1043.230769
2844.434229	1047.854545
2845.750850	1086.101399
2847.067254	1126.972727
2848.381888	1137.986713
2849.697858	1145.994406
2851.010507	1131.474126
2852.324491	1105.387413
2853.638259	1094.162937
2854.951810	1112.860839
2856.263595	1092.052448
2857.573613	1099.772727
2858.884966	1092.477622
2860.193004	1103.517483
2861.502376	1128.125874
2862.811534	1139.590909
2864.120476	1145.262937
2865.427654	1141.261538
2866.733070	1135.306294
2868.039819	1115.716084
2869.344807	1122.933566
2870.649580	1115.411888
2871.952593	1106.698601
2873.258486	1105.736364
2874.559525	1110.486713
2875.861898	1105.568531
2877.162511	1125.407692
2878.464458	1152.127972
2879.766191	1167.569930
2881.064621	1166.974126
2882.364384	1178.479021
2883.662390	1168.533566
2884.960184	1177.775524
2886.256222	1173.055944
2887.553593	1178.812587
2888.849208	1168.207692
2890.144612	1193.842657
2891.439805	1189.029371
2892.731701	1193.767832
2894.026473	1178.597203
2895.317948	1158.255245
2896.610756	1144.800000
2897.903354	1142.446853
2899.192658	1127.063636
2900.483294	1150.093007
2901.772179	1163.572028
2903.062396	1159.642657
2904.349322	1147.949650
2905.637580	1160.937063
2906.924089	1173.853846
2908.210389	1152.882517
2909.496482	1152.731469
2910.780826	1166.618182
2912.068041	1168.518881
2913.350430	1172.573427
2914.634151	1188.434266
2915.916126	1217.151748
2917.197893	1207.047552
2918.477915	1193.887413
2919.760808	1168.285315
2921.041955	1161.618881
2922.319820	1165.999301
2923.600554	1157.925175
2924.878007	1172.202797
2926.155254	1184.157343
2927.430759	1181.187413
2928.709132	1204.702797
2929.982691	1207.624476
2931.259117	1199.346853
2932.533802	1198.095804
2933.806746	1203.362238
2935.081022	1184.374825
2936.353558	1182.405594
2937.625889	1185.492308
2938.894948	1200.037063
2940.166872	1180.890909
2941.437058	1177.516084
2942.707040	1168.320979
2943.976819	1181.623077
2945.244862	1164.233566
2946.511168	1166.890909
2947.777273	1176.946154
2949.044707	1177.193706
2950.310406	1177.991608
2951.575904	1196.722378
2952.841199	1202.557343
2954.103229	1194.693706
2955.366589	1183.469231
2956.629748	1191.280420
2957.891175	1195.236364
2959.153931	1196.144056
2960.414955	1187.869930
2961.674249	1193.727972
2962.933343	1165.830769
2964.192236	1157.277622
2965.450929	1152.509091
2966.709422	1157.911189
2967.966186	1167.755245
2969.222750	1196.209790
2970.477586	1213.000000
2971.733752	1218.301399
2972.986663	1231.111888
2974.240902	1221.111189
2975.494943	1221.888112
2976.747258	1220.765734
2977.999375	1189.404196
2979.249767	1179.853147
2980.503014	1168.984615
2981.751484	1183.323077
2983.002809	1208.679720
2984.250884	1221.860140
2985.498762	1216.005594
2986.746444	1208.582517
2987.993928	1192.017483
2989.239691	1189.225874
2990.485258	1192.888112
2991.732152	1172.638462
2992.975802	1141.474825
2994.220780	1127.290210
2995.462514	1133.484615
2996.707100	1165.102098
2997.949967	1185.887413
2999.189593	1185.695804
3000.432069	1199.408392
3001.671305	1213.147552
3002.911869	1206.207692
3004.150716	1219.579720
3005.389369	1222.392308
3006.626306	1214.862937
3007.864571	1231.972727
3009.101120	1234.262937
3010.337476	1243.878322
3011.573638	1265.759441
3012.808086	1264.295105
3014.042342	1259.144755
3015.276404	1275.786713
3016.508753	1283.642657
3017.739392	1289.855245
3018.972876	1293.471329
3020.204648	1307.139860
3021.434710	1314.059441
3022.664579	1316.850350
3023.892739	1289.616084
3025.122226	1285.791608
3026.350003	1278.615385
3027.577589	1244.356643
3028.806501	1231.938462
3030.030671	1224.349650
3031.257685	1217.537762
3032.481474	1216.862937
3033.706590	1202.544755
3034.929999	1219.538462
3036.153218	1211.497203
3037.374732	1218.825175
3038.599087	1216.786713
3039.818707	1233.920280
3041.039653	1227.726573
3042.260410	1220.506993
3043.479463	1228.126573
3044.699841	1220.608392
3045.917003	1233.446853
3047.135491	1237.109790
3048.352276	1251.881119
3049.568874	1271.226573
3050.785283	1247.743357
3051.998479	1240.030070
3053.214514	1228.174825
3054.427336	1218.546154
3055.642994	1215.086713
3056.853931	1204.809790
3058.066192	1207.835664
3059.278266	1205.857343
3060.490154	1220.178322
3061.700345	1227.234266
3062.910349	1225.369930
3064.120167	1205.631469
3065.328289	1167.919580
3066.536226	1149.397902
3067.742467	1136.265035
3068.950033	1108.489510
3070.155904	1109.400699
3071.361590	1128.167133
3072.567092	1137.551049
3073.770900	1139.864336
3074.976032	1155.165035
3076.179471	1149.582517
3077.381219	1161.584615
3078.582782	1170.418881
3079.784162	1171.963636
3080.985358	1170.584615
3082.184864	1169.853846
3083.384187	1158.907692
3084.584833	1165.496503
3085.783789	1187.675524
3086.979551	1174.518182
3088.178142	1182.888112
3089.373539	1182.863636
3090.570259	1165.895105
3091.763787	1168.516084
3092.960143	1174.240559
3094.154812	1174.062937
3095.346291	1170.206294
3096.542102	1172.337063
3097.733218	1156.356643
3098.925658	1156.576224
3100.114910	1142.837063
3101.306987	1148.300000
3102.497381	1150.979720
3103.684589	1133.930070
3104.873119	1120.143357
3106.062972	1111.690210
3107.249641	1149.247552
3108.436129	1168.211189
3109.622439	1184.208392
3110.810070	1194.556643
3111.994519	1186.148951
3113.177289	1191.574126
3114.362881	1183.718881
3115.546794	1190.389510
3116.729028	1193.211888
3117.911083	1176.938462
3119.092960	1177.653846
3120.274659	1191.213986
3121.454681	1206.900000
3122.633026	1197.977622
3123.814191	1198.088112
3124.992181	1192.995105
3126.169994	1175.568531
3127.347630	1168.962937
3128.523592	1155.368531
3129.699376	1144.825874
3130.876482	1139.359441
3132.051913	1142.469930
3133.225671	1154.250350
3134.397756	1163.007692
3135.571163	1145.334965
3136.744393	1133.193007
3137.915952	1142.941958
3139.088831	1141.098601
3140.258543	1141.075524
3141.429576	1151.275524
3142.598939	1151.820979
3143.766631	1142.289510
3144.937139	1138.984615
3146.102989	1160.204895
3147.273147	1157.886014
3148.438649	1157.127972
3149.603976	1143.777622
3150.769130	1142.048951
3151.934111	1147.727972
3153.100411	1153.679021
3154.262059	1157.913287
3155.425026	1176.664336
3156.587821	1175.392308
3157.750443	1185.209091
3158.911399	1197.302797
3160.072184	1189.765734
3161.232796	1179.809091
3162.391744	1171.406993
3163.550521	1174.523077
3164.709125	1180.492308
3165.867558	1172.562238
3167.025820	1178.306993
3168.182419	1165.621678
3169.337357	1178.664336
3170.493614	1181.355245
3171.648210	1210.004895
3172.802636	1224.144755
3173.955402	1218.136364
3175.107997	1213.799301
3176.260423	1215.722378
3177.412679	1238.692308
3178.564764	1249.834266
3179.713703	1251.071329
3180.865450	1249.437063
3182.015538	1244.611189
3183.163970	1251.481818
3184.312232	1233.937762
3185.460326	1230.721678
3186.608251	1222.697902
3187.754520	1203.220280
3188.900621	1189.298601
3190.045068	1183.083217
3191.189347	1184.026573
3192.333458	1187.488811
3193.478886	1177.231469
3194.621176	1173.127273
3195.763299	1179.484615
3196.905254	1173.809790
3198.047042	1162.119580
3199.188663	1150.687413
3200.327149	1147.149650
3201.466952	1146.490909
3202.608072	1146.967133
3203.746059	1143.935664
3204.882396	1161.081818
3206.018567	1182.060839
3207.156055	1200.371329
3208.291895	1213.167133
3209.429052	1219.394406
3210.561596	1234.800000
3211.698422	1235.644056
3212.830636	1244.647552
3213.964167	1231.486014
3215.097534	1232.589510
3216.227773	1220.409091
3217.360810	1194.758042
3218.490721	1210.815385
3219.621948	1219.878322
3220.750051	1223.965035
3221.880950	1213.845455
3223.010205	1214.070629
3224.137817	1238.317483
3225.262306	1229.202797
3226.391071	1250.716783
3227.516714	1234.606993
3228.642195	1247.393007
3229.766033	1241.753147
3230.892667	1232.732867
3232.014703	1255.283217
3233.138055	1242.731469
3234.261245	1226.750350
3235.384272	1224.827273
3236.505661	1212.427972
3237.626887	1231.043357
3238.746476	1217.553147
3239.865903	1236.237762
3240.983692	1227.881818
3242.104273	1235.870629
3243.221741	1246.670629
3244.339048	1247.712587
3245.456195	1245.040559
3246.571705	1220.906993
3247.688531	1222.193706
3248.802247	1229.689510
3249.918752	1231.930769
3251.033623	1253.772028
3252.145384	1272.756643
3253.256987	1312.190210
3254.369905	1310.555245
3255.482663	1322.967832
3256.592315	1322.188112
3257.703282	1306.673427
3258.814090	1286.435664
3259.923266	1278.472727
3261.030811	1287.781818
3262.139671	1284.746154
3263.248373	1271.492308
3264.353972	1257.730070
3265.460885	1263.265035
3266.566169	1274.800000
3267.672767	1285.804895
3268.776265	1289.657343
3269.881077	1274.548951
3270.985732	1276.097902
3272.087289	1269.304895
3273.188689	1264.377622
3274.291403	1264.137063
3275.393961	1256.467832
3276.493422	1233.927273
3277.595667	1225.192308
3278.694816	1240.461538
3279.792341	1258.039161
3280.889710	1276.530769
3281.989861	1284.831469
3283.086920	1293.144755
3284.183823	1285.853846
3285.280571	1282.155944
3286.372760	1280.576224
3287.469199	1274.455944
3288.564015	1270.679720
3289.658677	1257.374825
3290.751717	1269.478322
3291.844602	1261.856643
3292.935867	1256.291608
3294.028445	1248.866434
3295.119403	1264.890210
3296.208741	1260.784615
3297.297926	1245.049650
3298.388424	1261.455944
3299.475837	1273.656643
3300.563097	1277.225175
3301.651670	1287.272028
3302.740090	1279.922378
3303.823964	1293.251748
3304.912079	1275.829371
3305.997112	1282.182517
3307.080530	1272.287413
3308.165260	1270.255944
3309.248374	1257.139860
3310.332801	1240.141958
3311.414149	1246.316783
3312.496809	1267.944755
3313.577855	1278.146853
3314.658750	1282.208392
3315.738031	1287.234266
3316.817162	1295.872028
3317.897605	1291.395105
3318.974973	1296.039161
3320.053653	1297.761538
3321.130721	1303.243357
3322.207640	1303.964336
3323.282947	1313.362937
3324.358105	1323.845455
3325.434574	1331.820280
3326.507973	1354.013986
3327.581222	1366.500699
3328.655783	1365.326573
3329.728735	1346.509091
3330.800078	1329.491608
3331.872732	1325.783217
3332.942320	1321.946154
3334.013218	1314.279720
3335.082509	1307.246853
3336.153111	1297.558741
3337.222106	1294.789510
3338.289495	1292.070629
3339.355279	1323.674126
3340.425289	1318.627273
3341.492236	1334.122378
3342.556121	1323.168531
3343.622773	1323.857343
3344.687822	1320.483217
3345.751267	1317.035664
3346.814566	1321.857343
3347.877718	1345.195105
3348.940724	1335.577622
3350.003584	1348.589510
3351.064842	1333.230070
3352.123043	1359.023776
3353.185464	1363.342657
3354.244830	1384.238462
3355.304050	1359.932168
3356.364579	1361.772727
3357.420600	1356.783916
3358.479384	1338.747552
3359.533661	1351.386014
3360.590702	1356.614685
3361.646144	1345.566434
3362.702896	1343.265035
3363.758049	1338.834965
3364.811605	1353.510490
3365.863565	1352.365734
3366.918286	1356.083217
3367.969958	1360.959441
3369.021487	1365.509091
3370.074324	1373.860140
3371.124114	1354.976224
3372.175213	1365.186713
3373.223266	1345.818881
3374.274078	1319.106294
3375.321846	1313.551049
3376.369470	1300.523776
3377.416953	1284.254545
3378.462843	1273.905594
3379.510041	1284.258042
3380.554197	1287.050350
3381.601111	1294.233566
3382.646433	1321.090210
3383.688714	1327.149650
3384.730854	1342.027273
3385.774303	1339.465035
3386.817610	1337.515385
3387.859327	1357.317483
3388.900904	1345.916084
3389.942339	1331.983916
3390.982186	1321.427972
3392.020444	1319.179720
3393.060010	1303.000699
3394.099436	1291.725874
3395.137274	1288.872028
3396.173525	1287.327972
3397.209637	1296.518881
3398.247056	1307.256643
3399.281442	1305.234965
3400.317135	1315.504895
3401.352689	1331.893007
3402.385212	1349.780420
3403.420487	1345.162238
3404.452733	1358.497203
3405.484840	1362.419580
3406.515363	1335.499301
3407.547193	1323.783916
3408.578885	1316.552448
3409.607549	1316.701399
3410.636076	1329.660839
3411.665909	1326.136364
3412.695605	1341.597203
3413.722275	1358.015385
3414.750251	1363.087413
3415.775204	1367.572028
3416.802906	1400.012587
3417.827585	1398.054545
3418.853570	1381.142657
3419.877975	1379.700699
3420.902244	1388.634965
3421.924934	1411.523776
3422.947488	1436.753846
3423.971348	1432.676923
3424.992188	1414.429371
3426.012892	1401.661039
3427.034903	1390.977323
3428.053895	1385.497802
3429.072751	1388.342058
3430.092914	1402.629670
3431.110060	1431.480220
