-118.146553	53.855495
-115.476953	53.003297
-112.810288	53.662637
-110.144375	55.473726
-107.481395	58.076773
-104.816984	61.111988
-102.155504	64.219580
-99.492595	65.702797
-96.834792	69.383217
-94.175560	67.223077
-91.517076	70.396503
-88.861517	71.405594
-86.204528	71.423077
-83.552638	67.341958
-80.899318	69.307692
-78.248917	63.970629
-75.597088	65.876224
-72.950349	67.451748
-70.302180	69.688112
-67.654754	70.336364
-65.010243	74.603497
-62.364302	72.164336
-59.723443	78.131469
-57.081155	76.535664
-54.441776	76.807692
-51.800967	80.091608
-49.160899	84.485315
-46.525904	85.111888
-43.889479	95.974825
-41.255957	104.048252
-38.621007	112.301399
-35.991122	116.985315
-33.357645	128.244755
-30.729230	132.023776
-28.101549	142.316084
-25.472439	108.934266
-22.848386	-98.815385
-20.220744	-1014.330769
-17.598155	-3397.216783
-14.976298	-2732.488811
-12.355171	2053.026573
-9.734775	13384.595105
-7.117266	23280.968531
-4.498329	30281.236364
-1.882277	34340.265035
0.733046	35427.953846
3.347641	33560.019580
5.959355	28749.450350
8.572497	21136.474126
11.180605	11243.260140
13.792295	1131.551748
16.398954	-3940.890909
19.007041	-4305.925175
21.614404	-477.144755
24.216742	156.476224
26.822658	158.171329
29.423552	147.732168
32.025874	133.612587
34.623179	124.120280
37.224059	113.753147
39.819924	108.500699
42.417218	101.928671
45.013792	95.870629
47.605357	94.065734
50.198350	92.473427
52.788482	84.900000
55.380041	82.632867
57.968742	78.081119
60.558869	76.943357
63.143997	76.439161
65.730553	83.395105
68.316395	85.327972
70.899383	88.693706
73.483797	87.218881
76.061083	88.813986
78.641935	87.920280
81.219938	86.738462
83.797231	84.718881
86.375950	82.604196
88.949687	77.305594
91.524852	78.869231
94.097173	78.570629
96.668786	82.539860
99.237559	85.344056
101.807759	88.861538
104.375120	88.566434
106.943908	88.404895
109.509859	91.257343
112.072975	98.765734
114.639647	106.267832
117.197098	117.496503
119.760234	135.837063
122.318410	171.639860
124.880141	232.246154
127.436915	340.054545
129.995115	499.124476
132.548363	704.669231
135.100913	948.114685
137.657013	1219.613287
140.208165	1495.039161
142.758620	1766.802797
145.308377	2012.094406
147.855315	2220.799301
150.401558	2373.285315
152.949226	2469.137762
155.496198	2515.502797
158.038235	2537.412587
160.579578	2535.074126
163.120228	2512.547552
165.662304	2472.765035
168.201568	2435.013287
170.738023	2387.836364
173.273788	2363.514685
175.810978	2353.451748
178.347477	2360.311888
180.881170	2378.516084
183.412059	2403.754545
185.942260	2439.051049
188.473887	2488.288811
191.002712	2526.097902
193.528738	2562.164336
196.054078	2591.290210
198.580843	2616.346853
201.104812	2627.970629
203.628096	2637.472028
206.150695	2641.648951
208.670501	2650.601399
211.189623	2660.563636
213.708064	2663.716084
216.227928	2669.127972
218.740791	2669.032168
221.257185	2649.149650
223.772897	2630.750350
226.283719	2613.929371
228.795966	2594.286713
231.305431	2576.648252
233.814216	2562.075524
236.322324	2554.415385
238.831856	2559.174126
241.336507	2563.010490
243.840482	2564.378322
246.345881	2564.341958
248.846405	2581.040559
251.350452	2742.988811
253.847529	3215.889510
256.348129	3973.274825
258.845957	4792.604196
261.343112	5470.893706
263.839594	5923.454545
266.331213	6106.346154
268.826352	6007.668531
271.318724	5636.720979
273.810426	5049.574825
276.299365	4328.755245
278.789727	3621.218182
281.277328	3127.196503
283.762169	2932.955245
286.250525	2915.717483
288.731941	2896.734965
291.216871	2817.065734
293.696956	2704.135664
296.180553	2575.929371
298.659307	2438.953147
301.139484	2319.857343
303.616910	2244.505594
306.093672	2220.469231
308.569770	2259.197902
311.043121	2338.140559
313.515809	2428.762238
315.987836	2510.013986
318.459202	2578.084615
320.927823	2626.199301
323.395785	2648.344056
325.865170	2641.644056
328.329732	2607.287413
330.797798	2549.044755
333.261044	2479.621678
335.723632	2413.541958
338.185564	2385.002797
340.646839	2364.632168
343.105380	2361.187413
345.565343	2355.409790
348.022573	2353.746853
350.479149	2353.661538
352.935071	2354.417483
355.388263	2348.188811
357.842878	2342.430769
360.292691	2325.311888
362.746000	2308.094406
365.194510	2284.731469
367.642370	2273.308392
370.091652	2248.837063
372.536140	2234.152448
374.982050	2213.698601
377.427310	2197.158042
379.869852	2182.972028
382.311746	2173.186014
384.752993	2163.033566
387.191524	2157.815385
389.631476	2149.809790
392.068715	2147.760839
394.503243	2143.302797
396.941258	2149.023077
399.374496	2147.556643
401.809155	2150.202797
404.239042	2148.113287
406.672414	2152.091608
409.101016	2153.172028
411.528976	2156.885315
413.958358	2164.305594
416.382974	2174.667832
418.809012	2179.731469
421.234409	2184.111189
423.659166	2186.149650
426.079165	2195.075524
428.500584	2195.341259
430.919308	2199.283217
433.339452	2199.770629
435.756901	2208.905594
438.175770	2209.730070
440.591946	2214.724476
443.003374	2225.251748
445.418279	2230.914685
447.830495	2231.813287
450.242076	2232.848252
452.653023	2230.990210
455.061284	2225.695804
457.468912	2210.186713
459.875908	2198.825874
462.282273	2186.727273
464.685955	2177.854545
467.089007	2160.393007
469.491429	2145.272028
471.893221	2136.486713
474.292335	2131.801399
476.692869	2131.895804
479.092774	2140.481119
481.487957	2149.946154
483.886606	2153.853846
486.280534	2154.013986
488.673837	2160.122378
491.066515	2163.309790
493.458567	2152.906294
495.852037	2135.178322
498.240795	2114.408392
500.626887	2089.990909
503.014399	2052.638462
505.401288	2010.262937
507.785513	1968.107692
510.171156	1929.404196
512.554138	1885.948951
514.934459	1844.913986
517.316199	1822.111189
519.695280	1807.890210
522.075779	1794.295804
524.453622	1789.577622
526.828808	1790.292308
529.203378	1779.790210
531.579365	1761.913287
533.952700	1737.463636
536.327452	1714.033566
538.697519	1685.144056
541.066970	1657.135664
543.437839	1629.204196
545.804027	1615.335664
548.171634	1601.447552
550.536596	1593.141958
552.900944	1583.628671
555.264679	1584.630769
557.629832	1582.602797
559.990313	1582.723776
562.352212	1576.042657
564.711470	1579.413287
567.068090	1577.258042
569.428156	1576.775524
571.781530	1568.089510
574.138349	1561.800000
576.492533	1549.933566
578.846108	1535.666434
581.199076	1518.978322
583.549411	1514.671329
585.901164	1505.734965
588.246240	1499.834965
590.596779	1497.867133
592.940646	1505.395105
595.289974	1507.353846
597.634653	1510.622378
599.976708	1507.587413
602.320180	1510.655245
604.661029	1510.420280
607.001275	1508.032168
609.338902	1504.028671
611.679963	1505.468531
614.016386	1498.016084
616.354226	1494.590909
618.689449	1490.148252
621.022056	1490.751049
623.356079	1482.113986
625.687488	1483.529371
628.018299	1475.495105
630.348513	1480.428671
632.678128	1481.330769
635.003120	1482.746154
637.333554	1483.083916
639.659367	1486.309790
641.982572	1481.742657
644.307194	1478.324476
646.629210	1472.265734
648.950632	1466.457343
651.269452	1461.058042
653.589687	1461.561538
655.909329	1455.627273
658.226370	1458.584615
660.542819	1454.138462
662.856670	1460.095804
665.171937	1464.788112
667.484607	1469.430769
669.798692	1463.233566
672.108177	1461.820280
674.419078	1453.342657
676.727386	1446.402098
679.035106	1442.765035
681.344240	1441.488112
683.648782	1436.110490
685.952738	1430.851049
688.256108	1424.080420
690.560892	1425.562238
692.861089	1419.761538
695.162702	1414.405594
697.463729	1398.933566
699.760175	1390.317483
702.058036	1376.157343
704.355313	1372.327972
706.652007	1365.418881
708.944125	1368.060839
711.239654	1363.311189
713.530609	1367.002797
715.822979	1370.595105
718.112774	1375.921678
720.401988	1369.607692
722.690623	1366.616783
724.976685	1359.904895
727.264162	1356.504196
729.549067	1351.523776
731.833395	1351.103497
734.115154	1347.793706
736.398327	1349.645455
738.680923	1348.039860
740.958963	1352.653147
743.238418	1354.250350
745.517296	1354.527972
747.795600	1348.474825
750.069354	1349.032867
752.344521	1344.637063
754.619115	1337.690909
756.891150	1330.027273
759.164598	1332.558042
761.435488	1331.886713
763.703822	1334.369930
765.973569	1335.264336
768.240761	1342.172727
770.507384	1350.586713
772.773436	1360.014685
775.036937	1365.800000
777.301851	1372.289510
779.566195	1371.283217
781.826010	1367.095105
784.087237	1369.597203
786.347897	1367.986014
788.606011	1360.755944
790.861580	1362.849650
793.120540	1354.687413
795.373000	1352.085315
797.630828	1352.821678
799.884137	1353.132168
802.134906	1347.085315
804.387087	1345.818881
806.636729	1341.079720
808.887784	1338.087413
811.134327	1328.748252
813.382282	1318.034965
815.627703	1317.696503
817.874535	1316.302797
820.120806	1308.271329
822.362572	1300.104196
824.607722	1301.052448
826.846399	1302.455245
829.088458	1297.655944
831.326019	1302.948252
833.564992	1304.930070
835.801438	1308.355944
838.039295	1303.536364
840.274627	1304.879021
842.507436	1306.972727
844.741656	1303.501399
846.973353	1299.573427
849.204496	1292.220979
851.435084	1295.690909
853.665118	1290.693706
855.894598	1283.610490
858.119596	1275.530769
860.347969	1262.845455
862.571862	1260.170629
864.797167	1254.656643
867.017996	1249.270629
869.242197	1252.453147
871.461925	1257.150350
873.683063	1266.882517
875.903651	1278.390909
878.121730	1278.155944
880.341218	1279.747552
882.556240	1295.686014
884.770714	1292.592308
886.984641	1291.708392
889.198021	1304.021678
891.410853	1303.162238
893.623139	1301.586014
895.832922	1299.238462
898.042160	1287.569930
900.250853	1280.526573
902.457046	1271.068531
904.664650	1242.582517
906.869755	1247.568531
909.074317	1258.960140
911.276384	1258.865035
913.479860	1271.930070
915.680842	1288.465734
917.881282	1297.953846
920.083131	1309.893706
922.278589	1314.491608
924.477406	1315.946154
926.671784	1313.232168
928.869520	1303.936364
931.062820	1297.573427
933.257529	1314.970629
935.449752	1324.981818
937.641436	1328.759441
939.832583	1334.365734
942.021247	1347.481818
944.209375	1369.020979
946.395022	1376.407692
948.584021	1365.720979
950.768597	1352.374126
952.952638	1338.016783
955.140029	1339.064336
957.319116	1345.783916
959.501554	1351.748252
961.683458	1361.225874
963.862887	1385.996503
966.039844	1421.016084
968.218209	1472.376224
970.397981	1515.028671
972.571404	1524.049650
974.748173	1533.587413
976.920535	1535.109091
979.094305	1531.411888
981.263671	1507.579021
983.436381	1497.561538
985.606626	1489.527273
987.776341	1469.069231
989.945529	1501.294406
992.110319	1514.804196
994.278450	1547.409790
996.442186	1552.639161
998.607330	1550.741958
1000.770014	1558.340559
1002.932173	1552.358741
1005.091875	1533.513287
1007.251052	1523.562238
1009.411636	1558.997902
1011.569765	1530.029371
1013.727371	1505.802098
1015.884453	1514.653846
1018.041011	1499.825175
1020.193190	1506.374825
1022.346776	1485.148252
1024.499840	1471.080420
1026.650455	1464.728671
1028.802477	1437.576224
1030.950125	1409.066434
1033.101105	1380.204895
1035.247714	1342.024476
1037.393804	1261.608392
1039.539376	1188.749650
1041.686353	1129.051049
1043.827041	1096.148951
1045.971059	1050.553147
1048.112636	1004.417483
1050.253697	975.463636
1052.396162	975.432867
1054.532347	947.280420
1056.671859	926.299301
1058.807016	913.934266
1060.945497	920.346154
1063.079624	935.282517
1065.213238	946.247552
1067.348256	1023.951748
1069.478926	1086.748951
1071.611000	1140.355944
1073.740645	1203.334266
1075.869778	1287.337063
1077.998399	1382.532867
1080.126509	1430.509790
1082.252193	1469.547552
1084.377367	1529.065035
1086.503945	1555.913986
1088.626185	1592.257343
1090.749830	1605.027273
1092.869140	1635.481818
1094.993679	1635.127273
1097.111974	1621.937063
1099.231673	1618.027972
1101.348953	1604.874126
1103.465726	1606.774126
1105.581994	1584.362937
1107.695845	1577.137063
1109.811101	1572.127273
1111.922033	1550.883916
1114.036278	1572.377622
1116.146202	1564.060839
1118.257530	1574.053846
1120.368353	1580.350350
1122.474860	1548.502797
1124.584676	1540.312587
1126.690179	1518.458042
1128.797084	1546.748951
1130.897774	1542.694406
1133.003676	1542.123077
1135.105269	1552.606294
1137.208265	1557.797203
1139.310760	1586.323077
1141.407048	1587.956643
1143.508543	1600.295804
1145.605736	1580.035664
1147.702431	1554.212587
1149.798627	1539.623077
1151.894325	1517.305594
1153.989526	1507.829371
1156.082330	1491.295804
1158.176536	1459.670629
1160.264551	1460.062937
1162.357765	1436.343357
1164.444790	1429.195105
1166.535114	1418.908392
1168.621150	1431.827972
1170.710485	1416.753846
1172.793638	1433.118881
1174.878193	1457.160839
1176.964150	1460.261538
1179.045825	1472.606294
1181.128901	1493.509091
1183.209592	1473.399301
1185.289792	1481.773427
1187.369500	1456.024476
1189.448717	1447.460839
1191.525552	1443.866434
1193.600005	1449.432168
1195.677751	1436.093706
1197.751227	1453.869930
1199.826103	1460.095105
1201.896712	1451.878322
1203.968722	1443.177622
1206.038357	1441.927273
1208.109391	1434.444755
1210.179939	1429.262937
1212.246225	1411.416084
1214.313912	1413.039860
1216.379227	1404.670629
1218.445942	1402.091608
1220.508401	1391.462937
1222.574145	1393.393007
1224.635635	1377.610490
1226.698526	1369.967832
1228.759049	1370.874825
1230.819088	1385.659441
1232.878644	1396.182517
1234.935836	1414.374825
1236.992546	1427.757343
1239.046892	1437.376923
1241.104520	1439.200699
1243.159785	1446.255245
1245.210809	1423.597203
1247.263233	1412.537063
1249.315177	1395.163636
1251.364763	1392.051748
1253.413870	1392.885315
1255.462498	1400.344056
1257.510648	1392.909790
1259.558320	1397.258042
1261.601761	1404.665035
1263.648478	1409.220979
1265.692841	1426.597902
1267.736728	1426.877622
1269.778263	1399.612587
1271.817449	1396.184615
1273.859908	1392.644056
1275.898144	1404.952448
1277.937779	1412.853846
1279.976939	1429.954545
1282.011880	1428.418182
1284.048220	1416.745455
1286.082216	1409.713986
1288.117609	1407.808392
1290.148790	1400.347552
1292.181368	1381.165734
1294.213475	1352.838462
1296.243241	1363.089510
1298.274404	1373.281119
1300.301361	1387.686713
1302.329715	1407.350350
1304.353864	1434.111189
1306.381279	1445.244056
1308.404491	1451.659441
1310.429101	1441.218182
1312.451377	1450.967832
1314.475049	1442.019580
1316.496389	1420.444056
1318.517262	1398.847552
1320.537667	1415.493706
1322.553879	1402.171329
1324.571488	1403.758042
1326.586769	1401.497902
1328.605309	1394.424476
1330.619660	1385.538462
1332.631684	1394.639161
1334.646967	1370.046853
1336.658064	1364.345455
1338.670558	1351.272028
1340.678869	1335.095804
1342.690435	1326.695804
1344.695963	1339.272028
1346.704746	1338.305594
1348.709351	1356.655245
1350.717210	1361.782517
1352.724607	1360.155245
1354.725973	1365.720979
1356.728735	1369.400699
1358.731038	1361.953147
1360.732881	1369.837063
1362.734264	1365.517483
1364.733334	1379.281119
1366.731945	1383.044755
1368.730097	1394.093706
1370.727792	1392.145455
1372.721324	1390.465734
1374.716251	1388.967832
1376.710722	1380.360839
1378.704736	1370.248951
1380.696443	1359.643357
1382.687694	1353.288811
1384.676640	1362.734266
1386.666982	1357.209091
1388.656868	1378.959441
1390.644450	1382.892308
1392.631579	1392.212587
1394.616406	1388.881119
1396.602628	1396.781119
1398.586549	1407.172028
1400.570018	1412.493706
1402.553035	1409.596503
1404.533754	1408.637762
1406.515867	1411.578322
1408.495684	1419.631469
1410.475049	1412.571329
1412.450276	1419.360839
1414.428741	1410.373427
1416.404913	1408.448951
1418.380635	1402.139860
1420.355909	1409.397203
1422.328891	1410.864336
1424.301425	1411.332867
1426.273511	1404.228671
1428.245150	1409.272727
1430.212660	1412.094406
1432.185244	1402.905594
1434.150022	1393.317483
1436.119873	1397.880420
1438.085600	1393.923077
1440.052719	1397.389510
1442.017555	1398.058741
1443.978271	1403.969231
1445.944055	1415.970629
1447.903884	1425.738462
1449.865107	1422.120979
1451.827721	1442.767832
1453.786221	1453.497203
1455.744279	1450.266434
1457.701895	1460.195105
1459.659068	1459.007692
1461.613966	1471.896503
1463.570257	1474.593007
1465.524273	1464.475524
1467.477848	1459.211189
1469.429151	1452.253846
1471.381846	1452.714685
1473.332270	1452.069231
1475.282255	1462.808392
1477.231801	1459.794406
1479.179078	1461.601399
1481.124087	1464.274825
1483.070489	1457.242657
1485.016453	1468.141958
1486.961980	1466.213986
1488.905241	1458.820280
1490.848067	1459.469930
1492.788628	1461.859441
1494.730582	1475.619580
1496.670273	1490.009091
1498.609529	1505.222378
1500.548351	1502.831469
1502.484913	1498.271329
1504.422866	1496.003497
1506.358560	1475.318182
1508.293821	1458.739161
1510.226825	1448.808392
1512.159398	1440.244056
1514.091538	1443.913287
1516.023246	1463.870629
1517.952700	1486.002098
1519.883545	1505.927273
1521.813958	1520.171329
1523.740299	1516.972727
1525.668030	1518.410490
1527.593512	1522.839860
1529.518564	1506.032867
1531.443187	1516.155245
1533.367380	1505.449650
1535.289327	1506.452448
1537.212664	1519.179720
1539.133754	1539.574126
1541.052600	1548.785315
1542.972836	1532.010490
1544.890829	1529.588112
1546.808394	1541.553147
1548.723719	1551.009790
1550.640433	1564.337762
1552.553092	1574.762937
1554.468955	1584.942657
1556.382578	1570.835664
1558.293963	1557.951748
1560.206738	1547.923077
1562.115463	1543.202797
1564.025577	1536.440559
1565.935268	1529.048951
1567.844536	1548.004895
1569.751570	1565.875524
1571.656371	1575.995804
1573.562561	1586.867832
1575.466519	1585.948252
1577.370056	1571.434965
1579.273173	1543.799301
1581.174060	1524.060140
1583.076336	1527.746853
1584.976384	1538.332867
1586.877819	1536.128671
1588.775221	1544.566434
1590.672204	1544.011888
1592.568769	1544.974825
1594.466721	1547.400000
1596.358839	1558.220979
1598.254151	1561.478322
1600.149045	1557.471329
1602.041717	1562.008392
1603.933972	1603.332168
1605.824008	1647.460839
1607.713628	1677.692308
1609.602833	1704.188112
1611.491623	1705.082517
1613.378195	1710.365035
1615.266155	1719.798601
1617.150098	1715.363636
1619.035428	1701.935664
1620.920345	1685.626573
1622.803048	1637.279720
1624.687138	1609.310490
1626.567216	1640.218881
1628.448682	1646.478322
1630.327937	1675.179021
1632.208578	1679.431469
1634.083415	1683.669930
1635.963233	1704.581818
1637.839047	1720.083217
1639.714450	1723.773427
1641.591239	1702.434965
1643.462232	1684.606993
1645.336406	1649.641259
1647.206581	1657.073427
1649.079937	1668.780420
1650.951090	1653.930070
1652.820042	1651.417483
1654.690378	1630.292308
1656.556722	1622.962937
1658.424451	1598.511888
1660.289981	1596.517483
1662.156897	1599.668531
1664.019823	1586.773427
1665.884136	1589.012587
1667.746252	1598.361538
1669.607963	1599.503497
1671.471060	1578.576224
1673.331961	1582.559441
1675.190670	1576.668531
1677.048975	1586.317483
1678.908664	1566.892308
1680.762587	1590.064336
1682.619683	1623.032168
1684.476375	1664.895804
1686.329092	1693.126573
1688.184980	1700.340559
1690.036894	1706.825175
1691.888407	1691.679021
1693.739519	1661.205594
1695.590230	1668.460140
1697.440541	1639.873427
1699.288668	1640.392308
1701.138179	1637.234965
1702.981940	1658.434266
1704.830652	1655.970629
1706.673617	1674.083916
1708.519749	1668.136364
1710.361918	1651.436364
1712.207253	1661.302098
1714.046847	1643.747552
1715.887825	1636.867133
1717.730186	1651.144056
1719.568591	1608.770629
1721.408379	1619.227972
1723.245991	1597.489510
1725.083209	1602.681818
1726.918253	1590.158741
1728.754680	1613.939161
1730.588935	1583.574126
1732.422795	1593.960839
1734.256261	1614.506993
1736.085782	1614.609790
1737.918461	1631.932867
1739.747196	1621.560140
1741.579088	1631.853147
1743.407038	1646.209790
1745.234596	1652.210490
1747.061763	1714.078322
1748.888538	1712.742657
1750.714921	1710.861538
1752.537368	1676.727273
1754.362970	1673.755245
1756.184637	1667.688112
1758.007686	1649.082517
1759.828573	1632.930769
1761.649072	1621.709091
1763.470951	1667.200000
1765.287132	1677.301399
1767.106464	1719.730769
1768.921868	1728.416084
1770.740424	1731.474126
1772.555054	1723.792308
1774.369297	1747.991608
1776.183154	1773.087413
1777.996624	1760.868531
1779.807941	1769.142657
1781.620638	1765.892308
1783.432950	1753.269930
1785.241343	1768.148252
1787.051118	1738.976224
1788.856978	1734.271329
1790.665983	1681.617483
1792.471075	1686.295105
1794.277548	1682.440559
1796.083637	1688.363636
1797.885815	1690.906294
1799.691138	1676.837063
1801.492552	1726.285315
1803.295346	1729.320280
1805.094234	1739.744056
1806.894503	1762.042657
1808.694390	1745.388112
1810.492135	1775.382517
1812.289500	1771.566434
1814.086484	1768.804895
1815.883089	1745.985315
1817.677554	1723.693007
1819.473398	1719.359441
1821.263587	1722.789510
1823.058673	1733.149650
1824.848106	1729.000000
1826.640677	1741.215385
1828.431112	1738.313287
1830.219413	1745.277622
1832.010849	1759.247552
1833.796639	1778.681119
1835.583809	1763.631469
1837.368847	1745.714685
1839.157019	1751.049650
1840.941305	1764.299301
1842.723461	1755.717483
1844.506997	1747.304196
1846.288404	1749.790909
1848.071190	1752.316783
1849.850095	1734.934965
1851.630379	1749.880420
1853.408538	1770.006993
1855.188075	1789.053147
1856.965486	1785.312587
1858.740775	1795.084615
1860.517441	1793.074126
1862.291985	1803.498601
1864.067907	1781.979021
1865.838208	1781.985315
1867.611637	1792.139860
1869.382946	1800.634266
1871.153884	1777.186014
1872.926200	1802.227972
1874.692902	1804.281119
1876.462729	1812.611189
1878.228693	1816.091608
1879.997781	1806.586713
1881.763007	1786.187413
1883.527865	1770.823776
1885.294100	1748.315385
1887.056476	1760.512587
1888.818484	1773.593007
1890.580126	1767.486713
1892.341401	1745.560140
1894.102308	1769.273427
1895.862849	1763.226573
1897.621280	1773.876224
1899.379345	1750.580420
1901.135303	1733.155245
1902.892637	1713.802098
1904.649606	1712.084615
1906.404468	1706.430070
1908.157226	1715.487413
1909.909619	1704.042657
1911.663389	1694.241958
1913.415055	1693.589510
1915.164619	1710.064336
1916.915558	1701.834266
1918.666135	1691.007692
1920.412872	1688.128671
1922.160986	1685.339161
1923.907000	1679.103497
1925.654389	1696.911189
1927.399681	1686.661538
1929.142875	1682.893007
1930.887444	1680.655944
1932.629917	1681.417483
1934.372031	1680.513287
1936.113784	1682.669231
1937.855177	1678.374126
1939.594477	1675.340559
1941.333418	1664.570629
1943.072000	1649.027972
1944.808491	1636.754545
1946.544624	1637.799301
1948.282131	1624.770629
1950.015816	1625.209790
1951.750876	1636.040559
1953.483847	1640.454545
1955.216462	1653.960140
1956.948721	1664.409091
1958.680623	1664.664336
1960.410439	1681.074126
1962.138170	1687.125175
1963.867276	1698.659441
1965.596026	1705.411888
1967.322694	1711.336364
1969.049007	1711.761538
1970.776693	1711.462238
1972.498843	1720.739161
1974.224094	1720.523077
1975.945538	1720.686713
1977.670082	1711.644755
1979.392547	1699.260140
1981.111209	1692.938462
1982.832969	1686.523776
1984.550927	1688.520280
1986.270258	1684.913986
1987.985790	1691.671329
1989.706142	1694.716084
1991.422696	1686.300000
1993.135453	1701.563636
1994.851306	1707.074126
1996.565087	1719.134965
1998.278518	1710.137762
1999.989878	1699.532168
2001.702610	1688.607692
2003.411552	1684.579720
2005.123586	1696.047552
2006.830111	1699.532867
2008.539729	1705.646154
2010.247279	1700.509091
2011.954482	1704.246853
2013.659619	1712.990909
2015.364410	1726.876224
2017.070572	1723.657343
2018.772952	1707.892308
2020.476703	1703.557343
2022.178392	1713.664336
2023.879735	1703.918182
2025.580734	1716.546154
2027.279671	1710.081119
2028.979980	1709.145455
2030.676513	1708.650350
2032.374418	1709.022378
2034.070265	1703.823776
2035.769197	1706.900000
2037.462643	1702.325175
2039.157460	1697.097902
2040.851935	1709.132867
2042.542641	1716.216084
2044.236431	1703.642657
2045.926454	1715.039860
2047.617848	1706.753846
2049.307189	1701.410490
2050.997900	1700.539161
2052.684848	1709.726573
2054.371457	1706.746154
2056.059435	1708.098601
2057.743654	1720.213986
2059.429244	1713.316084
2061.114494	1719.011888
2062.797695	1704.265734
2064.482267	1687.927273
2066.161375	1691.515385
2067.845270	1676.986713
2069.523703	1680.360839
2071.205214	1689.994406
2072.882973	1699.993706
2074.560396	1675.253846
2076.239188	1681.180420
2077.915938	1692.490210
2079.590645	1662.300699
2081.266723	1650.932168
2082.940759	1633.371329
2084.614461	1632.548951
2086.287827	1637.222378
2087.959154	1634.216783
2089.630147	1649.797902
2091.300806	1651.979021
2092.971131	1650.620979
2094.641122	1638.832867
2096.309077	1661.195105
2097.976698	1670.583217
2099.642286	1659.625175
2101.309242	1682.562238
2102.974165	1684.184615
2104.638756	1709.013287
2106.301315	1704.816783
2107.965242	1707.730769
2109.627138	1702.229371
2111.288704	1683.348951
2112.949938	1668.904895
2114.609144	1666.823776
2116.268019	1679.003497
2117.926565	1681.520979
2119.584780	1693.960839
2121.239273	1716.445455
2122.896830	1729.115385
2124.554057	1757.144755
2126.207564	1754.506294
2127.862438	1748.910490
2129.513593	1738.833566
2131.167811	1732.868531
2132.818311	1719.323776
2134.470179	1712.653147
2136.116638	1703.676224
2137.767852	1705.821678
2139.415352	1720.230769
2141.064219	1734.210490
2142.711067	1759.826573
2144.357590	1780.893007
2146.003787	1796.869231
2147.646276	1799.058042
2149.291823	1819.820280
2150.933663	1813.874126
2152.578560	1786.202797
2154.219751	1767.383916
2155.860620	1749.032168
2157.501164	1747.558042
2159.139696	1739.521678
2160.779594	1731.851049
2162.415792	1744.561538
2164.053356	1754.402098
2165.690598	1770.151748
2167.325830	1778.162238
2168.960740	1788.318182
2170.595329	1777.019580
2172.229597	1777.576923
2173.860171	1778.881119
2175.493797	1791.692308
2177.123731	1803.474126
2178.755030	1808.915385
2180.384324	1797.691608
2182.013299	1798.509091
2183.641954	1794.655245
2185.270290	1797.509091
2186.896624	1785.048252
2188.522639	1771.758741
2190.146652	1769.009790
2191.772031	1768.102098
2193.395409	1746.468531
2195.020152	1746.713986
2196.641214	1750.329371
2198.261959	1745.190909
2199.884068	1725.231469
2201.504180	1727.040559
2203.122296	1731.311189
2204.740096	1732.325874
2206.357581	1733.862238
2207.974750	1748.162937
2209.591604	1755.515385
2211.208142	1754.826573
2212.822688	1731.874825
2214.435241	1753.038462
2216.049158	1757.304196
2217.661084	1746.304895
2219.274373	1744.541259
2220.885672	1749.648252
2222.494981	1757.900000
2224.105654	1740.742657
2225.714338	1750.742657
2227.322709	1751.013287
2228.929094	1750.807692
2230.536841	1748.127972
2232.142603	1735.574126
2233.748053	1759.748951
2235.351518	1768.808392
2236.956346	1786.466434
2238.559190	1814.244755
2240.160051	1836.081818
2241.762275	1855.716783
2243.362517	1864.952448
2244.964121	1874.504196
2246.562072	1874.364336
2248.161386	1878.453147
2249.758720	1872.293706
2251.355746	1883.732168
2252.954134	1901.238462
2254.548873	1910.108392
2256.141635	1906.883916
2257.735760	1917.644056
2259.331246	1920.758042
2260.923087	1937.178322
2262.514622	1948.795804
2264.107519	1961.332168
2265.695106	1974.062238
2267.287389	1985.297902
2268.874366	1994.359441
2270.464370	2003.035664
2272.049070	2003.493706
2273.638464	1970.083217
2275.222556	1950.209091
2276.808008	1929.429371
2278.391492	1909.262937
2279.978001	1886.930070
2281.560877	1856.261538
2283.143450	1855.915734
2284.725719	1853.550350
2286.304358	1862.777273
2287.886022	1875.603497
2289.464057	1895.053497
2291.045115	1924.961538
2292.622546	1925.430420
2294.198014	1964.355944
2295.776504	1976.035315
2297.351370	1973.383916
2298.925935	1961.099650
2300.500199	1967.572028
2302.074164	1953.992657
2303.647827	1927.207692
2305.221191	1921.023776
2306.790936	1914.737063
2308.360382	1915.274825
2309.932846	1942.665734
2311.500036	1941.142657
2313.070244	1956.755944
2314.636837	1971.638462
2316.204790	1973.955245
2317.770787	1968.847552
2319.336487	1984.820280
2320.901889	1983.457343
2322.465338	2013.139161
2324.030146	2035.790210
2325.591346	2059.982517
2327.155560	2092.155944
2328.714512	2103.471329
2330.276478	2101.067133
2331.836494	2105.516783
2333.396215	2075.324476
2334.953986	2054.785315
2336.511462	2007.155944
2338.068644	2004.472727
2339.623878	2031.363636
2341.178819	2048.054545
2342.733465	2030.530070
2344.287818	2048.320280
2345.841877	2032.703497
2347.395643	2014.626573
2348.947464	2028.621678
2350.497343	2006.625175
2352.050229	1996.658042
2353.597872	2006.844755
2355.148524	2006.756643
2356.695584	2018.645455
2358.244002	2061.206294
2359.792129	2079.751748
2361.336667	2097.525874
2362.882563	2121.187413
2364.426521	2103.070629
2365.971835	2118.899301
2367.513566	2112.579021
2369.056653	2107.399301
2370.597804	2109.279720
2372.138666	2076.236364
2373.679239	2089.284615
2375.219523	2084.853846
2376.759518	2075.542657
2378.295935	2075.706294
2379.835353	2074.613986
2381.371193	2062.587413
2382.908391	2036.330769
2384.442013	2046.707692
2385.978635	2052.715385
2387.513327	2096.927972
2389.046089	2092.548252
2390.578564	2095.251748
2392.109111	2127.472028
2393.642656	2154.079021
2395.170990	2160.683217
2396.700680	2193.399301
2398.230085	2183.541259
2399.759205	2187.551049
2401.288039	2171.816783
2402.811669	2175.612587
2404.339934	2187.290909
2405.862997	2196.447552
2407.390693	2157.011189
2408.911550	2141.831469
2410.437039	2140.068531
2411.958969	2153.032867
2413.482253	2167.396503
2415.003617	2182.930070
2416.523061	2200.270629
2418.043860	2221.818182
2419.562740	2227.006294
2421.081339	2204.998601
2422.598020	2225.388811
2424.116055	2203.606294
2425.633809	2174.321678
2427.148011	2154.845455
2428.661934	2143.628671
2430.175576	2129.723077
2431.690573	2140.568531
2433.202021	2131.609091
2434.714823	2150.533566
2436.225713	2152.902098
2437.736324	2165.367832
2439.245023	2120.183217
2440.756708	2142.615385
2442.264850	2148.620280
2443.772714	2140.237762
2445.280299	2151.126573
2446.784345	2159.181818
2448.291375	2170.625175
2449.796497	2205.973427
2451.301342	2202.102797
2452.804280	2199.265035
2454.306942	2203.372727
2455.809327	2175.240559
2457.309807	2145.829371
2458.811640	2135.706294
2460.311568	2156.775524
2461.811221	2139.709091
2463.310599	2152.447552
2464.808074	2147.317483
2466.303647	2163.248951
2467.802200	2198.670629
2469.297225	2161.818881
2470.793602	2140.323776
2472.286453	2145.834266
2473.780657	2139.886713
2475.274587	2125.536364
2476.764993	2115.696503
2478.258377	2168.011888
2479.749863	2160.030070
2481.239452	2164.513287
2482.728769	2176.389510
2484.216190	2196.575524
2485.706587	2228.623077
2487.193466	2201.877622
2488.681696	2197.841259
2490.166409	2191.178322
2491.650853	2157.550350
2493.136647	2139.165734
2494.620550	2147.440559
2496.105803	2150.488112
2497.585923	2106.561538
2499.069016	2080.276923
2500.550218	2095.555944
2502.031151	2116.014685
2503.510195	2119.253846
2504.988970	2111.492308
2506.467477	2118.964336
2507.945716	2118.854545
2509.423686	2110.583916
2510.898151	2127.351748
2512.375586	2141.875524
2513.849517	2154.699301
2515.324798	2134.552448
2516.799812	2134.495105
2518.271325	2159.112587
2519.744189	2173.695105
2521.215170	2149.850350
2522.687501	2157.697902
2524.154718	2146.335664
2525.624902	2135.969231
2527.093205	2103.947552
2528.561243	2099.706993
2530.029016	2093.469930
2531.496524	2101.260140
2532.963767	2103.820280
2534.427518	2135.934266
2535.892619	2152.127972
2537.355843	2158.744755
2538.820416	2147.135664
2540.281501	2158.274825
2541.743935	2141.469231
2543.206106	2158.892308
2544.664791	2165.474126
2546.128047	2177.480420
2547.586208	2146.358741
2549.045717	2150.605594
2550.500132	2167.575524
2551.959118	2160.861538
2553.416232	2129.130070
2554.871474	2097.845455
2556.326456	2074.079720
2557.779569	2068.324476
2559.234029	2097.504196
2560.686621	2137.002098
2562.138953	2151.953846
2563.589418	2152.929371
2565.042838	2152.983217
2566.491176	2184.296503
2567.942469	2219.523776
2569.391897	2229.829371
2570.837852	2218.111888
2572.286762	2206.867133
2573.732202	2190.044755
2575.178989	2213.420979
2576.623913	2215.297203
2578.068580	2198.433566
2579.514594	2171.423077
2580.957142	2169.772028
2582.401037	2178.369231
2583.841466	2203.785315
2585.283244	2215.913287
2586.723162	2222.437762
2588.164427	2203.492308
2589.602230	2208.075524
2591.042983	2213.503497
2592.478674	2205.379720
2593.917314	2176.426573
2595.354096	2193.534266
2596.789023	2191.060839
2598.226897	2199.495105
2599.659714	2209.085315
2601.093878	2211.730070
2602.526188	2190.397203
2603.959844	2185.420280
2605.391647	2172.739860
2606.823196	2185.460140
2608.254493	2186.786713
2609.683937	2186.517483
2611.113129	2203.532168
2612.540471	2229.030070
2613.969158	2215.844755
2615.397594	2202.188811
2616.822582	2180.337063
2618.248917	2154.481119
2619.673403	2120.621678
2621.099235	2121.945455
2622.521623	2116.448951
2623.945357	2106.797902
2625.367244	2130.972028
2626.788882	2153.581818
2628.208674	2163.759441
2629.629812	2185.139860
2631.050700	2191.735664
2632.468149	2207.978322
2633.888539	2201.620979
2635.305491	2195.325175
2636.722194	2213.669930
2638.138649	2220.914685
2639.554856	2238.798601
2640.970815	2222.015385
2642.384933	2243.995105
2643.798803	2237.008392
2645.210834	2240.583217
2646.624210	2248.378322
2648.034156	2248.760140
2649.447038	2257.826573
2650.856491	2240.272028
2652.265698	2235.941259
2653.673069	2269.267133
2655.083374	2269.608392
2656.491844	2282.834965
2657.898478	2262.931469
2659.304867	2268.730769
2660.709422	2245.041958
2662.115321	2223.099301
2663.519387	2218.543357
2664.923208	2201.138462
2666.326785	2199.873427
2667.728531	2205.961538
2669.131620	2204.323077
2670.531291	2221.641259
2671.932306	2235.779021
2673.329905	2236.865035
2674.730433	2255.948252
2676.127547	2271.386014
2677.526004	2273.288112
2678.922634	2273.905594
2680.319021	2277.183217
2681.715166	2270.081119
2683.109485	2275.235664
2684.505147	2276.507692
2685.897400	2273.279021
2687.290995	2275.986014
2688.682766	2304.338462
2690.075880	2301.174126
2691.467170	2318.360839
2692.856637	2304.030769
2694.245864	2299.777622
2695.634852	2267.156643
2697.025181	2241.927972
2698.410527	2220.752448
2699.798796	2203.379021
2701.185245	2206.141259
2702.571455	2216.169930
2703.957426	2218.155944
2705.339999	2245.004895
2706.723914	2247.640559
2708.107591	2247.048252
2709.491029	2236.737762
2710.871072	2232.563636
2712.252457	2220.044755
2713.632027	2240.064336
2715.012937	2236.514685
2716.392033	2219.663636
2717.769315	2230.599301
2719.147938	2236.163636
2720.524747	2257.885315
2721.901321	2274.025175
2723.277659	2284.292308
2724.652186	2279.224476
2726.028053	2277.951049
2727.400533	2277.174126
2728.775929	2285.882517
2730.146365	2317.706294
2731.518142	2302.950350
2732.889684	2258.674825
2734.259418	2272.648252
2735.630493	2285.630070
2736.999759	2281.298601
2738.368792	2282.391608
2739.736019	2281.341259
2741.103012	2263.310490
2742.469773	2224.098601
2743.836301	2225.063636
2745.201025	2228.241958
2746.565516	2238.758741
2747.929776	2240.637063
2749.293803	2236.969231
2750.657599	2270.713986
2752.018021	2276.378322
2753.381353	2281.907692
2754.739743	2318.193706
2756.101043	2331.011189
2757.458973	2322.905594
2758.819811	2294.926573
2760.178850	2309.060140
2761.534520	2300.282517
2762.893098	2284.778322
2764.248309	2293.625874
2765.603291	2286.111888
2766.956476	2259.546853
2768.312568	2251.487413
2769.665296	2255.502797
2771.017796	2276.746154
2772.370067	2279.883217
2773.723676	2297.592308
2775.073925	2304.213986
2776.422379	2317.313287
2777.773738	2315.774825
2779.121739	2323.344056
2780.471077	2334.827972
2781.818623	2331.169231
2783.165943	2283.215385
2784.513036	2270.099301
2785.858337	2255.365734
2787.203413	2252.690210
2788.548263	2245.089510
2789.892887	2266.541259
2791.234159	2250.221678
2792.576769	2256.986014
2793.919153	2259.421678
2795.261312	2266.685315
2796.600122	2273.705594
2797.941832	2277.372028
2799.280193	2260.056643
2800.619892	2272.667832
2801.957806	2264.469930
2803.293934	2290.413986
2804.629840	2299.800699
2805.967083	2335.267832
2807.302542	2354.217483
2808.637778	2378.509091
2809.971231	2391.586014
2811.306021	2392.816783
2812.637471	2399.569231
2813.971816	2394.836364
2815.301263	2378.309790
2816.632046	2375.214685
2817.962609	2334.510490
2819.291392	2349.546154
2820.621511	2312.269930
2821.949852	2324.587413
2823.277972	2318.795105
2824.604314	2305.195105
2825.931993	2315.677622
2827.256338	2328.120979
2828.582020	2347.459441
2829.905926	2352.367832
2831.229612	2352.566434
2832.554635	2352.672028
2833.876327	2336.479720
2835.197801	2329.902797
2836.519056	2292.841259
2837.840092	2282.529371
2839.159355	2257.214685
2840.479954	2271.210490
2841.798782	2282.418182
2843.117391	2307.015385
2844.434229	2314.294406
2845.750850	2314.376923
2847.067254	2297.339860
2848.381888	2285.604196
2849.697858	2300.430070
2851.010507	2286.370629
2852.324491	2271.433566
2853.638259	2269.409091
2854.951810	2291.645455
2856.263595	2328.794406
2857.573613	2331.541259
2858.884966	2344.870629
2860.193004	2338.060839
2861.502376	2357.026573
2862.811534	2357.594406
2864.120476	2377.322378
2865.427654	2427.095105
2866.733070	2410.112587
2868.039819	2414.833566
2869.344807	2429.707692
2870.649580	2451.709790
2871.952593	2446.157343
2873.258486	2437.503497
2874.559525	2428.396503
2875.861898	2393.942657
2877.162511	2404.053846
2878.464458	2386.840559
2879.766191	2406.330070
2881.064621	2414.441958
2882.364384	2389.718881
2883.662390	2392.512587
2884.960184	2398.752448
2886.256222	2395.120979
2887.553593	2392.860140
2888.849208	2381.330769
2890.144612	2373.653147
2891.439805	2351.711189
2892.731701	2347.088112
2894.026473	2341.043357
2895.317948	2363.220280
2896.610756	2343.258042
2897.903354	2347.062937
2899.192658	2360.822378
2900.483294	2371.230070
2901.772179	2369.613986
2903.062396	2374.075524
2904.349322	2386.639860
2905.637580	2411.277622
2906.924089	2424.280420
2908.210389	2430.988811
2909.496482	2437.174126
2910.780826	2432.551049
2912.068041	2409.849650
2913.350430	2425.745455
2914.634151	2443.269231
2915.916126	2437.774126
2917.197893	2413.576923
2918.477915	2439.704196
2919.760808	2464.508392
2921.041955	2491.544755
2922.319820	2512.018182
2923.600554	2505.239161
2924.878007	2500.951748
2926.155254	2508.353846
2927.430759	2495.859441
2928.709132	2501.970629
2929.982691	2490.770629
2931.259117	2477.697902
2932.533802	2455.709091
2933.806746	2487.168531
2935.081022	2489.148951
2936.353558	2512.804895
2937.625889	2509.825175
2938.894948	2508.115385
2940.166872	2514.683217
2941.437058	2519.006294
2942.707040	2506.814685
2943.976819	2503.945455
2945.244862	2489.483217
2946.511168	2494.002797
2947.777273	2468.958042
2949.044707	2468.200000
2950.310406	2439.771329
2951.575904	2417.472028
2952.841199	2393.567832
2954.103229	2390.541259
2955.366589	2377.905594
2956.629748	2389.753147
2957.891175	2399.373427
2959.153931	2390.515385
2960.414955	2403.977622
2961.674249	2428.511189
2962.933343	2416.491608
2964.192236	2407.856643
2965.450929	2401.783916
2966.709422	2415.690909
2967.966186	2418.271329
2969.222750	2426.716783
2970.477586	2422.763636
2971.733752	2450.919580
2972.986663	2447.313287
2974.240902	2431.030070
2975.494943	2455.247552
2976.747258	2443.308392
2977.999375	2435.034266
2979.249767	2422.252448
2980.503014	2456.446154
2981.751484	2472.136364
2983.002809	2465.216783
2984.250884	2480.562937
2985.498762	2471.306294
2986.746444	2484.521678
2987.993928	2486.595105
2989.239691	2479.809091
2990.485258	2495.573427
2991.732152	2502.158741
2992.975802	2504.825175
2994.220780	2505.686014
2995.462514	2521.823077
2996.707100	2514.152448
2997.949967	2504.951049
2999.189593	2496.779720
3000.432069	2467.723776
3001.671305	2482.669231
3002.911869	2490.472028
3004.150716	2476.421678
3005.389369	2487.784615
3006.626306	2489.237063
3007.864571	2497.873427
3009.101120	2507.549650
3010.337476	2519.223077
3011.573638	2526.695804
3012.808086	2547.620280
3014.042342	2553.397203
3015.276404	2561.590210
3016.508753	2575.529371
3017.739392	2555.502098
3018.972876	2534.429371
3020.204648	2533.038462
3021.434710	2537.609091
3022.664579	2560.118881
3023.892739	2545.787413
3025.122226	2556.523776
3026.350003	2573.496503
3027.577589	2585.553147
3028.806501	2575.725175
3030.030671	2564.137063
3031.257685	2541.909091
3032.481474	2524.613287
3033.706590	2522.717483
3034.929999	2529.335664
3036.153218	2521.065734
3037.374732	2531.016783
3038.599087	2530.841958
3039.818707	2546.567133
3041.039653	2556.672028
3042.260410	2554.557343
3043.479463	2555.500699
3044.699841	2535.815385
3045.917003	2512.479720
3047.135491	2516.188811
3048.352276	2506.444056
3049.568874	2494.651748
3050.785283	2475.451049
3051.998479	2481.123077
3053.214514	2472.609790
3054.427336	2450.161538
3055.642994	2454.542657
3056.853931	2454.381818
3058.066192	2449.039860
3059.278266	2432.910490
3060.490154	2432.890909
3061.700345	2445.616783
3062.910349	2440.032867
3064.120167	2448.660140
3065.328289	2454.907692
3066.536226	2483.484615
3067.742467	2493.961538
3068.950033	2495.588112
3070.155904	2508.458042
3071.361590	2490.933566
3072.567092	2471.607692
3073.770900	2450.942657
3074.976032	2445.315385
3076.179471	2422.156643
3077.381219	2402.920979
3078.582782	2393.667832
3079.784162	2383.393007
3080.985358	2395.646154
3082.184864	2387.138462
3083.384187	2365.643357
3084.584833	2359.986014
3085.783789	2344.676923
3086.979551	2326.247552
3088.178142	2324.397902
3089.373539	2344.997902
3090.570259	2339.103497
3091.763787	2362.927273
3092.960143	2391.892308
3094.154812	2408.316783
3095.346291	2436.402098
3096.542102	2440.275524
3097.733218	2444.398601
3098.925658	2467.637762
3100.114910	2470.333566
3101.306987	2455.029371
3102.497381	2468.192308
3103.684589	2482.796503
3104.873119	2463.956643
3106.062972	2472.043357
3107.249641	2467.038462
3108.436129	2474.860839
3109.622439	2467.103497
3110.810070	2468.724476
3111.994519	2458.854545
3113.177289	2452.067133
3114.362881	2450.838462
3115.546794	2437.802098
3116.729028	2451.570629
3117.911083	2451.404895
3119.092960	2433.267832
3120.274659	2441.100000
3121.454681	2442.379720
3122.633026	2469.626573
3123.814191	2476.302797
3124.992181	2493.322378
3126.169994	2476.030070
3127.347630	2457.137063
3128.523592	2451.888811
3129.699376	2417.413986
3130.876482	2422.030769
3132.051913	2417.059441
3133.225671	2408.465734
3134.397756	2397.519580
3135.571163	2390.890909
3136.744393	2381.925175
3137.915952	2381.572727
3139.088831	2384.327273
3140.258543	2380.188112
3141.429576	2392.083217
3142.598939	2400.219580
3143.766631	2406.165035
3144.937139	2455.172028
3146.102989	2482.329371
3147.273147	2506.090909
3148.438649	2534.726573
3149.603976	2565.313287
3150.769130	2591.829371
3151.934111	2609.953147
3153.100411	2613.181119
3154.262059	2610.696503
3155.425026	2583.948951
3156.587821	2547.064336
3157.750443	2527.043357
3158.911399	2503.537063
3160.072184	2482.807692
3161.232796	2477.720979
3162.391744	2482.946154
3163.550521	2509.212587
3164.709125	2540.058741
3165.867558	2537.692308
3167.025820	2550.597203
3168.182419	2554.479720
3169.337357	2532.042657
3170.493614	2543.783916
3171.648210	2544.065035
3172.802636	2555.862937
3173.955402	2564.185315
3175.107997	2562.564336
3176.260423	2574.763636
3177.412679	2591.100699
3178.564764	2590.567133
3179.713703	2583.620979
3180.865450	2594.209790
3182.015538	2598.680420
3183.163970	2598.300699
3184.312232	2609.458042
3185.460326	2611.048252
3186.608251	2634.255245
3187.754520	2644.416084
3188.900621	2642.837063
3190.045068	2656.383916
3191.189347	2656.437063
3192.333458	2646.444755
3193.478886	2637.843357
3194.621176	2637.530769
3195.763299	2618.477622
3196.905254	2607.167133
3198.047042	2593.900000
3199.188663	2589.300699
3200.327149	2584.537063
3201.466952	2582.534266
3202.608072	2592.060839
3203.746059	2586.608392
3204.882396	2593.278322
3206.018567	2587.692308
3207.156055	2587.995804
3208.291895	2589.678322
3209.429052	2585.316783
3210.561596	2606.380420
3211.698422	2619.452448
3212.830636	2625.948252
3213.964167	2622.492308
3215.097534	2620.874126
3216.227773	2618.386014
3217.360810	2609.203497
3218.490721	2620.790909
3219.621948	2602.843357
3220.750051	2597.316783
3221.880950	2584.969930
3223.010205	2602.292308
3224.137817	2607.631469
3225.262306	2617.493007
3226.391071	2626.175524
3227.516714	2636.838462
3228.642195	2647.311888
3229.766033	2672.018182
3230.892667	2694.676224
3232.014703	2692.451748
3233.138055	2677.138462
3234.261245	2689.978322
3235.384272	2683.433566
3236.505661	2678.982517
3237.626887	2665.676224
3238.746476	2662.836364
3239.865903	2669.402098
3240.983692	2664.977622
3242.104273	2695.066434
3243.221741	2711.855245
3244.339048	2703.606993
3245.456195	2702.061538
3246.571705	2721.636364
3247.688531	2731.878322
3248.802247	2727.324476
3249.918752	2720.809790
3251.033623	2726.873427
3252.145384	2720.702098
3253.256987	2714.497203
3254.369905	2697.656643
3255.482663	2703.605594
3256.592315	2697.735664
3257.703282	2700.780420
3258.814090	2723.264336
3259.923266	2751.857343
3261.030811	2772.290210
3262.139671	2811.959441
3263.248373	2854.011189
3264.353972	2881.279720
3265.460885	2890.698601
3266.566169	2886.228671
3267.672767	2864.537063
3268.776265	2853.106294
3269.881077	2847.025874
3270.985732	2834.388112
3272.087289	2826.086713
3273.188689	2813.096503
3274.291403	2793.216783
3275.393961	2790.148951
3276.493422	2777.643357
3277.595667	2752.424476
3278.694816	2759.366434
3279.792341	2768.116084
3280.889710	2769.004895
3281.989861	2772.248252
3283.086920	2763.402797
3284.183823	2758.974825
3285.280571	2730.880420
3286.372760	2714.420979
3287.469199	2690.138462
3288.564015	2666.150350
3289.658677	2635.281818
3290.751717	2633.720979
3291.844602	2649.257343
3292.935867	2661.695804
3294.028445	2665.959441
3295.119403	2676.809091
3296.208741	2682.285315
3297.297926	2716.513986
3298.388424	2719.136364
3299.475837	2751.014685
3300.563097	2768.416783
3301.651670	2787.161538
3302.740090	2796.769930
3303.823964	2801.910490
3304.912079	2805.602797
3305.997112	2808.016084
3307.080530	2793.758042
3308.165260	2799.667832
3309.248374	2809.832168
3310.332801	2811.938462
3311.414149	2787.032168
3312.496809	2792.268531
3313.577855	2806.603497
3314.658750	2830.739161
3315.738031	2831.279021
3316.817162	2817.233566
3317.897605	2825.607692
3318.974973	2809.385315
3320.053653	2805.753147
3321.130721	2832.855245
3322.207640	2841.629371
3323.282947	2846.351748
3324.358105	2848.070629
3325.434574	2881.116084
3326.507973	2928.793007
3327.581222	2956.518881
3328.655783	2975.197902
3329.728735	2982.341259
3330.800078	2981.253147
3331.872732	2960.481818
3332.942320	2968.297203
3334.013218	2968.510490
3335.082509	2956.571329
3336.153111	2959.499301
3337.222106	2944.583916
3338.289495	2963.887413
3339.355279	2987.306993
3340.425289	3007.543357
3341.492236	3025.892308
3342.556121	3014.406993
3343.622773	3005.642657
3344.687822	2987.718881
3345.751267	2973.013287
3346.814566	2932.686713
3347.877718	2912.317483
3348.940724	2877.297902
3350.003584	2863.132168
3351.064842	2862.576923
3352.123043	2867.976923
3353.185464	2873.316084
3354.244830	2862.934266
3355.304050	2871.116084
3356.364579	2883.329371
3357.420600	2889.841958
3358.479384	2895.138462
3359.533661	2894.402098
3360.590702	2915.897203
3361.646144	2924.874126
3362.702896	2948.186713
3363.758049	2966.069930
3364.811605	2975.407692
3365.863565	2966.095804
3366.918286	2946.193007
3367.969958	2946.026573
3369.021487	2921.609091
3370.074324	2912.557343
3371.124114	2900.682517
3372.175213	2892.900000
3373.223266	2897.911189
3374.274078	2894.715385
3375.321846	2898.494406
3376.369470	2904.455245
3377.416953	2901.964336
3378.462843	2886.252448
3379.510041	2865.838462
3380.554197	2869.331469
3381.601111	2850.394406
3382.646433	2847.174825
3383.688714	2842.730769
3384.730854	2844.282517
3385.774303	2859.668531
3386.817610	2850.234266
3387.859327	2864.663636
3388.900904	2873.346853
3389.942339	2874.987413
3390.982186	2883.298601
3392.020444	2886.864336
3393.060010	2892.392308
3394.099436	2896.061538
3395.137274	2905.903497
3396.173525	2906.342657
3397.209637	2905.113986
3398.247056	2931.574825
3399.281442	2923.386014
3400.317135	2937.384615
3401.352689	2945.117483
3402.385212	2947.096503
3403.420487	2962.522378
3404.452733	2958.039860
3405.484840	2963.241259
3406.515363	2972.069231
3407.547193	2963.997203
3408.578885	2942.644755
3409.607549	2927.980420
3410.636076	2923.670629
3411.665909	2894.759441
3412.695605	2887.644056
3413.722275	2898.362238
3414.750251	2906.606993
3415.775204	2909.066434
3416.802906	2934.365734
3417.827585	2947.963636
3418.853570	2961.369930
3419.877975	2978.253846
3420.902244	2970.728671
3421.924934	2977.475524
3422.947488	2976.853846
3423.971348	2975.854545
3424.992188	2980.664336
3426.012892	2986.258841
3427.034903	2991.941908
3428.053895	2997.337662
3429.072751	3002.070230
3430.092914	3005.763736
3431.110060	3008.042308
