-118.448435	45.498352
-115.778835	40.958242
-113.112170	37.526174
-110.446257	35.062637
-107.783276	33.428122
-105.118866	32.483117
-102.457386	32.088112
-99.794476	32.941958
-97.136674	30.306993
-94.477441	32.086713
-91.818958	34.024476
-89.163398	37.020979
-86.506410	35.660839
-83.854519	35.953846
-81.201199	37.905594
-78.550799	37.640559
-75.898969	40.232867
-73.252230	39.009091
-70.604061	35.820979
-67.956636	35.984615
-65.312124	34.790210
-62.666184	37.232168
-60.025325	41.320979
-57.383037	43.788811
-54.743657	41.623776
-52.102849	46.119580
-49.462781	48.115385
-46.827785	51.886014
-44.191360	54.304196
-41.557839	55.939161
-38.922889	62.770629
-36.293004	68.819580
-33.659527	72.613287
-31.031112	80.473427
-28.403430	81.509091
-25.774321	63.190909
-23.150268	-67.897902
-20.522626	-530.031469
-17.900037	-1497.916084
-15.278180	-3229.248951
-12.657053	782.042657
-10.036656	8415.175524
-7.419147	15041.972028
-4.800210	19763.601399
-2.184159	22546.348252
0.431164	23386.772028
3.045760	22282.188112
5.657473	19256.331469
8.270615	14383.781818
10.878723	7998.239860
13.490413	1150.063636
16.097072	-3922.289510
18.705159	-2529.976224
21.312522	-297.627273
23.914860	95.329371
26.520776	100.505594
29.121670	94.838462
31.723992	87.720280
34.321297	81.034965
36.922177	70.713986
39.518043	66.029371
42.115336	64.020979
44.711910	59.232867
47.303475	59.723776
49.896468	58.997902
52.486600	56.572727
55.078160	52.871329
57.666860	52.107692
60.256987	49.815385
62.842116	49.206993
65.428671	50.725175
68.014513	50.514685
70.597501	53.321678
73.181915	54.703497
75.759201	55.072727
78.340053	58.776224
80.918056	56.823776
83.495349	54.277622
86.074068	51.764336
88.647806	46.683217
91.222970	45.500699
93.795291	45.246154
96.366904	45.962937
98.935677	46.914685
101.505877	48.125175
104.073239	53.372727
106.642026	57.420979
109.207977	62.566434
111.771093	64.268531
114.337765	71.017483
116.895216	81.485315
119.458352	94.952448
122.016529	121.367832
124.578259	176.854545
127.135034	263.825874
129.693234	403.169930
132.246482	584.406294
134.799031	807.910490
137.355131	1055.762937
139.906284	1317.102797
142.456738	1572.429371
145.006496	1802.176923
147.553434	1996.288112
150.099676	2137.217483
152.647344	2222.711189
155.194317	2275.772028
157.736353	2293.169231
160.277696	2296.316084
162.818346	2285.602098
165.360422	2272.027273
167.899687	2263.825175
170.436142	2253.849650
172.971907	2252.210490
175.509097	2253.419580
178.045595	2263.511888
180.579288	2279.850350
183.110178	2288.380420
185.640379	2305.451049
188.172005	2315.767832
190.700830	2326.744755
193.226856	2344.190909
195.752197	2355.139860
198.278962	2372.351748
200.802930	2379.584615
203.326214	2383.055944
205.848813	2386.638462
208.368619	2390.084615
210.887742	2399.325874
213.406182	2402.744056
215.926046	2410.466434
218.438909	2407.095105
220.955303	2406.961538
223.471015	2404.069231
225.981838	2404.881119
228.494085	2413.276224
231.003549	2418.106294
233.512335	2415.972028
236.020443	2419.684615
238.529974	2419.637063
241.034625	2430.410490
243.538601	2437.467832
246.044000	2452.199301
248.544524	2466.332168
251.048571	2559.215385
253.545648	2768.086014
256.046247	3095.645455
258.544075	3439.196503
261.041230	3723.454545
263.537712	3907.724476
266.029331	3984.274126
268.524470	3939.531469
271.016843	3793.388811
273.508545	3553.877622
275.997483	3265.891608
278.487846	2981.603497
280.975447	2803.641958
283.460288	2725.744755
285.948643	2718.234266
288.430059	2707.920979
290.914989	2678.706294
293.395074	2637.181818
295.878671	2590.509790
298.357425	2534.561538
300.837603	2488.878322
303.315028	2451.989510
305.791790	2442.631469
308.267889	2464.716783
310.741239	2515.711888
313.213927	2560.071329
315.685954	2605.196503
318.157320	2648.904895
320.625942	2688.039860
323.093904	2709.663636
325.563289	2715.868531
328.027850	2702.904895
330.495916	2673.297203
332.959162	2633.507692
335.421750	2610.151748
337.883682	2594.969930
340.344957	2592.553846
342.803498	2594.125874
345.263461	2597.354545
347.720691	2604.012587
350.177267	2611.061538
352.633189	2615.335664
355.086382	2612.422378
357.540996	2607.946154
359.990809	2601.735664
362.444119	2589.290909
364.892629	2584.789510
367.340489	2577.412587
369.789770	2571.200000
372.234258	2566.171329
374.680168	2560.255245
377.125429	2556.785315
379.567970	2554.344056
382.009864	2548.058741
384.451111	2533.795804
386.889642	2536.919580
389.329595	2532.905594
391.766834	2524.953147
394.201361	2524.335664
396.639376	2525.815385
399.072614	2536.513287
401.507274	2542.160140
403.937160	2549.809790
406.370532	2560.527273
408.799134	2563.225175
411.227095	2568.148252
413.656476	2575.475524
416.081092	2589.666434
418.507130	2592.450350
420.932527	2598.018881
423.357284	2605.467133
425.777283	2621.453846
428.198703	2633.676224
430.617426	2640.390210
433.037570	2645.767133
435.455019	2653.219580
437.873888	2647.281818
440.290064	2650.296503
442.701493	2650.227273
445.116398	2649.504895
447.528613	2648.953147
449.940194	2651.390210
452.351141	2657.813287
454.759402	2662.811189
457.167030	2666.468531
459.574027	2672.172727
461.980391	2672.543357
464.384073	2673.617483
466.787125	2665.085315
469.189547	2658.623776
471.591340	2655.346853
473.990454	2645.932867
476.390988	2648.665035
478.790893	2650.380420
481.186075	2656.234965
483.584724	2661.856643
485.978653	2673.441958
488.371956	2675.798601
490.764633	2676.901399
493.156685	2675.023776
495.550156	2668.544755
497.938914	2658.521678
500.325006	2647.858042
502.712518	2623.724476
505.099406	2615.713986
507.483631	2591.800000
509.869275	2573.114685
512.252256	2558.658042
514.632577	2545.293007
517.014317	2533.496503
519.393398	2527.716783
521.773898	2522.647552
524.151740	2524.221678
526.526927	2526.051049
528.901496	2524.334965
531.277484	2521.364336
533.650818	2519.552448
536.025570	2513.930769
538.395637	2509.260140
540.765088	2506.329371
543.135957	2497.465734
545.502146	2493.958741
547.869753	2492.465035
550.234714	2489.913287
552.599062	2494.241259
554.962798	2494.179021
557.327951	2487.673427
559.688431	2488.131469
562.050330	2487.486713
564.409589	2491.072028
566.766209	2487.950350
569.126274	2484.120979
571.479649	2477.241958
573.836468	2474.811189
576.190651	2470.009091
578.544227	2466.438462
580.897194	2465.621678
583.247530	2461.416084
585.599282	2452.486014
587.944358	2460.506993
590.294898	2458.930769
592.638765	2460.413986
594.988092	2461.683217
597.332772	2461.222378
599.674826	2458.822378
602.018298	2458.295804
604.359147	2458.295105
606.699394	2462.370629
609.037020	2461.825874
611.378081	2463.137063
613.714504	2467.316084
616.052345	2476.009091
618.387567	2471.744755
620.720174	2473.676923
623.054197	2470.978322
625.385607	2472.447552
627.716418	2471.286713
630.046631	2470.811189
632.376246	2474.911189
634.701239	2482.105594
637.031673	2483.935664
639.357485	2493.793706
641.680691	2506.402797
644.005312	2512.159441
646.327329	2509.163636
648.648751	2511.648951
650.967570	2513.159441
653.287805	2515.204895
655.607447	2509.753846
657.924488	2503.325175
660.240937	2502.039161
662.554788	2501.000699
664.870055	2497.727273
667.182725	2497.025874
669.496810	2497.420280
671.806295	2497.839860
674.117196	2498.465734
676.425504	2500.974825
678.733224	2500.264336
681.042359	2500.518881
683.346901	2502.284615
685.650856	2505.433566
687.954226	2507.493706
690.259010	2500.934965
692.559208	2496.814685
694.860820	2489.951748
697.161848	2484.486014
699.458293	2478.582517
701.756154	2475.983217
704.053431	2466.681119
706.350125	2462.713287
708.642243	2463.700699
710.937772	2472.079021
713.228728	2474.104895
715.521098	2487.038462
717.810892	2489.534266
720.100107	2495.629371
722.388741	2498.699301
724.674804	2498.495804
726.962280	2495.833566
729.247186	2493.586713
731.531513	2489.188112
733.813272	2486.783916
736.096445	2482.740559
738.379041	2488.170629
740.657082	2491.869231
742.936536	2509.607692
745.215415	2513.041958
747.493718	2519.198601
749.767472	2527.456643
752.042640	2527.357343
754.317234	2527.784615
756.589268	2521.902797
758.862716	2518.009091
761.133606	2517.785315
763.401940	2519.625874
765.671687	2526.774126
767.938880	2530.746853
770.205502	2536.058741
772.471555	2540.153846
774.735055	2545.810490
776.999969	2545.044056
779.264313	2536.995105
781.524128	2534.790909
783.785356	2530.870629
786.046015	2528.660839
788.304129	2529.058042
790.559698	2532.410490
792.818658	2529.818182
795.071119	2528.023077
797.328947	2530.700000
799.582255	2530.189510
801.833024	2531.072028
804.085205	2524.343357
806.334848	2518.450350
808.585902	2517.515385
810.832445	2514.729371
813.080400	2509.976923
815.325821	2508.099301
817.572653	2508.664336
819.818924	2507.975524
822.060691	2505.194406
824.305840	2504.532168
826.544517	2500.970629
828.786577	2495.548951
831.024138	2484.462238
833.263110	2474.544056
835.499556	2469.824476
837.737413	2462.457343
839.972745	2461.423077
842.205554	2466.888811
844.439774	2469.712587
846.671472	2473.875524
848.902615	2479.434965
851.133203	2486.370629
853.363236	2492.462238
855.592716	2493.645455
857.817714	2489.884615
860.046087	2488.827972
862.269981	2485.728671
864.495285	2479.637063
866.716114	2473.188811
868.940315	2479.006993
871.160043	2481.301399
873.381182	2484.256643
875.601770	2491.275524
877.819848	2499.494406
880.039337	2505.167133
882.254359	2515.625175
884.468833	2519.091608
886.682760	2529.800699
888.896139	2524.660140
891.108971	2521.598601
893.321257	2513.072727
895.531040	2519.192308
897.740278	2512.618182
899.948971	2507.925175
902.155165	2503.937063
904.362768	2502.181119
906.567874	2500.972028
908.772436	2503.913986
910.974502	2505.272727
913.177978	2512.587413
915.378960	2509.716783
917.579401	2513.075524
919.781249	2511.098601
921.976707	2512.175524
924.175524	2511.779720
926.369902	2514.134266
928.567638	2519.939161
930.760938	2523.260140
932.955647	2533.311189
935.147870	2533.581818
937.339555	2536.481818
939.530702	2536.031469
941.719366	2536.240559
943.907493	2535.943357
946.093140	2532.901399
948.282139	2532.916783
950.466715	2533.896503
952.650756	2535.722378
954.838147	2548.181818
957.017234	2562.648252
959.199672	2577.917483
961.381576	2583.405594
963.561006	2595.023077
965.737963	2602.751049
967.916327	2611.630769
970.096099	2613.025175
972.269522	2616.667133
974.446291	2618.976923
976.618653	2617.697203
978.792423	2621.239860
980.961789	2621.523077
983.134500	2626.126573
985.304744	2622.860140
987.474460	2629.232168
989.643647	2639.625874
991.808437	2643.186014
993.976568	2645.249650
996.140305	2647.772727
998.305448	2655.370629
1000.468133	2660.085315
1002.630291	2666.274126
1004.789993	2670.561538
1006.949171	2662.753846
1009.109755	2667.488112
1011.267884	2661.992308
1013.425489	2665.324476
1015.582571	2664.185315
1017.739130	2659.665035
1019.891309	2659.842657
1022.044894	2659.105594
1024.197958	2664.738462
1026.348574	2671.434266
1028.500595	2684.082517
1030.648243	2690.600000
1032.799223	2696.036364
1034.945832	2701.139860
1037.091923	2698.960140
1039.237494	2697.420979
1041.384471	2694.395804
1043.525159	2691.037762
1045.669177	2688.039860
1047.810754	2681.723776
1049.951815	2686.104895
1052.094280	2688.950350
1054.230466	2697.368531
1056.369978	2703.829371
1058.505134	2711.151748
1060.643615	2714.437762
1062.777742	2714.062937
1064.911356	2712.172028
1067.046375	2711.913287
1069.177044	2708.623776
1071.309118	2698.595804
1073.438763	2694.202797
1075.567896	2687.588811
1077.696517	2687.069930
1079.824627	2687.076923
1081.950311	2693.720280
1084.075485	2697.679720
1086.202063	2695.289510
1088.324304	2692.603497
1090.447948	2692.218881
1092.567259	2690.977622
1094.691798	2683.968531
1096.810092	2674.948951
1098.929791	2670.860140
1101.047071	2661.267832
1103.163845	2660.356643
1105.280112	2656.913986
1107.393964	2656.132168
1109.509219	2649.782517
1111.620152	2640.232867
1113.734396	2638.435664
1115.844320	2637.566434
1117.955648	2640.595105
1120.066471	2636.483916
1122.172979	2634.778322
1124.282795	2636.153846
1126.388297	2636.634266
1128.495202	2639.275524
1130.595892	2637.216084
1132.701794	2628.458741
1134.803387	2622.990210
1136.906383	2618.116783
1139.008878	2613.694406
1141.105166	2618.822378
1143.206662	2619.919580
1145.303855	2619.735664
1147.400549	2619.722378
1149.496745	2620.346154
1151.592444	2617.534266
1153.687645	2617.444755
1155.780449	2613.237762
1157.874655	2602.297902
1159.962670	2596.458042
1162.055883	2591.374126
1164.142908	2589.203497
1166.233232	2595.813287
1168.319269	2596.089510
1170.408603	2597.308392
1172.491756	2601.461538
1174.576311	2601.098601
1176.662268	2602.779021
1178.743943	2609.018881
1180.827020	2607.532168
1182.907711	2607.085315
1184.987910	2602.569231
1187.067618	2598.671329
1189.146835	2602.428671
1191.223670	2603.874825
1193.298124	2599.858741
1195.375870	2600.973427
1197.449345	2602.516783
1199.524221	2600.221678
1201.594830	2608.015385
1203.666841	2608.241958
1205.736475	2603.654545
1207.807510	2603.548951
1209.878057	2595.110490
1211.944343	2588.513287
1214.012030	2587.542657
1216.077345	2585.648951
1218.144060	2581.886713
1220.206519	2582.221678
1222.272263	2581.393007
1224.333754	2586.658042
1226.396644	2591.785315
1228.457167	2589.274126
1230.517206	2591.088112
1232.576763	2592.971329
1234.633954	2595.041958
1236.690664	2597.712587
1238.745011	2599.181119
1240.802638	2604.072028
1242.857903	2603.526573
1244.908927	2602.734965
1246.961351	2598.465035
1249.013295	2598.656643
1251.062881	2597.742657
1253.111988	2599.118182
1255.160617	2591.232867
1257.208767	2584.825175
1259.256439	2588.005594
1261.299880	2587.509091
1263.346596	2576.300000
1265.390959	2574.886014
1267.434846	2573.618881
1269.476382	2571.147552
1271.515567	2574.386713
1273.558026	2575.099301
1275.596262	2580.212587
1277.635897	2578.257343
1279.675057	2572.920979
1281.709998	2575.155944
1283.746339	2583.483217
1285.780334	2582.585315
1287.815728	2578.607692
1289.846908	2590.243357
1291.879487	2596.590909
1293.911593	2605.737063
1295.941359	2606.427972
1297.972523	2600.516084
1299.999479	2599.355944
1302.027833	2592.286713
1304.051983	2588.862937
1306.079397	2581.618881
1308.102609	2577.804196
1310.127219	2576.056643
1312.149495	2577.653147
1314.173168	2578.569231
1316.194508	2582.575524
1318.215380	2587.568531
1320.235786	2579.226573
1322.251997	2580.365734
1324.269606	2577.600000
1326.284888	2577.003497
1328.303427	2564.517483
1330.317778	2559.527273
1332.329803	2564.667832
1334.345085	2564.974126
1336.356182	2566.062238
1338.368676	2562.154545
1340.376987	2564.052448
1342.388554	2564.319580
1344.394081	2559.973427
1346.402864	2557.050350
1348.407469	2557.183916
1350.415328	2548.425175
1352.422725	2538.606294
1354.424091	2538.758741
1356.426854	2540.183217
1358.429156	2541.882517
1360.430999	2542.701399
1362.432382	2540.944755
1364.431452	2537.891608
1366.430063	2537.987413
1368.428216	2535.423776
1370.425911	2536.813287
1372.419442	2544.875524
1374.414370	2539.388811
1376.408841	2549.241259
1378.402855	2551.862238
1380.394561	2555.432168
1382.385813	2563.067133
1384.374759	2560.410490
1386.365100	2561.532867
1388.354986	2555.791608
1390.342569	2547.151748
1392.329697	2539.186713
1394.314525	2537.822378
1396.300746	2539.590210
1398.284668	2544.191608
1400.268137	2553.169930
1402.251154	2557.680420
1404.231872	2561.069231
1406.213986	2562.785315
1408.193802	2564.974825
1410.173168	2571.582517
1412.148394	2565.358042
1414.126860	2567.622378
1416.103031	2564.256643
1418.078754	2566.636364
1420.054027	2564.465035
1422.027009	2568.943357
1423.999543	2569.175524
1425.971630	2569.459441
1427.943268	2567.677622
1429.910778	2571.318881
1431.883363	2578.330769
1433.848141	2584.128671
1435.817991	2586.348252
1437.783718	2592.369231
1439.750837	2590.760839
1441.715673	2588.700000
1443.676390	2578.433566
1445.642174	2575.097203
1447.602003	2571.174825
1449.563225	2566.874126
1451.525840	2568.676923
1453.484340	2578.227972
1455.442398	2578.697902
1457.400013	2586.162238
1459.357187	2593.860839
1461.312085	2601.678322
1463.268375	2603.390210
1465.222391	2597.724476
1467.175967	2590.102098
1469.127270	2581.269930
1471.079965	2576.614685
1473.030389	2571.193706
1474.980373	2563.527972
1476.929919	2567.481818
1478.877196	2564.369930
1480.822206	2576.214685
1482.768607	2582.358741
1484.714572	2590.894406
1486.660098	2588.102797
1488.603360	2588.525175
1490.546185	2584.819580
1492.486747	2577.096503
1494.428700	2565.960839
1496.368392	2555.155245
1498.307648	2549.817483
1500.246469	2553.330070
1502.183031	2550.832168
1504.120984	2555.265734
1506.056679	2551.267832
1507.991939	2553.425874
1509.924944	2553.741958
1511.857516	2554.727273
1513.789656	2547.029371
1515.721364	2543.126573
1517.650818	2541.159441
1519.581663	2544.088112
1521.512077	2553.418881
1523.438417	2558.423776
1525.366149	2566.006294
1527.291630	2570.826573
1529.216682	2571.113986
1531.141305	2576.121678
1533.065499	2571.448951
1534.987446	2572.954545
1536.910782	2565.709091
1538.831873	2566.780420
1540.750719	2572.205594
1542.670955	2567.485315
1544.588947	2569.182517
1546.506513	2568.196503
1548.421837	2575.169231
1550.338551	2572.879021
1552.251210	2567.815385
1554.167073	2566.761538
1556.080696	2556.882517
1557.992082	2558.419580
1559.904856	2555.428671
1561.813581	2560.963636
1563.723696	2568.665035
1565.633387	2569.469930
1567.542654	2575.823776
1569.449688	2578.581119
1571.354489	2581.760839
1573.260679	2575.355944
1575.164637	2569.732168
1577.068175	2572.759441
1578.971291	2561.058042
1580.872179	2560.153846
1582.774454	2556.930070
1584.674502	2558.068531
1586.575937	2556.198601
1588.473339	2559.576923
1590.370322	2560.623077
1592.266887	2557.532867
1594.164840	2563.744056
1596.056958	2565.079021
1597.952269	2570.142657
1599.847163	2575.009790
1601.739835	2570.154545
1603.632091	2572.118881
1605.522126	2572.013986
1607.411747	2568.789510
1609.300951	2560.245455
1611.189741	2568.013986
1613.076314	2568.803497
1614.964273	2565.802098
1616.848216	2572.744755
1618.733547	2573.671329
1620.618463	2573.109790
1622.501166	2575.771329
1624.385256	2575.449650
1626.265335	2578.204895
1628.146800	2579.918182
1630.026055	2579.706993
1631.906696	2578.338462
1633.781533	2584.204196
1635.661352	2579.606993
1637.537165	2579.769231
1639.412568	2578.512587
1641.289358	2582.639161
1643.160350	2575.396503
1645.034524	2578.500699
1646.904700	2573.834266
1648.778056	2575.051748
1650.649209	2570.697902
1652.518160	2571.746853
1654.388497	2565.483217
1656.254840	2563.117483
1658.122569	2561.546853
1659.988100	2562.148951
1661.855015	2558.185315
1663.717942	2559.720280
1665.582254	2554.686713
1667.444370	2558.516084
1669.306082	2556.093007
1671.169178	2553.180420
1673.030080	2551.335664
1674.888788	2544.546154
1676.747093	2539.716084
1678.606783	2535.890909
1680.460706	2531.609790
1682.317801	2527.230769
1684.174494	2528.900699
1686.027211	2525.863636
1687.883098	2522.369231
1689.735012	2522.500000
1691.586525	2521.146154
1693.437637	2518.283217
1695.288349	2517.931469
1697.138660	2511.937063
1698.986787	2514.909790
1700.836297	2511.946853
1702.680059	2510.755245
1704.528770	2516.786014
1706.371736	2521.237762
1708.217867	2521.625874
1710.060037	2518.997203
1711.905371	2520.511888
1713.744965	2519.452448
1715.585943	2509.602797
1717.428304	2505.024476
1719.266709	2506.525874
1721.106497	2510.144056
1722.944110	2504.788811
1724.781327	2500.038462
1726.616371	2506.434266
1728.452798	2505.905594
1730.287053	2506.273427
1732.120913	2503.841259
1733.954380	2503.613287
1735.783900	2498.346853
1737.616579	2488.592308
1739.445314	2490.775524
1741.277207	2494.632168
1743.105157	2499.715385
1744.932715	2492.129371
1746.759881	2484.761538
1748.586656	2487.385315
1750.413040	2484.649650
1752.235487	2480.524476
1754.061088	2484.965734
1755.882755	2481.802797
1757.705804	2477.009790
1759.526692	2476.579720
1761.347190	2481.939161
1763.169070	2486.037063
1764.985250	2489.583217
1766.804582	2484.162937
1768.619987	2483.158042
1770.438542	2487.994406
1772.253172	2491.634266
1774.067416	2495.855944
1775.881272	2500.717483
1777.694742	2498.520280
1779.506059	2497.726573
1781.318757	2494.490909
1783.131068	2498.041259
1784.939462	2496.139860
1786.749237	2491.320280
1788.555096	2483.907692
1790.364101	2481.975524
1792.169193	2480.326573
1793.975666	2481.286014
1795.781755	2481.386713
1797.583934	2476.818881
1799.389256	2476.478322
1801.190670	2474.390210
1802.993464	2470.449650
1804.792352	2475.640559
1806.592621	2475.787413
1808.392508	2473.506294
1810.190254	2469.773427
1811.987618	2469.253846
1813.784603	2468.615385
1815.581207	2468.353147
1817.375672	2462.846853
1819.171516	2465.193007
1820.961706	2464.625175
1822.756792	2467.355245
1824.546225	2469.540559
1826.338795	2475.279021
1828.129230	2480.455245
1829.917531	2482.360839
1831.708967	2481.656643
1833.494757	2482.146853
1835.281927	2485.832168
1837.066965	2478.484615
1838.855137	2474.066434
1840.639423	2472.762238
1842.421580	2466.544056
1844.205115	2467.618881
1845.986522	2468.279720
1847.769308	2469.760839
1849.548214	2470.602797
1851.328498	2463.502098
1853.106656	2465.844755
1854.886193	2467.979021
1856.663605	2471.868531
1858.438893	2470.449650
1860.215560	2472.533566
1861.990103	2476.468531
1863.766025	2481.726573
1865.536326	2490.587413
1867.309755	2495.579720
1869.081064	2499.335664
1870.852003	2503.170629
1872.624318	2498.800000
1874.391020	2510.082517
1876.160848	2509.775524
1877.926812	2514.964336
1879.695900	2512.133566
1881.461126	2508.213287
1883.225983	2506.358741
1884.992218	2503.827972
1886.754594	2500.002098
1888.516603	2495.511189
1890.278244	2491.498601
1892.039519	2491.387413
1893.800426	2486.042657
1895.560967	2491.232168
1897.319398	2491.688112
1899.077464	2492.855245
1900.833421	2489.248252
1902.590756	2482.201399
1904.347724	2477.879720
1906.102587	2482.869231
1907.855344	2480.752448
1909.607738	2478.737063
1911.361507	2479.573427
1913.113173	2483.573427
1914.862737	2482.393007
1916.613677	2490.130769
1918.364253	2491.920280
1920.110990	2491.770629
1921.859104	2490.634266
1923.605118	2482.680420
1925.352508	2480.361538
1927.097799	2481.598601
1928.840993	2475.356643
1930.585563	2473.106993
1932.328036	2474.258042
1934.070149	2480.407692
1935.811902	2481.988811
1937.553296	2485.872727
1939.292596	2483.804895
1941.031536	2491.264336
1942.770119	2492.425874
1944.506609	2497.169231
1946.242742	2498.019580
1947.980249	2496.829371
1949.713934	2497.610490
1951.448994	2497.170629
1953.181966	2493.018182
1954.914581	2502.290210
1956.646839	2501.651748
1958.378741	2505.890909
1960.108557	2512.202098
1961.836289	2522.136364
1963.565394	2524.640559
1965.294145	2532.088811
1967.020812	2534.851748
1968.747125	2538.886713
1970.474811	2538.720280
1972.196961	2535.032867
1973.922212	2535.700000
1975.643657	2539.133566
1977.368201	2534.685315
1979.090666	2537.769930
1980.809327	2540.347552
1982.531087	2538.981818
1984.249045	2542.293706
1985.968376	2544.200000
1987.683908	2547.778322
1989.404261	2553.792308
1991.120814	2556.462937
1992.833571	2559.909790
1994.549425	2561.786014
1996.263205	2562.634266
1997.976636	2563.276224
1999.687996	2565.654545
2001.400729	2569.606294
2003.109670	2565.146853
2004.821705	2569.211189
2006.528230	2575.004196
2008.237848	2579.720280
2009.945398	2580.269231
2011.652601	2580.808392
2013.357738	2580.336364
2015.062528	2580.386014
2016.768690	2581.911888
2018.471070	2574.783916
2020.174822	2571.237762
2021.876510	2564.665734
2023.577854	2557.934965
2025.278852	2552.335664
2026.977790	2560.203497
2028.678098	2555.209091
2030.374632	2555.167832
2032.072537	2559.658741
2033.768383	2562.353147
2035.467315	2566.997902
2037.160761	2573.657343
2038.855579	2569.554545
2040.550053	2570.526573
2042.240759	2570.301399
2043.934549	2571.441259
2045.624572	2565.891608
2047.315966	2571.586713
2049.005307	2563.842657
2050.696018	2562.508392
2052.382966	2557.772028
2054.069575	2548.184615
2055.757554	2545.653846
2057.441773	2541.844755
2059.127362	2536.467832
2060.812612	2529.977622
2062.495814	2528.093007
2064.180385	2531.277622
2065.859494	2531.449650
2067.543388	2535.170629
2069.221822	2537.495105
2070.903332	2538.356643
2072.581092	2541.152448
2074.258514	2543.531469
2075.937306	2550.660839
2077.614056	2550.558042
2079.288764	2551.885315
2080.964841	2539.193007
2082.638878	2537.473427
2084.312579	2535.931469
2085.985945	2535.694406
2087.657273	2532.917483
2089.328266	2536.234965
2090.998925	2538.941958
2092.669249	2542.442657
2094.339240	2545.198601
2096.007195	2552.358042
2097.674817	2544.965734
2099.340404	2543.809790
2101.007361	2541.351049
2102.672283	2545.836364
2104.336874	2553.781119
2105.999433	2562.398601
2107.663360	2560.462238
2109.325257	2567.532168
2110.986822	2570.128671
2112.648056	2568.342657
2114.307262	2563.903497
2115.966137	2561.527972
2117.624683	2550.920979
2119.282899	2548.116084
2120.937391	2549.577622
2122.594948	2551.429371
2124.252176	2556.439860
2125.905682	2555.859441
2127.560556	2555.054545
2129.211712	2552.313287
2130.865929	2552.556643
2132.516430	2554.095105
2134.168297	2552.367832
2135.814756	2548.941958
2137.465970	2547.053147
2139.113470	2551.006993
2140.762337	2554.602098
2142.409186	2556.238462
2144.055708	2559.367133
2145.701905	2559.084615
2147.344394	2555.753846
2148.989941	2549.405594
2150.631781	2546.105594
2152.276678	2541.784615
2153.917870	2532.168531
2155.558738	2527.687413
2157.199282	2528.199301
2158.837814	2529.531469
2160.477712	2526.744755
2162.113910	2529.120280
2163.751475	2536.131469
2165.388716	2536.239161
2167.023948	2535.530769
2168.658859	2535.227273
2170.293448	2531.741259
2171.927715	2532.567832
2173.558289	2534.507692
2175.191915	2533.803497
2176.821849	2533.569231
2178.453148	2531.598601
2180.082442	2530.196503
2181.711417	2528.223077
2183.340073	2522.213287
2184.968409	2511.206993
2186.594742	2502.398601
2188.220757	2497.720979
2189.844771	2495.858042
2191.470149	2498.155944
2193.093528	2500.529371
2194.718270	2497.735664
2196.339332	2497.542657
2197.960077	2499.643357
2199.582187	2496.925874
2201.202299	2492.219580
2202.820414	2490.262238
2204.438214	2489.794406
2206.055699	2494.688112
2207.672868	2497.474126
2209.289722	2503.357343
2210.906261	2507.458741
2212.520806	2511.751049
2214.133359	2513.799301
2215.747276	2508.608392
2217.359202	2505.296503
2218.972491	2501.739161
2220.583790	2498.030769
2222.193099	2495.658042
2223.803772	2488.901399
2225.412456	2480.933566
2227.020828	2476.415385
2228.627212	2471.724476
2230.234960	2473.867133
2231.840721	2479.947552
2233.446171	2477.759441
2235.049636	2479.734266
2236.654464	2483.509790
2238.257309	2493.037063
2239.858170	2497.270629
2241.460393	2500.609790
2243.060635	2504.019580
2244.662239	2503.182517
2246.260191	2504.863636
2247.859505	2506.711888
2249.456839	2510.432867
2251.053864	2512.513287
2252.652252	2504.568531
2254.246991	2497.815385
2255.839753	2488.483217
2257.433878	2493.395105
2259.029364	2492.536364
2260.621206	2491.993706
2262.212741	2492.453147
2263.805637	2496.216084
2265.393224	2499.123077
2266.985508	2508.281818
2268.572484	2504.597902
2270.162489	2512.921678
2271.747189	2507.393706
2273.336583	2503.955944
2274.920674	2500.829371
2276.506127	2504.537762
2278.089610	2501.959441
2279.676120	2498.349650
2281.258996	2496.439161
2282.841568	2494.626573
2284.423837	2487.062238
2286.002477	2481.346154
2287.584140	2467.444755
2289.162175	2465.645455
2290.743233	2456.737063
2292.320665	2456.131469
2293.896132	2450.655944
2295.474622	2448.159441
2297.049488	2449.593007
2298.624053	2447.257343
2300.198318	2446.702098
2301.772282	2443.709790
2303.345946	2442.087413
2304.919309	2442.344056
2306.489054	2432.456643
2308.058500	2432.432168
2309.630965	2428.965734
2311.198154	2430.054545
2312.768362	2437.478322
2314.334955	2433.572028
2315.902908	2435.706294
2317.468905	2440.139860
2319.034605	2447.629371
2320.600008	2454.736364
2322.163456	2466.093007
2323.728264	2474.311888
2325.289464	2475.718881
2326.853678	2477.535664
2328.412631	2467.744056
2329.974597	2465.437762
2331.534613	2464.041259
2333.094333	2448.437762
2334.652104	2447.076224
2336.209580	2447.548951
2337.766762	2448.591608
2339.321997	2451.732867
2340.876937	2455.383916
2342.431584	2457.515385
2343.985937	2456.579021
2345.539996	2449.473427
2347.093761	2440.245455
2348.645583	2434.922378
2350.195461	2431.810490
2351.748347	2427.881119
2353.295991	2426.000699
2354.846642	2423.259441
2356.393702	2423.958042
2357.942121	2426.379021
2359.490247	2425.190210
2361.034785	2426.055245
2362.580681	2424.560140
2364.124639	2427.479720
2365.669954	2428.510490
2367.211684	2427.089510
2368.754771	2430.398601
2370.295923	2431.097902
2371.836785	2423.115385
2373.377358	2419.684615
2374.917641	2417.859441
2376.457636	2413.498601
2377.994053	2409.604895
2379.533471	2406.191608
2381.069312	2399.890210
2382.606509	2407.034266
2384.140131	2404.017483
2385.676754	2406.955944
2387.211445	2411.515385
2388.744207	2412.977622
2390.276682	2413.827273
2391.807230	2416.533566
2393.340775	2416.226573
2394.869109	2415.515385
2396.398799	2416.593007
2397.928204	2417.138462
2399.457323	2415.386014
2400.986158	2418.579720
2402.509787	2408.465035
2404.038053	2409.138462
2405.561115	2407.429371
2407.088811	2408.390909
2408.609668	2411.605594
2410.135158	2413.485315
2411.657087	2411.961538
2413.180372	2412.543357
2414.701736	2408.455245
2416.221180	2402.367832
2417.741979	2399.265734
2419.260859	2391.825175
2420.779457	2389.000699
2422.296138	2392.561538
2423.814173	2392.926573
2425.331927	2397.265734
2426.846130	2397.383916
2428.360052	2403.327273
2429.873694	2400.180420
2431.388691	2395.911888
2432.900139	2388.356643
2434.412942	2378.790909
2435.923832	2375.881119
2437.434442	2370.613986
2438.943141	2373.948252
2440.454827	2373.676923
2441.962968	2374.155944
2443.470832	2371.973427
2444.978418	2371.445455
2446.482463	2373.874825
2447.989494	2373.005594
2449.494616	2371.880420
2450.999461	2369.395804
2452.502399	2357.837063
2454.005060	2353.381818
2455.507445	2344.255245
2457.007925	2343.132867
2458.509758	2332.603497
2460.009687	2329.585315
2461.509340	2318.669231
2463.008717	2315.602098
2464.506192	2316.505594
2466.001765	2319.841259
2467.500319	2319.120979
2468.995343	2316.607692
2470.491721	2315.159441
2471.984571	2316.650350
2473.478775	2315.367832
2474.972705	2317.325874
2476.463112	2313.468531
2477.956495	2314.868531
2479.447981	2312.139860
2480.937570	2314.035664
2482.426887	2322.861538
2483.914309	2322.758042
2485.404706	2323.280420
2486.891584	2318.005594
2488.379814	2317.683217
2489.864528	2315.404196
2491.348971	2315.628671
2492.834766	2308.491608
2494.318668	2311.529371
2495.803922	2315.157343
2497.284042	2321.946853
2498.767134	2325.038462
2500.248336	2330.779021
2501.729269	2332.066434
2503.208313	2330.872028
2504.687088	2323.552448
2506.165595	2319.518182
2507.643834	2315.893007
2509.121804	2316.885315
2510.596270	2313.631469
2512.073704	2323.707692
2513.547635	2327.791608
2515.022916	2325.400000
2516.497931	2327.733566
2517.969444	2330.251748
2519.442307	2331.623077
2520.913288	2329.030070
2522.385619	2319.479720
2523.852837	2317.603497
2525.323020	2316.732168
2526.791323	2322.265035
2528.259361	2323.141958
2529.727134	2325.581119
2531.194642	2325.964336
2532.661885	2326.203497
2534.125636	2330.767832
2535.590737	2328.871329
2537.053961	2329.045455
2538.518535	2328.153846
2539.979619	2322.330769
2541.442053	2329.420979
2542.904224	2335.063636
2544.362909	2338.597902
2545.826166	2341.873427
2547.284326	2345.581119
2548.743835	2345.281119
2550.198251	2348.876923
2551.657236	2343.629371
2553.114350	2338.225175
2554.569593	2332.701399
2556.024575	2325.275524
2557.477687	2319.599301
2558.932148	2321.284615
2560.384740	2325.048252
2561.837072	2318.806993
2563.287536	2318.113986
2564.740956	2319.481119
2566.189294	2322.467133
2567.640588	2336.555944
2569.090015	2333.536364
2570.535970	2336.651748
2571.984881	2332.544056
2573.430320	2333.761538
2574.877108	2335.374825
2576.322032	2337.102098
2577.766699	2334.002797
2579.212713	2329.353846
2580.655260	2322.903497
2582.099155	2321.041259
2583.539585	2323.089510
2584.981362	2327.009790
2586.421280	2320.033566
2587.862545	2322.211189
2589.300349	2313.773427
2590.741102	2314.239161
2592.176792	2313.257343
2593.615432	2309.674825
2595.052215	2305.962937
2596.487141	2306.672028
2597.925016	2298.245455
2599.357832	2299.924476
2600.791996	2300.471329
2602.224306	2300.867133
2603.657962	2296.745455
2605.089765	2295.130070
2606.521315	2285.486014
2607.952611	2280.239161
2609.382055	2281.279720
2610.811248	2280.813986
2612.238589	2283.502797
2613.667277	2282.484615
2615.095712	2283.611888
2616.520700	2287.213986
2617.947035	2288.563636
2619.371521	2289.236364
2620.797353	2283.788112
2622.219741	2281.924476
2623.643475	2276.518182
2625.065362	2275.509790
2626.487000	2275.495105
2627.906792	2279.115385
2629.327930	2282.211888
2630.748818	2279.846853
2632.166268	2284.246154
2633.586657	2292.111189
2635.003609	2301.017483
2636.420313	2306.013986
2637.836768	2308.137063
2639.252975	2308.260140
2640.668933	2300.939161
2642.083051	2295.192308
2643.496922	2287.095105
2644.908953	2281.624476
2646.322329	2273.570629
2647.732275	2264.757343
2649.145156	2263.562238
2650.554610	2266.500000
2651.963817	2270.549650
2653.371187	2275.153846
2654.781493	2280.078322
2656.189962	2280.071329
2657.596596	2280.634266
2659.002985	2280.041958
2660.407540	2280.244056
2661.813439	2280.813287
2663.217505	2283.974825
2664.621326	2283.386014
2666.024904	2284.487413
2667.426649	2286.338462
2668.829738	2292.030769
2670.229409	2298.962937
2671.630424	2301.195804
2673.028023	2302.427273
2674.428552	2301.744755
2675.825666	2297.239161
2677.224123	2299.755245
2678.620752	2300.614685
2680.017139	2297.481119
2681.413285	2294.132168
2682.807604	2293.079720
2684.203266	2287.314685
2685.595518	2282.247552
2686.989114	2283.458741
2688.380885	2273.634965
2689.773998	2274.055944
2691.165288	2271.009790
2692.554755	2266.279720
2693.943982	2260.639860
2695.332970	2258.918182
2696.723300	2257.638462
2698.108645	2261.713287
2699.496914	2260.986713
2700.883363	2253.111888
2702.269573	2248.438462
2703.655545	2251.722378
2705.038117	2252.294406
2706.422032	2257.443357
2707.805709	2257.050350
2709.189148	2256.286713
2710.569191	2257.567133
2711.950576	2264.851049
2713.330145	2264.525874
2714.711056	2268.551049
2716.090151	2264.871329
2717.467433	2263.804196
2718.846056	2259.693007
2720.222866	2260.688112
2721.599440	2255.651049
2722.975778	2253.293706
2724.350304	2255.095105
2725.726171	2255.513986
2727.098651	2259.586014
2728.474047	2262.204895
2729.844483	2265.174126
2731.216260	2272.574126
2732.587802	2272.793007
2733.957536	2276.758042
2735.328611	2271.793007
2736.697877	2263.891608
2738.066911	2256.086713
2739.434137	2255.017483
2740.801131	2251.963636
2742.167892	2249.888811
2743.534420	2251.245455
2744.899143	2246.954545
2746.263635	2245.934266
2747.627894	2246.600000
2748.991921	2244.537063
2750.355717	2247.177622
2751.716139	2242.479720
2753.079472	2236.934965
2754.437862	2237.157343
2755.799162	2234.425175
2757.157091	2230.241259
2758.517930	2229.569930
2759.876968	2218.146154
2761.232638	2205.491608
2762.591216	2205.444755
2763.946428	2206.824476
2765.301410	2212.883916
2766.654595	2215.705594
2768.010687	2217.358741
2769.363415	2219.063636
2770.715914	2226.416783
2772.068185	2230.148951
2773.421795	2230.560140
2774.772043	2234.568531
2776.120498	2227.892308
2777.471857	2226.255245
2778.819857	2227.702098
2780.169196	2226.020979
2781.516742	2222.680420
2782.864061	2215.465035
2784.211154	2211.651748
2785.556456	2202.791608
2786.901532	2204.620280
2788.246382	2202.281119
2789.591005	2195.686713
2790.932277	2194.373427
2792.274887	2190.990210
2793.617271	2184.261538
2794.959431	2186.341259
2796.298241	2193.035664
2797.639950	2201.474825
2798.978312	2206.336364
2800.318011	2210.883916
2801.655924	2217.697902
2802.992053	2225.641259
2804.327958	2226.508392
2805.665201	2222.822378
2807.000660	2222.486713
2808.335896	2218.377622
2809.669349	2219.910490
2811.004140	2221.623077
2812.335589	2222.245455
2813.669934	2220.646853
2814.999381	2215.911189
2816.330165	2216.396503
2817.660727	2207.409790
2818.989510	2201.048252
2820.319629	2194.007692
2821.647970	2184.891608
2822.976090	2176.765035
2824.302432	2168.849650
2825.630111	2165.708392
2826.954457	2154.934266
2828.280138	2153.446853
2829.604044	2149.609790
2830.927731	2152.540559
2832.252753	2151.318182
2833.574445	2148.734965
2834.895919	2155.206294
2836.217174	2153.305594
2837.538210	2145.979021
2838.857474	2138.981818
2840.178073	2133.669930
2841.496900	2123.933566
2842.815509	2120.790210
2844.132347	2118.608392
2845.448968	2116.232867
2846.765372	2118.483217
2848.080007	2121.207692
2849.395976	2129.211189
2850.708625	2130.806993
2852.022610	2128.516783
2853.336377	2125.574126
2854.649929	2121.065734
2855.961713	2121.581119
2857.271731	2117.834965
2858.583084	2121.227972
2859.891122	2124.797902
2861.200495	2132.772727
2862.509652	2140.968531
2863.818594	2148.459441
2865.125773	2158.911888
2866.431188	2165.848951
2867.737938	2170.593706
2869.042925	2168.342657
2870.347699	2167.936364
2871.650711	2170.425874
2872.956605	2169.359441
2874.257643	2163.867832
2875.560016	2160.274825
2876.860629	2154.404196
2878.162576	2148.491608
2879.464310	2143.009790
2880.762739	2138.758042
2882.062503	2133.379021
2883.360508	2130.387413
2884.658302	2122.052448
2885.954340	2125.522378
2887.251711	2122.151748
2888.547326	2123.565035
2889.842730	2117.332867
2891.137924	2112.809091
2892.429819	2108.115385
2893.724591	2105.663636
2895.016066	2103.530070
2896.308874	2096.121678
2897.601472	2092.234266
2898.890776	2093.555944
2900.181412	2098.939161
2901.470297	2108.165035
2902.760515	2111.877622
2904.047440	2120.730070
2905.335699	2125.055245
2906.622207	2129.328671
2907.908508	2134.002797
2909.194600	2137.882517
2910.478944	2128.118881
2911.766160	2123.770629
2913.048548	2119.732867
2914.332269	2116.929371
2915.614244	2122.195804
2916.896012	2122.968531
2918.176034	2124.167832
2919.458926	2127.109091
2920.740073	2128.304895
2922.017938	2132.211888
2923.298672	2135.639161
2924.576125	2137.515385
2925.853372	2127.123776
2927.128878	2127.783916
2928.407251	2119.854545
2929.680809	2113.456643
2930.957235	2113.526573
2932.231920	2111.848252
2933.504865	2115.497902
2934.779140	2114.849650
2936.051676	2107.765734
2937.324008	2108.361538
2938.593066	2110.168531
2939.864990	2105.925874
2941.135176	2104.237063
2942.405159	2099.901399
2943.674938	2097.431469
2944.942980	2092.390909
2946.209287	2094.230769
2947.475391	2093.339860
2948.742825	2092.732867
2950.008525	2082.073427
2951.274022	2073.339161
2952.539317	2070.028671
2953.801347	2061.748951
2955.064708	2056.153147
2956.327866	2059.942657
2957.589293	2054.752448
2958.852049	2055.334965
2960.113074	2054.154545
2961.372367	2059.437762
2962.631461	2062.579021
2963.890354	2065.883217
2965.149047	2063.839860
2966.407540	2070.428671
2967.664304	2071.846853
2968.920868	2073.501399
2970.175705	2077.134266
2971.431871	2074.697902
2972.684781	2071.906294
2973.939021	2068.482517
2975.193062	2069.660839
2976.445377	2067.037762
2977.697494	2071.362937
2978.947886	2074.569231
2980.201133	2075.090210
2981.449603	2080.755944
2982.700927	2083.172028
2983.949003	2085.516084
2985.196881	2082.290210
2986.444562	2078.895804
2987.692047	2080.220280
2988.937810	2080.659441
2990.183376	2081.505594
2991.430270	2080.572727
2992.673920	2085.477622
2993.918898	2088.837762
2995.160633	2091.998601
2996.405218	2090.645455
2997.648085	2092.118182
2998.887711	2091.890909
3000.130187	2092.867832
3001.369424	2093.249650
3002.609988	2091.873427
3003.848835	2093.232867
3005.087488	2095.548951
3006.324425	2103.374825
3007.562689	2106.740559
3008.799239	2110.609091
3010.035594	2105.890909
3011.271756	2097.917483
3012.506205	2099.612587
3013.740460	2102.402797
3014.974522	2099.951748
3016.206872	2096.665035
3017.437510	2087.651748
3018.670994	2089.919580
3019.902766	2093.741259
3021.132828	2101.097902
3022.362698	2099.923776
3023.590858	2099.371329
3024.820344	2096.565734
3026.048122	2099.315385
3027.275708	2106.648951
3028.504620	2104.501399
3029.728790	2100.204895
3030.955803	2096.866434
3032.179592	2091.468531
3033.404708	2087.362238
3034.628117	2078.039161
3035.851337	2073.694406
3037.072851	2070.292308
3038.297206	2072.057343
3039.516826	2070.793706
3040.737771	2074.774126
3041.958528	2081.838462
3043.177581	2080.123077
3044.397960	2084.693706
3045.615122	2084.915385
3046.833609	2080.672028
3048.050394	2069.958741
3049.266992	2062.453147
3050.483401	2062.265734
3051.696598	2062.143357
3052.912632	2056.821678
3054.125454	2052.473427
3055.341113	2053.134965
3056.552049	2052.910490
3057.764310	2050.190210
3058.976385	2049.462238
3060.188273	2050.973427
3061.398463	2049.667832
3062.608467	2050.189510
3063.818286	2051.692308
3065.026408	2051.876923
3066.234344	2046.974825
3067.440586	2039.306993
3068.648151	2037.733566
3069.854023	2035.761538
3071.059709	2033.975524
3072.265210	2030.423776
3073.469018	2029.481818
3074.674150	2034.118182
3075.877590	2032.607692
3077.079337	2034.537762
3078.280901	2029.679720
3079.482281	2024.770629
3080.683477	2014.393706
3081.882983	2007.614685
3083.082305	2010.869231
3084.282951	2016.198601
3085.481907	2017.186014
3086.677669	2015.382517
3087.876260	2017.537762
3089.071657	2021.455944
3090.268377	2022.566434
3091.461905	2027.912587
3092.658261	2031.166434
3093.852931	2035.037063
3095.044410	2033.945455
3096.240220	2038.372727
3097.431337	2047.786713
3098.623776	2048.062238
3099.813028	2046.425874
3101.005106	2045.990210
3102.195499	2043.654545
3103.382707	2039.296503
3104.571238	2033.987413
3105.761091	2030.837762
3106.947759	2027.641259
3108.134248	2024.805594
3109.320557	2026.077622
3110.508188	2029.212587
3111.692638	2032.025874
3112.875407	2028.715385
3114.061000	2029.087413
3115.244912	2029.618881
3116.427146	2032.720979
3117.609201	2032.534965
3118.791079	2033.944056
3119.972778	2037.027972
3121.152799	2033.251049
3122.331144	2030.074126
3123.512310	2033.602797
3124.690300	2031.205594
3125.868113	2028.552448
3127.045749	2023.426573
3128.221710	2015.727972
3129.397494	2005.071329
3130.574600	2005.162238
3131.750031	1999.789510
3132.923789	2001.797902
3134.095875	1999.448252
3135.269281	1992.102797
3136.442512	1995.626573
3137.614070	2010.637063
3138.786950	2018.983916
3139.956662	2028.218881
3141.127695	2032.606294
3142.297057	2035.948252
3143.464750	2038.530769
3144.635258	2046.726573
3145.801107	2050.404196
3146.971266	2055.072727
3148.136767	2057.663636
3149.302095	2058.469930
3150.467249	2061.060140
3151.632229	2067.969231
3152.798530	2062.441259
3153.960177	2055.183916
3155.123145	2044.533566
3156.285939	2041.167832
3157.448561	2031.879021
3158.609518	2023.367133
3159.770302	2013.981818
3160.930914	2007.040559
3162.089863	2007.981818
3163.248639	2003.544056
3164.407244	1997.266434
3165.565677	2001.197902
3166.723938	1999.112587
3167.880537	2001.369930
3169.035475	2000.679021
3170.191732	2005.871329
3171.346329	2002.744755
3172.500754	2008.476224
3173.653520	2013.477622
3174.806116	2018.716084
3175.958541	2020.199301
3177.110797	2021.578322
3178.262883	2018.381818
3179.411822	2023.406294
3180.563568	2026.595804
3181.713656	2023.627273
3182.862088	2021.011888
3184.010351	2020.183217
3185.158444	2019.207692
3186.306369	2028.116783
3187.452639	2031.630769
3188.598740	2029.951049
3189.743186	2028.331469
3190.887465	2026.937762
3192.031576	2024.816783
3193.177005	2025.239161
3194.319294	2025.013287
3195.461417	2021.848252
3196.603372	2019.858042
3197.745161	2015.179021
3198.886782	2008.925874
3200.025267	2008.501399
3201.165070	2000.018881
3202.306191	1995.281119
3203.444177	1986.813287
3204.580514	1982.496503
3205.716685	1980.917483
3206.854174	1975.090210
3207.990013	1974.839860
3209.127170	1973.206993
3210.259714	1967.244056
3211.396540	1967.391608
3212.528754	1967.200699
3213.662286	1970.404895
3214.795652	1957.334266
3215.925891	1957.132168
3217.058928	1953.395105
3218.188839	1958.429371
3219.320067	1955.698601
3220.448169	1952.746154
3221.579068	1957.806993
3222.708324	1960.930769
3223.835935	1962.934266
3224.960425	1968.268531
3226.089190	1972.406993
3227.214833	1979.186014
3228.340313	1981.127972
3229.464152	1996.239860
3230.590785	2003.009091
3231.712821	2002.072727
3232.836173	2002.411189
3233.959363	1997.152448
3235.082391	1994.466434
3236.203779	1986.411888
3237.325006	1973.081119
3238.444594	1959.467133
3239.564021	1954.167133
3240.681810	1951.243357
3241.802392	1954.923776
3242.919859	1960.232168
3244.037167	1968.863636
3245.154313	1974.316084
3246.269824	1986.687413
3247.386650	1995.612587
3248.500365	2006.502098
3249.616870	2010.132867
3250.731741	2010.408392
3251.843503	2012.839161
3252.955106	2018.904895
3254.068023	2015.120979
3255.180782	2015.605594
3256.290434	2017.958741
3257.401400	2019.497902
3258.512208	2018.417483
3259.621385	2024.958042
3260.728930	2030.723776
3261.837790	2034.147552
3262.946491	2032.134965
3264.052090	2032.340559
3265.159003	2034.562238
3266.264288	2036.555245
3267.370886	2038.098601
3268.474384	2041.795804
3269.579196	2043.662238
3270.683851	2041.518881
3271.785407	2042.554545
3272.886808	2041.967133
3273.989522	2041.723776
3275.092079	2041.260839
3276.191540	2032.321678
3277.293785	2024.701399
3278.392934	2020.753147
3279.490459	2012.083217
3280.587828	2009.448252
3281.687980	2000.044755
3282.785038	1991.866434
3283.881941	1983.332867
3284.978689	1977.410490
3286.070879	1971.318182
3287.167317	1972.797902
3288.262134	1967.997902
3289.356795	1968.287413
3290.449835	1973.067133
3291.542721	1974.335664
3292.633986	1965.200699
3293.726564	1961.597902
3294.817521	1954.806993
3295.906859	1949.830070
3296.996044	1945.571329
3298.086542	1944.287413
3299.173955	1944.119580
3300.261216	1947.757343
3301.349789	1951.758741
3302.438209	1966.376224
3303.522082	1978.636364
3304.610197	1983.647552
3305.695231	1988.142657
3306.778648	1997.433566
3307.863378	2002.033566
3308.946493	2000.632867
3310.030919	1997.154545
3311.112267	1996.378322
3312.194927	1996.006294
3313.275973	1998.149650
3314.356868	1996.671329
3315.436150	2000.567133
3316.515281	2005.021678
3317.595723	2006.379720
3318.673092	2010.939161
3319.751771	2018.388811
3320.828840	2018.677622
3321.905758	2015.962937
3322.981065	2017.544755
3324.056223	2026.570629
3325.132692	2032.396503
3326.206091	2041.534965
3327.279341	2042.160839
3328.353902	2049.779720
3329.426853	2049.586713
3330.498197	2052.100699
3331.570851	2054.982517
3332.640438	2061.544755
3333.711336	2057.854545
3334.780627	2053.623077
3335.851229	2055.216084
3336.920224	2052.890210
3337.987613	2053.109091
3339.053397	2053.962238
3340.123407	2049.787413
3341.190354	2050.716783
3342.254239	2047.309790
3343.320892	2051.037063
3344.385940	2051.995105
3345.449385	2055.285315
3346.512684	2049.447552
3347.575836	2049.014685
3348.638842	2044.618881
3349.701702	2040.951049
3350.762960	2037.526573
3351.821161	2032.980420
3352.883583	2029.374126
3353.942948	2036.139860
3355.002168	2039.929371
3356.062698	2049.935664
3357.118718	2060.548951
3358.177503	2069.289510
3359.231780	2072.448252
3360.288820	2077.269231
3361.344263	2069.734266
3362.401014	2069.185315
3363.456168	2057.685315
3364.509724	2044.741958
3365.561683	2034.812587
3366.616404	2032.992308
3367.668076	2025.479021
3368.719605	2027.224476
3369.772443	2024.276923
3370.822233	2023.304895
3371.873331	2022.325874
3372.921384	2023.141259
3373.972197	2014.968531
3375.019964	2015.634266
3376.067589	2013.043357
3377.115071	2011.974126
3378.160961	2011.658741
3379.208159	2009.673427
3380.252315	2012.509091
3381.299229	2017.277622
3382.344551	2014.230769
3383.386833	2019.486713
3384.428973	2023.561538
3385.472421	2023.166434
3386.515729	2019.176224
3387.557446	2021.102797
3388.599022	2019.765035
3389.640458	2019.293007
3390.680304	2009.950350
3391.718563	2002.623077
3392.758129	2004.770629
3393.797554	2003.898601
3394.835392	1999.146853
3395.871643	2000.008392
3396.907755	1995.576224
3397.945174	1993.897203
3398.979560	1992.120979
3400.015253	1996.455944
3401.050807	1996.265734
3402.083330	2001.467832
3403.118606	2000.974825
3404.150851	2004.541958
3405.182958	2007.788811
3406.213481	2010.573427
3407.245312	2011.680420
3408.277003	2015.825175
3409.305668	2019.086014
3410.334194	2025.387413
3411.364028	2027.301399
3412.393723	2034.870629
3413.420393	2034.768531
3414.448370	2043.444056
3415.473322	2043.451748
3416.501024	2044.387413
3417.525703	2043.001399
3418.551688	2047.662937
3419.576093	2054.511888
3420.600362	2062.484615
3421.623052	2071.000000
3422.645606	2075.660140
3423.669466	2079.124476
3424.690306	2081.039161
3425.711011	2079.806294
3426.733021	2077.294031
3427.752013	2073.879121
3428.770870	2069.938312
3429.791032	2065.848352
3430.808178	2061.985989
