-118.146553	44.464286
-115.476953	46.598901
-112.810288	49.448252
-110.144375	52.713387
-107.481395	56.095355
-104.816984	59.295205
-102.155504	62.013986
-99.492595	64.565734
-96.834792	61.811189
-94.175560	60.068531
-91.517076	60.638462
-88.861517	61.719580
-86.204528	59.399301
-83.552638	59.029371
-80.899318	60.746853
-78.248917	65.101399
-75.597088	64.012587
-72.950349	69.552448
-70.302180	71.586713
-67.654754	74.969231
-65.010243	72.418881
-62.364302	78.178322
-59.723443	81.995105
-57.081155	84.924476
-54.441776	83.344056
-51.800967	82.552448
-49.160899	83.265035
-46.525904	81.906993
-43.889479	84.949650
-41.255957	94.235664
-38.621007	104.709091
-35.991122	113.681818
-33.357645	127.043357
-30.729230	140.953846
-28.101549	151.927972
-25.472439	112.511888
-22.848386	-147.758741
-20.220744	-1213.087413
-17.598155	-3446.725874
-14.976298	-2264.786713
-12.355171	2655.346853
-9.734775	14495.690210
-7.117266	24802.937762
-4.498329	32059.004895
-1.882277	36204.614685
0.733046	37221.047552
3.347641	35118.105594
5.959355	29927.050350
8.572497	21812.769930
11.180605	11429.241958
13.792295	1190.373427
16.398954	-3894.625874
19.007041	-4555.919580
21.614404	-500.151049
24.216742	162.265035
26.822658	171.905594
29.423552	164.636364
32.025874	156.038462
34.623179	141.884615
37.224059	129.802098
39.819924	116.658741
42.417218	105.937762
45.013792	100.630070
47.605357	95.286713
50.198350	94.342657
52.788482	92.860140
55.380041	90.840559
57.968742	93.738462
60.558869	92.076923
63.143997	92.065734
65.730553	87.311189
68.316395	85.239161
70.899383	84.700699
73.483797	83.459441
76.061083	82.100000
78.641935	84.498601
81.219938	85.039161
83.797231	84.279021
86.375950	83.991608
88.949687	81.583916
91.524852	78.825175
94.097173	76.187413
96.668786	74.088811
99.237559	73.399301
101.807759	77.281119
104.375120	78.893007
106.943908	85.564336
109.509859	94.244755
112.072975	98.724476
114.639647	107.105594
117.197098	122.472727
119.760234	148.139161
122.318410	192.762937
124.880141	269.652448
127.436915	401.541259
129.995115	589.617483
132.548363	832.013287
135.100913	1120.297902
137.657013	1428.597902
140.208165	1737.434266
142.758620	2034.804895
145.308377	2301.316084
147.855315	2512.456643
150.401558	2668.000699
152.949226	2756.885315
155.496198	2801.251748
158.038235	2817.746853
160.579578	2816.500000
163.120228	2790.581818
165.662304	2764.239860
168.201568	2730.537762
170.738023	2700.872028
173.273788	2684.339860
175.810978	2671.949650
178.347477	2668.117483
180.881170	2681.860140
183.412059	2695.589510
185.942260	2720.196503
188.473887	2746.668531
191.002712	2778.460839
193.528738	2800.117483
196.054078	2820.659441
198.580843	2844.113986
201.104812	2855.608392
203.628096	2861.405594
206.150695	2863.571329
208.670501	2869.647552
211.189623	2885.904895
213.708064	2898.358741
216.227928	2909.878322
218.740791	2910.386014
221.257185	2906.318881
223.772897	2895.630769
226.283719	2885.623776
228.795966	2880.933566
231.305431	2872.689510
233.814216	2866.565734
236.322324	2859.016084
238.831856	2863.484615
241.336507	2879.110490
243.840482	2884.710490
246.345881	2886.010490
248.846405	2887.031469
251.350452	2991.997203
253.847529	3369.032168
256.348129	4045.378322
258.845957	4815.683217
261.343112	5484.862238
263.839594	5949.850350
266.331213	6167.782517
268.826352	6127.949650
271.318724	5832.305594
273.810426	5312.241958
276.299365	4664.009790
278.789727	4000.931469
281.277328	3503.291608
283.762169	3286.748951
286.250525	3276.111189
288.731941	3279.709790
291.216871	3234.395105
293.696956	3148.237063
296.180553	3041.895105
298.659307	2919.637063
301.139484	2806.997902
303.616910	2718.706993
306.093672	2699.425874
308.569770	2739.504196
311.043121	2825.467832
313.515809	2909.705594
315.987836	2990.130070
318.459202	3056.063636
320.927823	3105.669231
323.395785	3128.967133
325.865170	3127.869930
328.329732	3096.804895
330.797798	3044.722378
333.261044	2980.497203
335.723632	2930.027972
338.185564	2895.604895
340.646839	2888.274126
343.105380	2879.160839
345.565343	2871.555944
348.022573	2869.483916
350.479149	2868.012587
352.935071	2872.083916
355.388263	2869.220280
357.842878	2859.586713
360.292691	2853.845455
362.746000	2841.963636
365.194510	2826.886014
367.642370	2811.521678
370.091652	2799.429371
372.536140	2783.913287
374.982050	2768.206294
377.427310	2759.663636
379.869852	2755.690909
382.311746	2749.453147
384.752993	2737.799301
387.191524	2727.189510
389.631476	2718.000000
392.068715	2711.977622
394.503243	2713.078322
396.941258	2717.896503
399.374496	2718.383916
401.809155	2718.314685
404.239042	2721.218881
406.672414	2731.844056
409.101016	2744.386014
411.528976	2750.655245
413.958358	2758.939860
416.382974	2762.915385
418.809012	2771.176923
421.234409	2774.638462
423.659166	2778.127972
426.079165	2786.911189
428.500584	2788.827972
430.919308	2786.555944
433.339452	2794.435664
435.756901	2807.497203
438.175770	2817.097203
440.591946	2820.252448
443.003374	2828.611888
445.418279	2832.641259
447.830495	2835.723077
450.242076	2825.914685
452.653023	2825.601399
455.061284	2825.616783
457.468912	2814.528671
459.875908	2801.125874
462.282273	2796.722378
464.685955	2789.097902
467.089007	2779.809790
469.491429	2765.720979
471.893221	2768.255245
474.292335	2760.009091
476.692869	2758.939161
479.092774	2760.804196
481.487957	2777.036364
483.886606	2782.250350
486.280534	2781.295804
488.673837	2780.133566
491.066515	2776.375524
493.458567	2767.514685
495.852037	2753.824476
498.240795	2728.686713
500.626887	2702.451748
503.014399	2661.501399
505.401288	2628.346853
507.785513	2588.534266
510.171156	2553.381119
512.554138	2512.131469
514.934459	2477.412587
517.316199	2454.295105
519.695280	2440.913986
522.075779	2435.009790
524.453622	2434.188811
526.828808	2428.825874
529.203378	2427.498601
531.579365	2419.336364
533.952700	2408.167832
536.327452	2391.079021
538.697519	2364.377622
541.066970	2341.411888
543.437839	2313.641958
545.804027	2296.087413
548.171634	2284.705594
550.536596	2277.575524
552.900944	2278.453846
555.264679	2269.200000
557.629832	2272.094406
559.990313	2269.688112
562.352212	2272.023077
564.711470	2275.295105
567.068090	2269.934965
569.428156	2264.804895
571.781530	2251.555245
574.138349	2244.443357
576.492533	2235.962937
578.846108	2226.658741
581.199076	2217.716084
583.549411	2201.515385
585.901164	2198.156643
588.246240	2195.013986
590.596779	2204.696503
592.940646	2213.213287
595.289974	2219.718881
597.634653	2223.656643
599.976708	2223.132168
602.320180	2223.294406
604.661029	2225.091608
607.001275	2221.533566
609.338902	2218.465035
611.679963	2215.293007
614.016386	2216.376224
616.354226	2215.572727
618.689449	2219.022378
621.022056	2219.566434
623.356079	2223.192308
625.687488	2217.139161
628.018299	2212.175524
630.348513	2213.255944
632.678128	2213.762937
635.003120	2207.172028
637.333554	2207.985315
639.659367	2209.517483
641.982572	2215.707692
644.307194	2213.649650
646.629210	2216.755944
648.950632	2220.389510
651.269452	2223.746154
653.589687	2212.737762
655.909329	2211.723776
658.226370	2211.092308
660.542819	2207.389510
662.856670	2207.774825
665.171937	2213.819580
667.484607	2216.648951
669.798692	2223.236364
672.108177	2220.439161
674.419078	2224.094406
676.727386	2221.891608
679.035106	2215.896503
681.344240	2204.508392
683.648782	2198.456643
685.952738	2190.065035
688.256108	2179.253147
690.560892	2176.572727
692.861089	2167.589510
695.162702	2160.819580
697.463729	2157.422378
699.760175	2148.902797
702.058036	2145.490210
704.355313	2142.690909
706.652007	2141.940559
708.944125	2135.306993
711.239654	2134.234266
713.530609	2126.680420
715.822979	2125.593706
718.112774	2128.618881
720.401988	2123.782517
722.690623	2121.998601
724.976685	2121.393007
727.264162	2117.821678
729.549067	2118.859441
731.833395	2121.612587
734.115154	2121.918182
736.398327	2121.411888
738.680923	2129.903497
740.958963	2133.379021
743.238418	2142.481818
745.517296	2142.851748
747.795600	2140.104895
750.069354	2143.586014
752.344521	2142.429371
754.619115	2139.692308
756.891150	2137.527972
759.164598	2133.618182
761.435488	2136.318881
763.703822	2139.097902
765.973569	2145.134965
768.240761	2146.469930
770.507384	2149.744755
772.773436	2152.351748
775.036937	2159.769231
777.301851	2169.135664
779.566195	2177.453147
781.826010	2184.911888
784.087237	2196.466434
786.347897	2194.744056
788.606011	2206.859441
790.861580	2210.320979
793.120540	2210.094406
795.373000	2204.573427
797.630828	2205.376923
799.884137	2208.732168
802.134906	2209.913986
804.387087	2204.451748
806.636729	2212.446154
808.887784	2213.088112
811.134327	2215.674825
813.382282	2205.774126
815.627703	2202.584615
817.874535	2191.388811
820.120806	2183.776224
822.362572	2186.408392
824.607722	2181.197902
826.846399	2191.045455
829.088458	2192.113287
831.326019	2194.998601
833.564992	2196.020979
835.801438	2195.976224
838.039295	2189.218182
840.274627	2181.212587
842.507436	2173.034965
844.741656	2175.969930
846.973353	2188.183916
849.204496	2197.752448
851.435084	2189.083916
853.665118	2195.631469
855.894598	2189.527273
858.119596	2183.439860
860.347969	2171.106294
862.571862	2168.525175
864.797167	2157.351748
867.017996	2159.249650
869.242197	2172.227972
871.461925	2185.467133
873.683063	2200.260140
875.903651	2228.151748
878.121730	2243.540559
880.341218	2250.669231
882.556240	2256.324476
884.770714	2255.584615
886.984641	2260.011888
889.198021	2264.587413
891.410853	2246.495804
893.623139	2246.767133
895.832922	2257.067133
898.042160	2262.806993
900.250853	2270.902098
902.457046	2294.337063
904.664650	2298.076224
906.869755	2296.996503
909.074317	2307.902098
911.276384	2310.414685
913.479860	2312.704196
915.680842	2322.231469
917.881282	2310.629371
920.083131	2317.375524
922.278589	2340.499301
924.477406	2354.259441
926.671784	2351.286713
928.869520	2351.785315
931.062820	2364.145455
933.257529	2379.069231
935.449752	2395.434266
937.641436	2399.499301
939.832583	2402.061538
942.021247	2437.188811
944.209375	2444.818881
946.395022	2461.200699
948.584021	2496.507692
950.768597	2510.184615
952.952638	2524.647552
955.140029	2555.562937
957.319116	2593.755944
959.501554	2621.516084
961.683458	2653.750350
963.862887	2679.649650
966.039844	2716.921678
968.218209	2771.219580
970.397981	2798.602797
972.571404	2828.741958
974.748173	2868.085315
976.920535	2907.838462
979.094305	2943.753846
981.263671	2967.038462
983.436381	3001.611888
985.606626	3034.341259
987.776341	3072.358042
989.945529	3077.032867
992.110319	3106.790210
994.278450	3136.301399
996.442186	3138.158741
998.607330	3142.874825
1000.770014	3178.535664
1002.932173	3210.364336
1005.091875	3199.553846
1007.251052	3203.958042
1009.411636	3240.645455
1011.569765	3227.476923
1013.727371	3208.693007
1015.884453	3158.729371
1018.041011	3085.923077
1020.193190	2983.934965
1022.346776	2839.416084
1024.499840	2698.614685
1026.650455	2551.102098
1028.802477	2381.609790
1030.950125	2248.158741
1033.101105	2119.436364
1035.247714	1972.940559
1037.393804	1754.181818
1039.539376	1509.600000
1041.686353	1226.164336
1043.827041	915.883916
1045.971059	631.893706
1048.112636	370.097203
1050.253697	158.339860
1052.396162	-0.320280
1054.532347	-116.287413
1056.671859	-124.300699
1058.807016	-116.048951
1060.945497	-34.995105
1063.079624	116.828671
1065.213238	324.283217
1067.348256	584.876224
1069.478926	875.694406
1071.611000	1162.946853
1073.740645	1443.037762
1075.869778	1682.664336
1077.998399	1880.091608
1080.126509	1989.653846
1082.252193	2110.006294
1084.377367	2204.869231
1086.503945	2344.660140
1088.626185	2506.691608
1090.749830	2651.085315
1092.869140	2797.888112
1094.993679	2932.931469
1097.111974	3017.979720
1099.231673	3087.413986
1101.348953	3119.334266
1103.465726	3132.448951
1105.581994	3132.295105
1107.695845	3121.032867
1109.811101	3113.030070
1111.922033	3100.520280
1114.036278	3032.532867
1116.146202	2995.195804
1118.257530	2979.710490
1120.368353	2984.396503
1122.474860	2953.133566
1124.584676	2943.378322
1126.690179	2920.061538
1128.797084	2906.235664
1130.897774	2899.565035
1133.003676	2874.157343
1135.105269	2874.841259
1137.208265	2843.527273
1139.310760	2814.574825
1141.407048	2808.998601
1143.508543	2819.762937
1145.605736	2838.452448
1147.702431	2842.493706
1149.798627	2852.388811
1151.894325	2832.359441
1153.989526	2820.488112
1156.082330	2795.669231
1158.176536	2762.621678
1160.264551	2761.863636
1162.357765	2741.234965
1164.444790	2717.927273
1166.535114	2673.981818
1168.621150	2657.746154
1170.710485	2634.765035
1172.793638	2623.631469
1174.878193	2588.762937
1176.964150	2552.002098
1179.045825	2524.430769
1181.128901	2502.675524
1183.209592	2479.241259
1185.289792	2487.339161
1187.369500	2481.774825
1189.448717	2478.322378
1191.525552	2484.892308
1193.600005	2488.247552
1195.677751	2502.569231
1197.751227	2508.540559
1199.826103	2518.086014
1201.896712	2541.599301
1203.968722	2544.241958
1206.038357	2530.937762
1208.109391	2524.587413
1210.179939	2516.155944
1212.246225	2500.430769
1214.313912	2482.041259
1216.379227	2459.155944
1218.445942	2439.751748
1220.508401	2428.817483
1222.574145	2432.539161
1224.635635	2454.590210
1226.698526	2466.764336
1228.759049	2478.737762
1230.819088	2480.428671
1232.878644	2523.783916
1234.935836	2530.278322
1236.992546	2513.787413
1239.046892	2509.151049
1241.104520	2498.205594
1243.159785	2491.665035
1245.210809	2481.819580
1247.263233	2495.263636
1249.315177	2492.254545
1251.364763	2492.446154
1253.413870	2518.549650
1255.462498	2519.614685
1257.510648	2522.675524
1259.558320	2497.590909
1261.601761	2477.761538
1263.648478	2477.312587
1265.692841	2478.470629
1267.736728	2493.482517
1269.778263	2486.674126
1271.817449	2512.676923
1273.859908	2516.434266
1275.898144	2537.992308
1277.937779	2567.985315
1279.976939	2598.533566
1282.011880	2608.657343
1284.048220	2639.786713
1286.082216	2667.603497
1288.117609	2684.927972
1290.148790	2700.923776
1292.181368	2696.502797
1294.213475	2663.145455
1296.243241	2649.412587
1298.274404	2612.606993
1300.301361	2575.353147
1302.329715	2550.982517
1304.353864	2560.270629
1306.381279	2538.301399
1308.404491	2540.035664
1310.429101	2532.318182
1312.451377	2512.775524
1314.475049	2503.651748
1316.496389	2473.425874
1318.517262	2466.013986
1320.537667	2449.410490
1322.553879	2447.829371
1324.571488	2427.346853
1326.586769	2434.820979
1328.605309	2437.521678
1330.619660	2420.700000
1332.631684	2411.637063
1334.646967	2403.339161
1336.658064	2392.281119
1338.670558	2389.532867
1340.678869	2373.288811
1342.690435	2373.379021
1344.695963	2364.554545
1346.704746	2375.991608
1348.709351	2385.653846
1350.717210	2388.486014
1352.724607	2383.408392
1354.725973	2373.306993
1356.728735	2377.104895
1358.731038	2375.735664
1360.732881	2356.584615
1362.734264	2349.728671
1364.733334	2335.088811
1366.731945	2328.602797
1368.730097	2334.800000
1370.727792	2343.586014
1372.721324	2362.609790
1374.716251	2366.397203
1376.710722	2369.034266
1378.704736	2369.928671
1380.696443	2373.244056
1382.687694	2359.332867
1384.676640	2345.427972
1386.666982	2341.411888
1388.656868	2338.769930
1390.644450	2340.934266
1392.631579	2340.813287
1394.616406	2345.659441
1396.602628	2356.692308
1398.586549	2357.817483
1400.570018	2339.231469
1402.553035	2338.693007
1404.533754	2322.894406
1406.515867	2330.462238
1408.495684	2343.800699
1410.475049	2345.361538
1412.450276	2357.292308
1414.428741	2362.876923
1416.404913	2367.806993
1418.380635	2382.106993
1420.355909	2392.906993
1422.328891	2391.409091
1424.301425	2378.438462
1426.273511	2382.464336
1428.245150	2375.983217
1430.212660	2386.146154
1432.185244	2382.140559
1434.150022	2381.844056
1436.119873	2384.523077
1438.085600	2381.375524
1440.052719	2388.759441
1442.017555	2388.056643
1443.978271	2400.332867
1445.944055	2398.672727
1447.903884	2393.678322
1449.865107	2385.589510
1451.827721	2390.076923
1453.786221	2402.674825
1455.744279	2400.402098
1457.701895	2404.474126
1459.659068	2407.990909
1461.613966	2410.643357
1463.570257	2422.072028
1465.524273	2424.969231
1467.477848	2434.862937
1469.429151	2427.549650
1471.381846	2430.130769
1473.332270	2435.624476
1475.282255	2437.165734
1477.231801	2447.790210
1479.179078	2445.948951
1481.124087	2448.932168
1483.070489	2458.727972
1485.016453	2461.467133
1486.961980	2466.925175
1488.905241	2482.765734
1490.848067	2488.637063
1492.788628	2470.669930
1494.730582	2461.855944
1496.670273	2461.653147
1498.609529	2441.472727
1500.548351	2438.102797
1502.484913	2437.542657
1504.422866	2436.772028
1506.358560	2440.621678
1508.293821	2448.172028
1510.226825	2465.283916
1512.159398	2482.851748
1514.091538	2486.221678
1516.023246	2467.965035
1517.952700	2476.505594
1519.883545	2488.448951
1521.813958	2483.774825
1523.740299	2473.809091
1525.668030	2481.127972
1527.593512	2473.879720
1529.518564	2468.269930
1531.443187	2469.500000
1533.367380	2476.424476
1535.289327	2491.574825
1537.212664	2499.572727
1539.133754	2494.241958
1541.052600	2518.318881
1542.972836	2532.194406
1544.890829	2550.009790
1546.808394	2568.178322
1548.723719	2592.030769
1550.640433	2590.862238
1552.553092	2584.944056
1554.468955	2593.967832
1556.382578	2592.396503
1558.293963	2604.834266
1560.206738	2597.813287
1562.115463	2572.598601
1564.025577	2575.212587
1565.935268	2569.150350
1567.844536	2577.034266
1569.751570	2588.513986
1571.656371	2589.087413
1573.562561	2608.416084
1575.466519	2625.881818
1577.370056	2647.529371
1579.273173	2650.486713
1581.174060	2684.696503
1583.076336	2687.581818
1584.976384	2685.102098
1586.877819	2688.752448
1588.775221	2688.728671
1590.672204	2678.995804
1592.568769	2686.738462
1594.466721	2684.537762
1596.358839	2703.389510
1598.254151	2709.724476
1600.149045	2704.839161
1602.041717	2703.816084
1603.933972	2727.724476
1605.824008	2736.715385
1607.713628	2768.739161
1609.602833	2770.364336
1611.491623	2781.493706
1613.378195	2790.602797
1615.266155	2821.323776
1617.150098	2825.439161
1619.035428	2824.228671
1620.920345	2813.597902
1622.803048	2791.260140
1624.687138	2758.486014
1626.567216	2754.676224
1628.448682	2757.648951
1630.327937	2776.009091
1632.208578	2767.099301
1634.083415	2802.193706
1635.963233	2830.713986
1637.839047	2850.215385
1639.714450	2856.648951
1641.591239	2862.545455
1643.462232	2839.595804
1645.336406	2818.086014
1647.206581	2807.867832
1649.079937	2814.730769
1650.951090	2813.434266
1652.820042	2812.278322
1654.690378	2798.532168
1656.556722	2800.799301
1658.424451	2803.388811
1660.289981	2785.528671
1662.156897	2782.594406
1664.019823	2772.186713
1665.884136	2744.023776
1667.746252	2755.087413
1669.607963	2737.987413
1671.471060	2735.190909
1673.331961	2723.438462
1675.190670	2731.672727
1677.048975	2732.076923
1678.908664	2714.160140
1680.762587	2683.713986
1682.619683	2648.069930
1684.476375	2622.420979
1686.329092	2587.173427
1688.184980	2557.376923
1690.036894	2529.183217
1691.888407	2465.503497
1693.739519	2460.822378
1695.590230	2437.752448
1697.440541	2445.866434
1699.288668	2404.871329
1701.138179	2354.577622
1702.981940	2302.465035
1704.830652	2244.476923
1706.673617	2180.646154
1708.519749	2140.195804
1710.361918	2090.845455
1712.207253	2035.987413
1714.046847	1983.167832
1715.887825	1943.720979
1717.730186	1905.765734
1719.568591	1882.062238
1721.408379	1837.348951
1723.245991	1822.225874
1725.083209	1784.659441
1726.918253	1739.071329
1728.754680	1717.999301
1730.588935	1709.353147
1732.422795	1686.290909
1734.256261	1675.006993
1736.085782	1660.890909
1737.918461	1651.002797
1739.747196	1653.307692
1741.579088	1659.649650
1743.407038	1671.069930
1745.234596	1679.030070
1747.061763	1672.227972
1748.888538	1681.300699
1750.714921	1687.432867
1752.537368	1703.020280
1754.362970	1724.906294
1756.184637	1747.386713
1758.007686	1744.372727
1759.828573	1752.833566
1761.649072	1775.339860
1763.470951	1786.174126
1765.287132	1810.200000
1767.106464	1832.065734
1768.921868	1868.949650
1770.740424	1891.934965
1772.555054	1936.334266
1774.369297	1994.451748
1776.183154	2051.859441
1777.996624	2087.988112
1779.807941	2128.331469
1781.620638	2164.000000
1783.432950	2194.057343
1785.241343	2215.467133
1787.051118	2255.937762
1788.856978	2297.676224
1790.665983	2354.307692
1792.471075	2371.819580
1794.277548	2401.015385
1796.083637	2448.327972
1797.885815	2491.309091
1799.691138	2514.062238
1801.492552	2566.376923
1803.295346	2586.028671
1805.094234	2578.830769
1806.894503	2599.301399
1808.694390	2604.796503
1810.492135	2619.165035
1812.289500	2626.668531
1814.086484	2610.972727
1815.883089	2595.363636
1817.677554	2610.009790
1819.473398	2614.113287
1821.263587	2620.672727
1823.058673	2649.490210
1824.848106	2648.732168
1826.640677	2664.902797
1828.431112	2693.422378
1830.219413	2695.215385
1832.010849	2700.313287
1833.796639	2708.424476
1835.583809	2727.627972
1837.368847	2727.521678
1839.157019	2726.907692
1840.941305	2724.232168
1842.723461	2735.285315
1844.506997	2714.186713
1846.288404	2698.669231
1848.071190	2699.893706
1849.850095	2673.901399
1851.630379	2627.041259
1853.408538	2606.315385
1855.188075	2626.893706
1856.965486	2645.704196
1858.740775	2623.067832
1860.517441	2613.283217
1862.291985	2596.824476
1864.067907	2592.338462
1865.838208	2570.374126
1867.611637	2574.209790
1869.382946	2562.442657
1871.153884	2569.009790
1872.926200	2554.122378
1874.692902	2587.611888
1876.462729	2625.622378
1878.228693	2654.405594
1879.997781	2646.945455
1881.763007	2654.351748
1883.527865	2648.154545
1885.294100	2646.086713
1887.056476	2638.786014
1888.818484	2634.157343
1890.580126	2618.482517
1892.341401	2620.521678
1894.102308	2602.753147
1895.862849	2603.102797
1897.621280	2591.173427
1899.379345	2578.795804
1901.135303	2542.502098
1902.892637	2519.460140
1904.649606	2509.593007
1906.404468	2487.316084
1908.157226	2464.953147
1909.909619	2452.265734
1911.663389	2471.409091
1913.415055	2493.270629
1915.164619	2498.379021
1916.915558	2521.269930
1918.666135	2527.382517
1920.412872	2526.142657
1922.160986	2506.576923
1923.907000	2500.395105
1925.654389	2501.037063
1927.399681	2495.169930
1929.142875	2497.286713
1930.887444	2503.788112
1932.629917	2525.139860
1934.372031	2517.823776
1936.113784	2515.951399
1937.855177	2535.265734
1939.594477	2545.135315
1941.333418	2556.465035
1943.072000	2535.331818
1944.808491	2535.351748
1946.544624	2541.953497
1948.282131	2546.462238
1950.015816	2548.999650
1951.750876	2550.442657
1953.483847	2545.593357
1955.216462	2512.939860
1956.948721	2511.313636
1958.680623	2498.148951
1960.410439	2495.718182
1962.138170	2505.698601
1963.867276	2498.782517
1965.596026	2512.925175
1967.322694	2518.252448
1969.049007	2528.788112
1970.776693	2538.848252
1972.498843	2539.901399
1974.224094	2530.583916
1975.945538	2520.467832
1977.670082	2514.880420
1979.392547	2487.476923
1981.111209	2472.285315
1982.832969	2470.239860
1984.550927	2462.074126
1986.270258	2453.176224
1987.985790	2449.538462
1989.706142	2452.621678
1991.422696	2451.648252
1993.135453	2419.786014
1994.851306	2426.445455
1996.565087	2440.609790
1998.278518	2444.045455
1999.989878	2450.797203
2001.702610	2460.911888
2003.411552	2474.098601
2005.123586	2490.897902
2006.830111	2489.606294
2008.539729	2489.735664
2010.247279	2484.379720
2011.954482	2479.977622
2013.659619	2452.922378
2015.364410	2448.963636
2017.070572	2429.411189
2018.772952	2430.207692
2020.476703	2430.245455
2022.178392	2443.352448
2023.879735	2450.996503
2025.580734	2455.348951
2027.279671	2440.903497
2028.979980	2446.733566
2030.676513	2449.516783
2032.374418	2453.541259
2034.070265	2442.121678
2035.769197	2418.876224
2037.462643	2414.253147
2039.157460	2424.696503
2040.851935	2439.567133
2042.542641	2440.471329
2044.236431	2443.690909
2045.926454	2445.235664
2047.617848	2444.944056
2049.307189	2448.147552
2050.997900	2437.425175
2052.684848	2427.211888
2054.371457	2405.894406
2056.059435	2392.899301
2057.743654	2402.321678
2059.429244	2383.229371
2061.114494	2375.234266
2062.797695	2351.173427
2064.482267	2362.488811
2066.161375	2374.646154
2067.845270	2380.112587
2069.523703	2376.990210
2071.205214	2392.816783
2072.882973	2389.248951
2074.560396	2391.581119
2076.239188	2388.085315
2077.915938	2381.908392
2079.590645	2373.201399
2081.266723	2382.174126
2082.940759	2358.413986
2084.614461	2377.147552
2086.287827	2387.951748
2087.959154	2403.644755
2089.630147	2408.774126
2091.300806	2428.284615
2092.971131	2415.248951
2094.641122	2413.967832
2096.309077	2404.961538
2097.976698	2383.844755
2099.642286	2403.299301
2101.309242	2410.861538
2102.974165	2374.978322
2104.638756	2386.351049
2106.301315	2385.583916
2107.965242	2397.565734
2109.627138	2392.253846
2111.288704	2393.846154
2112.949938	2383.225175
2114.609144	2389.748252
2116.268019	2382.362937
2117.926565	2381.040559
2119.584780	2415.575524
2121.239273	2420.742657
2122.896830	2420.268531
2124.554057	2435.006294
2126.207564	2427.121678
2127.862438	2422.606294
2129.513593	2410.355245
2131.167811	2401.418182
2132.818311	2385.360839
2134.470179	2399.658042
2136.116638	2385.758042
2137.767852	2398.229371
2139.415352	2409.260839
2141.064219	2409.315385
2142.711067	2413.530769
2144.357590	2407.909790
2146.003787	2384.297203
2147.646276	2382.486713
2149.291823	2369.141958
2150.933663	2370.696503
2152.578560	2370.444056
2154.219751	2382.476224
2155.860620	2378.266434
2157.501164	2386.744056
2159.139696	2390.255944
2160.779594	2387.179720
2162.415792	2372.142657
2164.053356	2361.253147
2165.690598	2351.302797
2167.325830	2363.316783
2168.960740	2355.565734
2170.595329	2350.321678
2172.229597	2343.496503
2173.860171	2336.253846
2175.493797	2333.030769
2177.123731	2327.469930
2178.755030	2328.856643
2180.384324	2326.011888
2182.013299	2325.696503
2183.641954	2339.934266
2185.270290	2357.033566
2186.896624	2399.718881
2188.522639	2403.474825
2190.146652	2403.688811
2191.772031	2427.133566
2193.395409	2428.916084
2195.020152	2428.659441
2196.641214	2438.761538
2198.261959	2438.627972
2199.884068	2424.818881
2201.504180	2411.162238
2203.122296	2389.325874
2204.740096	2388.315385
2206.357581	2410.979021
2207.974750	2389.488811
2209.591604	2402.569930
2211.208142	2417.446154
2212.822688	2421.813287
2214.435241	2398.742657
2216.049158	2406.895105
2217.661084	2393.219580
2219.274373	2387.542657
2220.885672	2378.154545
2222.494981	2392.372727
2224.105654	2428.915385
2225.714338	2467.457343
2227.322709	2468.985315
2228.929094	2494.241958
2230.536841	2486.349650
2232.142603	2492.003497
2233.748053	2423.869930
2235.351518	2409.865035
2236.956346	2381.234266
2238.559190	2346.602098
2240.160051	2310.727273
2241.762275	2341.279021
2243.362517	2354.762937
2244.964121	2376.990909
2246.562072	2383.781818
2248.161386	2417.525175
2249.758720	2428.743357
2251.355746	2460.906993
2252.954134	2444.834266
2254.548873	2451.806294
2256.141635	2447.367133
2257.735760	2428.676923
2259.331246	2424.286014
2260.923087	2441.504895
2262.514622	2432.897902
2264.107519	2438.264336
2265.695106	2438.612587
2267.287389	2428.644056
2268.874366	2400.902098
2270.464370	2407.088112
2272.049070	2397.186014
2273.638464	2385.186014
2275.222556	2381.220280
2276.808008	2354.747552
2278.391492	2340.939860
2279.978001	2313.366434
2281.560877	2332.030070
2283.143450	2350.929021
2284.725719	2355.243357
2286.304358	2361.217832
2287.886022	2375.467133
2289.464057	2401.580769
2291.045115	2413.195804
2292.622546	2389.003846
2294.198014	2375.450350
2295.776504	2327.420629
2297.351370	2310.938462
2298.925935	2291.140909
2300.500199	2299.181818
2302.074164	2286.052797
2303.647827	2300.668531
2305.221191	2300.891608
2306.790936	2272.844056
2308.360382	2275.245455
2309.932846	2254.300000
2311.500036	2223.593007
2313.070244	2245.349650
2314.636837	2232.654545
2316.204790	2258.683916
2317.770787	2263.328671
2319.336487	2276.412587
2320.901889	2302.485315
2322.465338	2345.505594
2324.030146	2341.822378
2325.591346	2352.546853
2327.155560	2359.941958
2328.714512	2352.567133
2330.276478	2332.971329
2331.836494	2333.576224
2333.396215	2315.322378
2334.953986	2317.296503
2336.511462	2306.946154
2338.068644	2314.822378
2339.623878	2309.241958
2341.178819	2316.828671
2342.733465	2310.208392
2344.287818	2292.748252
2345.841877	2238.065734
2347.395643	2229.858042
2348.947464	2174.742657
2350.497343	2164.381818
2352.050229	2144.276224
2353.597872	2142.458741
2355.148524	2132.153147
2356.695584	2123.188112
2358.244002	2129.820280
2359.792129	2137.323077
2361.336667	2155.267832
2362.882563	2108.873427
2364.426521	2086.832168
2365.971835	2082.480420
2367.513566	2037.652448
2369.056653	2040.954545
2370.597804	2012.253147
2372.138666	2001.392308
2373.679239	1978.302797
2375.219523	1985.781818
2376.759518	2008.494406
2378.295935	2023.794406
2379.835353	2065.200000
2381.371193	2041.792308
2382.908391	2056.865035
2384.442013	2025.230769
2385.978635	2015.999301
2387.513327	2020.812587
2389.046089	1986.969231
2390.578564	1958.124476
2392.109111	1946.297902
2393.642656	1923.830070
2395.170990	1917.127972
2396.700680	1936.927273
2398.230085	1972.418881
2399.759205	1980.282517
2401.288039	2002.386713
2402.811669	1991.879021
2404.339934	2015.855944
2405.862997	2000.176224
2407.390693	1982.679021
2408.911550	1982.916084
2410.437039	1954.881818
2411.958969	1929.796503
2413.482253	1936.136364
2415.003617	1972.205594
2416.523061	2003.951049
2418.043860	2030.443357
2419.562740	2027.712587
2421.081339	2028.916783
2422.598020	2024.518182
2424.116055	2026.351748
2425.633809	1981.828671
2427.148011	1938.090210
2428.661934	1900.616783
2430.175576	1888.718881
2431.690573	1896.918182
2433.202021	1916.074825
2434.714823	1940.539860
2436.225713	1980.620979
2437.736324	1956.006294
2439.245023	1968.153147
2440.756708	1976.744755
2442.264850	1982.562238
2443.772714	1957.460140
2445.280299	1945.488112
2446.784345	1943.562238
2448.291375	1917.381119
2449.796497	1934.868531
2451.301342	1962.151748
2452.804280	1969.735664
2454.306942	1985.961538
2455.809327	1970.393007
2457.309807	2016.335664
2458.811640	2022.081818
2460.311568	2019.037762
2461.811221	2027.969231
2463.310599	2023.031469
2464.808074	2029.262238
2466.303647	2021.211888
2467.802200	2044.800699
2469.297225	2065.965734
2470.793602	2028.768531
2472.286453	2022.009091
2473.780657	2012.023776
2475.274587	2024.575524
2476.764993	1991.151049
2478.258377	1977.052448
2479.749863	1998.130769
2481.239452	1995.711189
2482.728769	2027.336364
2484.216190	2021.000699
2485.706587	2041.016783
2487.193466	2040.313986
2488.681696	2014.780420
2490.166409	1970.418182
2491.650853	1970.183916
2493.136647	1975.809790
2494.620550	2008.537762
2496.105803	2042.865734
2497.585923	2075.811189
2499.069016	2095.702797
2500.550218	2109.500000
2502.031151	2089.451748
2503.510195	2075.767133
2504.988970	2066.103497
2506.467477	2023.960839
2507.945716	1981.615385
2509.423686	1969.241958
2510.898151	1963.828671
2512.375586	1998.926573
2513.849517	2022.046853
2515.324798	2041.548951
2516.799812	2061.524476
2518.271325	2062.476923
2519.744189	2066.942657
2521.215170	2058.806993
2522.687501	2045.934266
2524.154718	2029.034266
2525.624902	2031.306294
2527.093205	2031.725874
2528.561243	2058.390909
2530.029016	2061.999301
2531.496524	2073.376224
2532.963767	2090.925874
2534.427518	2115.871329
2535.892619	2111.513986
2537.355843	2127.618881
2538.820416	2131.417483
2540.281501	2107.537762
2541.743935	2131.284615
2543.206106	2135.327972
2544.664791	2136.574825
2546.128047	2117.575524
2547.586208	2083.995105
2549.045717	2122.480420
2550.500132	2136.485315
2551.959118	2137.583916
2553.416232	2117.140559
2554.871474	2133.057343
2556.326456	2111.216783
2557.779569	2097.194406
2559.234029	2116.265035
2560.686621	2097.000000
2562.138953	2082.118881
2563.589418	2062.819580
2565.042838	2066.174825
2566.491176	2111.315385
2567.942469	2120.657343
2569.391897	2120.916783
2570.837852	2118.306294
2572.286762	2117.594406
2573.732202	2108.030070
2575.178989	2121.102098
2576.623913	2120.061538
2578.068580	2085.170629
2579.514594	2081.911189
2580.957142	2079.290210
2582.401037	2093.065734
2583.841466	2081.152448
2585.283244	2073.238462
2586.723162	2058.960839
2588.164427	2060.029371
2589.602230	2088.929371
2591.042983	2068.773427
2592.478674	2090.264336
2593.917314	2092.139161
2595.354096	2094.548951
2596.789023	2124.175524
2598.226897	2140.239860
2599.659714	2141.248252
2601.093878	2092.804895
2602.526188	2068.899301
2603.959844	2063.895105
2605.391647	2049.037063
2606.823196	2075.246154
2608.254493	2074.053846
2609.683937	2089.968531
2611.113129	2088.338462
2612.540471	2114.259441
2613.969158	2125.953147
2615.397594	2145.771329
2616.822582	2154.479021
2618.248917	2179.811189
2619.673403	2187.430070
2621.099235	2160.268531
2622.521623	2139.974126
2623.945357	2142.843357
2625.367244	2112.686014
2626.788882	2077.277622
2628.208674	2077.650350
2629.629812	2074.723077
2631.050700	2053.506993
2632.468149	2059.751049
2633.888539	2085.941259
2635.305491	2128.014685
2636.722194	2135.635664
2638.138649	2101.244755
2639.554856	2093.443357
2640.970815	2091.211189
2642.384933	2082.246853
2643.798803	2095.513287
2645.210834	2113.785315
2646.624210	2097.202098
2648.034156	2070.909790
2649.447038	2075.330769
2650.856491	2068.116783
2652.265698	2076.154545
2653.673069	2083.525874
2655.083374	2048.246853
2656.491844	2047.848951
2657.898478	2056.559441
2659.304867	2050.658042
2660.709422	2059.389510
2662.115321	2046.969930
2663.519387	2043.928671
2664.923208	2038.435664
2666.326785	2045.546853
2667.728531	2030.688112
2669.131620	2064.646154
2670.531291	2073.029371
2671.932306	2087.579720
2673.329905	2116.201399
2674.730433	2135.359441
2676.127547	2158.195804
2677.526004	2151.155245
2678.922634	2144.411189
2680.319021	2159.332867
2681.715166	2171.009091
2683.109485	2166.953846
2684.505147	2154.772028
2685.897400	2138.000000
2687.290995	2103.931469
2688.682766	2086.499301
2690.075880	2073.750350
2691.467170	2060.564336
2692.856637	2034.914685
2694.245864	2014.200699
2695.634852	2029.940559
2697.025181	2049.094406
2698.410527	2060.901399
2699.798796	2052.150350
2701.185245	2038.249650
2702.571455	2049.905594
2703.957426	2042.266434
2705.339999	2046.005594
2706.723914	2029.145455
2708.107591	2021.341259
2709.491029	2016.466434
2710.871072	2038.159441
2712.252457	2046.746853
2713.632027	2058.149650
2715.012937	2060.547552
2716.392033	2048.751748
2717.769315	2051.334965
2719.147938	2067.054545
2720.524747	2049.409790
2721.901321	2043.253846
2723.277659	2034.516783
2724.652186	2050.160839
2726.028053	2051.704196
2727.400533	2067.427273
2728.775929	2058.348951
2730.146365	2079.756643
2731.518142	2077.360140
2732.889684	2081.959441
2734.259418	2067.403497
2735.630493	2073.508392
2736.999759	2061.797203
2738.368792	2056.125175
2739.736019	2064.352448
2741.103012	2074.173427
2742.469773	2077.346154
2743.836301	2083.021678
2745.201025	2078.420979
2746.565516	2080.957343
2747.929776	2078.984615
2749.293803	2090.472028
2750.657599	2065.360839
2752.018021	2050.253147
2753.381353	2028.823776
2754.739743	2019.664336
2756.101043	2032.081818
2757.458973	2053.443357
2758.819811	2049.572028
2760.178850	2062.583916
2761.534520	2069.102797
2762.893098	2057.350350
2764.248309	2072.493706
2765.603291	2046.107692
2766.956476	2007.918182
2768.312568	2000.707692
2769.665296	2004.633566
2771.017796	2025.724476
2772.370067	2046.060839
2773.723676	2062.760140
2775.073925	2082.151748
2776.422379	2101.651748
2777.773738	2093.454545
2779.121739	2086.230070
2780.471077	2078.317483
2781.818623	2033.146853
2783.165943	2036.281119
2784.513036	2059.451748
2785.858337	2041.798601
2787.203413	2029.139860
2788.548263	2003.909790
2789.892887	1981.434965
2791.234159	1959.833566
2792.576769	1942.842657
2793.919153	1936.015385
2795.261312	1919.858042
2796.600122	1905.052448
2797.941832	1926.144056
2799.280193	1967.632867
2800.619892	1997.146154
2801.957806	1995.800000
2803.293934	1977.901399
2804.629840	1989.551049
2805.967083	1993.575524
2807.302542	1989.823776
2808.637778	2023.232168
2809.971231	2029.866434
2811.306021	2023.815385
2812.637471	2034.335664
2813.971816	2052.202797
2815.301263	2042.396503
2816.632046	2040.953846
2817.962609	2029.386014
2819.291392	2018.981818
2820.621511	2017.207692
2821.949852	2008.479720
2823.277972	2004.030070
2824.604314	2030.020280
2825.931993	2020.248252
2827.256338	2024.546853
2828.582020	2014.451049
2829.905926	1992.636364
2831.229612	1961.765734
2832.554635	1950.071329
2833.876327	1962.166434
2835.197801	1950.562937
2836.519056	1930.413986
2837.840092	1932.593007
2839.159355	1954.989510
2840.479954	1976.309091
2841.798782	1964.667832
2843.117391	1947.091608
2844.434229	1931.447552
2845.750850	1902.962238
2847.067254	1910.568531
2848.381888	1906.165734
2849.697858	1926.531469
2851.010507	1933.882517
2852.324491	1931.219580
2853.638259	1957.772028
2854.951810	1983.839161
2856.263595	1988.890210
2857.573613	1966.353147
2858.884966	1947.856643
2860.193004	1946.430769
2861.502376	1939.141958
2862.811534	1943.245455
2864.120476	1921.282517
2865.427654	1913.139161
2866.733070	1912.328671
2868.039819	1905.652448
2869.344807	1943.317483
2870.649580	1969.907692
2871.952593	1993.316084
2873.258486	2001.458042
2874.559525	2039.060839
2875.861898	2030.783916
2877.162511	2018.193706
2878.464458	1980.480420
2879.766191	1967.073427
2881.064621	1949.946853
2882.364384	1956.751049
2883.662390	1971.441259
2884.960184	1990.354545
2886.256222	2000.114685
2887.553593	2022.343357
2888.849208	2004.531469
2890.144612	1999.916084
2891.439805	1994.529371
2892.731701	1971.813986
2894.026473	1924.330769
2895.317948	1921.013287
2896.610756	1915.816783
2897.903354	1906.957343
2899.192658	1929.225874
2900.483294	1946.203497
2901.772179	1963.406993
2903.062396	1978.866434
2904.349322	1959.630769
2905.637580	1954.541259
2906.924089	1998.982517
2908.210389	1980.426573
2909.496482	1977.517483
2910.780826	1984.386713
2912.068041	1995.505594
2913.350430	2002.967133
2914.634151	2053.035664
2915.916126	2059.953846
2917.197893	2069.639161
2918.477915	2079.269930
2919.760808	2057.667832
2921.041955	2042.313287
2922.319820	2056.790210
2923.600554	2039.745455
2924.878007	2062.158741
2926.155254	2053.925874
2927.430759	2057.410490
2928.709132	2047.658042
2929.982691	2042.276923
2931.259117	2020.611189
2932.533802	2023.732867
2933.806746	2045.741259
2935.081022	2041.741958
2936.353558	2041.057343
2937.625889	2034.576923
2938.894948	2020.918881
2940.166872	2035.509091
2941.437058	2008.757343
2942.707040	1989.206294
2943.976819	1977.262238
2945.244862	1957.053147
2946.511168	1950.551748
2947.777273	1969.047552
2949.044707	1989.102098
2950.310406	1998.336364
2951.575904	2007.003497
2952.841199	2014.825175
2954.103229	1993.801399
2955.366589	1989.748252
2956.629748	1990.416783
2957.891175	2000.575524
2959.153931	1999.816084
2960.414955	2011.005594
2961.674249	2031.423776
2962.933343	2028.173427
2964.192236	2000.516084
2965.450929	1991.048951
2966.709422	1985.585315
2967.966186	1962.695804
2969.222750	1942.215385
2970.477586	1974.244755
2971.733752	1993.084615
2972.986663	2005.079720
2974.240902	2022.976224
2975.494943	2055.072727
2976.747258	2078.847552
2977.999375	2060.077622
2979.249767	2022.323776
2980.503014	2011.828671
2981.751484	1994.874825
2983.002809	1976.872727
2984.250884	1993.124476
2985.498762	2024.619580
2986.746444	2024.799301
2987.993928	2039.013287
2989.239691	2061.733566
2990.485258	2043.132867
2991.732152	2068.949650
2992.975802	2051.785315
2994.220780	2042.186713
2995.462514	2058.257343
2996.707100	2048.213986
2997.949967	2048.923077
2999.189593	2076.552448
3000.432069	2121.312587
3001.671305	2126.317483
3002.911869	2141.408392
3004.150716	2146.302098
3005.389369	2137.786014
3006.626306	2163.217483
3007.864571	2170.483916
3009.101120	2177.776224
3010.337476	2177.082517
3011.573638	2157.512587
3012.808086	2150.413986
3014.042342	2143.344755
3015.276404	2150.707692
3016.508753	2145.686014
3017.739392	2168.455944
3018.972876	2184.771329
3020.204648	2203.901399
3021.434710	2204.456643
3022.664579	2202.367133
3023.892739	2210.473427
3025.122226	2208.965035
3026.350003	2175.832168
3027.577589	2149.892308
3028.806501	2124.541259
3030.030671	2140.978322
3031.257685	2131.218881
3032.481474	2123.066434
3033.706590	2107.274825
3034.929999	2111.755944
3036.153218	2101.706294
3037.374732	2095.293706
3038.599087	2138.481818
3039.818707	2150.337762
3041.039653	2154.403497
3042.260410	2143.254545
3043.479463	2130.407692
3044.699841	2109.914685
3045.917003	2077.578322
3047.135491	2049.123776
3048.352276	2033.985315
3049.568874	2050.193706
3050.785283	2038.116084
3051.998479	2031.690909
3053.214514	2066.659441
3054.427336	2081.867133
3055.642994	2096.440559
3056.853931	2086.938462
3058.066192	2099.722378
3059.278266	2093.201399
3060.490154	2109.744056
3061.700345	2113.852448
3062.910349	2141.123776
3064.120167	2169.804196
3065.328289	2175.372028
3066.536226	2163.381818
3067.742467	2161.792308
3068.950033	2146.605594
3070.155904	2151.976224
3071.361590	2131.504895
3072.567092	2112.567133
3073.770900	2096.176923
3074.976032	2086.674825
3076.179471	2081.480420
3077.381219	2084.988112
3078.582782	2088.616783
3079.784162	2094.457343
3080.985358	2086.218881
3082.184864	2078.704895
3083.384187	2081.083916
3084.584833	2095.083217
3085.783789	2096.915385
3086.979551	2097.802797
3088.178142	2102.235664
3089.373539	2114.831469
3090.570259	2113.729371
3091.763787	2124.421678
3092.960143	2139.173427
3094.154812	2134.971329
3095.346291	2118.434266
3096.542102	2113.039161
3097.733218	2107.728671
3098.925658	2103.093007
3100.114910	2095.025175
3101.306987	2075.432867
3102.497381	2066.582517
3103.684589	2074.165035
3104.873119	2075.276923
3106.062972	2082.778322
3107.249641	2091.418881
3108.436129	2076.504895
3109.622439	2066.500000
3110.810070	2094.773427
3111.994519	2091.685315
3113.177289	2103.363636
3114.362881	2100.746154
3115.546794	2117.818182
3116.729028	2131.728671
3117.911083	2139.058741
3119.092960	2161.335664
3120.274659	2154.565035
3121.454681	2172.548951
3122.633026	2153.237762
3123.814191	2156.034965
3124.992181	2161.600000
3126.169994	2150.042657
3127.347630	2132.483217
3128.523592	2125.179720
3129.699376	2141.278322
3130.876482	2136.313287
3132.051913	2135.516084
3133.225671	2149.032168
3134.397756	2154.067133
3135.571163	2156.023077
3136.744393	2139.687413
3137.915952	2150.011888
3139.088831	2138.041259
3140.258543	2132.139860
3141.429576	2118.072727
3142.598939	2138.094406
3143.766631	2153.139161
3144.937139	2164.364336
3146.102989	2180.535664
3147.273147	2213.418182
3148.438649	2214.193007
3149.603976	2219.830070
3150.769130	2236.220280
3151.934111	2262.388811
3153.100411	2269.781119
3154.262059	2271.295105
3155.425026	2273.586713
3156.587821	2277.353846
3157.750443	2266.116783
3158.911399	2275.214685
3160.072184	2238.679720
3161.232796	2213.032168
3162.391744	2177.522378
3163.550521	2165.342657
3164.709125	2154.858741
3165.867558	2159.398601
3167.025820	2146.421678
3168.182419	2158.101399
3169.337357	2170.522378
3170.493614	2212.048951
3171.648210	2229.509790
3172.802636	2246.509091
3173.955402	2235.771329
3175.107997	2250.404196
3176.260423	2254.660839
3177.412679	2249.727972
3178.564764	2238.229371
3179.713703	2238.739860
3180.865450	2214.746154
3182.015538	2211.303497
3183.163970	2201.381119
3184.312232	2207.375524
3185.460326	2196.793007
3186.608251	2180.446154
3187.754520	2183.916084
3188.900621	2191.655245
3190.045068	2194.381818
3191.189347	2214.274126
3192.333458	2212.074825
3193.478886	2227.918881
3194.621176	2221.562937
3195.763299	2245.646154
3196.905254	2251.401399
3198.047042	2257.012587
3199.188663	2270.066434
3200.327149	2270.205594
3201.466952	2264.476224
3202.608072	2256.501399
3203.746059	2265.836364
3204.882396	2250.576224
3206.018567	2235.246154
3207.156055	2212.225874
3208.291895	2196.428671
3209.429052	2190.644056
3210.561596	2184.232168
3211.698422	2188.019580
3212.830636	2187.364336
3213.964167	2209.111888
3215.097534	2216.289510
3216.227773	2208.926573
3217.360810	2221.731469
3218.490721	2229.564336
3219.621948	2226.866434
3220.750051	2227.465734
3221.880950	2233.689510
3223.010205	2224.454545
3224.137817	2231.339161
3225.262306	2244.497203
3226.391071	2265.091608
3227.516714	2275.340559
3228.642195	2267.437762
3229.766033	2254.612587
3230.892667	2268.372727
3232.014703	2282.938462
3233.138055	2286.456643
3234.261245	2287.598601
3235.384272	2281.446853
3236.505661	2255.797203
3237.626887	2239.667133
3238.746476	2234.550350
3239.865903	2224.436364
3240.983692	2183.223077
3242.104273	2170.923077
3243.221741	2190.516084
3244.339048	2221.972028
3245.456195	2247.641259
3246.571705	2284.016084
3247.688531	2282.583217
3248.802247	2329.667832
3249.918752	2320.499301
3251.033623	2325.136364
3252.145384	2320.711189
3253.256987	2321.176923
3254.369905	2318.787413
3255.482663	2311.883916
3256.592315	2318.376923
3257.703282	2324.417483
3258.814090	2317.374825
3259.923266	2323.516783
3261.030811	2329.316084
3262.139671	2358.457343
3263.248373	2341.009091
3264.353972	2340.868531
3265.460885	2348.966434
3266.566169	2380.958741
3267.672767	2382.830070
3268.776265	2370.670629
3269.881077	2374.848951
3270.985732	2355.362937
3272.087289	2339.863636
3273.188689	2335.658741
3274.291403	2338.408392
3275.393961	2342.888811
3276.493422	2333.346154
3277.595667	2322.196503
3278.694816	2340.633566
3279.792341	2362.530769
3280.889710	2365.239860
3281.989861	2368.427273
3283.086920	2349.453846
3284.183823	2326.861538
3285.280571	2315.163636
3286.372760	2300.356643
3287.469199	2285.635664
3288.564015	2258.117483
3289.658677	2232.112587
3290.751717	2225.525874
3291.844602	2232.057343
3292.935867	2238.472028
3294.028445	2250.429371
3295.119403	2246.509091
3296.208741	2243.098601
3297.297926	2268.402797
3298.388424	2278.166434
3299.475837	2300.696503
3300.563097	2306.668531
3301.651670	2320.300000
3302.740090	2338.475524
3303.823964	2366.665734
3304.912079	2371.992308
3305.997112	2366.666434
3307.080530	2367.218881
3308.165260	2364.712587
3309.248374	2350.476923
3310.332801	2353.146154
3311.414149	2333.393007
3312.496809	2327.993007
3313.577855	2328.286713
3314.658750	2356.732168
3315.738031	2364.906993
3316.817162	2394.741259
3317.897605	2404.267832
3318.974973	2406.594406
3320.053653	2413.165734
3321.130721	2426.970629
3322.207640	2419.388112
3323.282947	2419.978322
3324.358105	2411.161538
3325.434574	2406.267832
3326.507973	2432.332168
3327.581222	2460.075524
3328.655783	2481.705594
3329.728735	2518.982517
3330.800078	2539.170629
3331.872732	2553.341259
3332.942320	2563.300699
3334.013218	2575.440559
3335.082509	2556.197203
3336.153111	2540.162238
3337.222106	2520.434965
3338.289495	2503.632867
3339.355279	2503.739860
3340.425289	2489.117483
3341.492236	2495.565734
3342.556121	2507.069231
3343.622773	2530.569231
3344.687822	2541.565734
3345.751267	2532.662937
3346.814566	2526.429371
3347.877718	2504.667133
3348.940724	2478.285315
3350.003584	2458.325175
3351.064842	2440.065035
3352.123043	2414.856643
3353.185464	2396.854545
3354.244830	2411.716783
3355.304050	2422.568531
3356.364579	2440.703497
3357.420600	2465.223776
3358.479384	2467.112587
3359.533661	2495.172028
3360.590702	2512.494406
3361.646144	2529.548951
3362.702896	2543.183916
3363.758049	2522.151049
3364.811605	2505.624476
3365.863565	2498.831469
3366.918286	2490.389510
3367.969958	2459.583217
3369.021487	2459.212587
3370.074324	2474.244755
3371.124114	2465.605594
3372.175213	2478.647552
3373.223266	2480.737063
3374.274078	2466.218881
3375.321846	2442.548252
3376.369470	2425.684615
3377.416953	2401.042657
3378.462843	2398.012587
3379.510041	2366.862238
3380.554197	2359.996503
3381.601111	2391.937762
3382.646433	2416.408392
3383.688714	2440.907692
3384.730854	2471.123077
3385.774303	2468.310490
3386.817610	2468.385315
3387.859327	2469.179720
3388.900904	2466.197203
3389.942339	2462.988811
3390.982186	2443.337762
3392.020444	2419.116084
3393.060010	2426.548951
3394.099436	2420.093007
3395.137274	2438.450350
3396.173525	2450.578322
3397.209637	2477.424476
3398.247056	2485.599301
3399.281442	2488.109790
3400.317135	2484.800699
3401.352689	2476.700699
3402.385212	2489.972727
3403.420487	2460.156643
3404.452733	2466.172028
3405.484840	2470.105594
3406.515363	2458.482517
3407.547193	2480.211888
3408.578885	2488.267832
3409.607549	2530.069231
3410.636076	2558.801399
3411.665909	2550.781818
3412.695605	2557.664336
3413.722275	2557.282517
3414.750251	2557.181119
3415.775204	2542.381119
3416.802906	2542.904196
3417.827585	2532.338462
3418.853570	2488.884615
3419.877975	2495.753846
3420.902244	2500.356643
3421.924934	2518.619580
3422.947488	2530.790909
3423.971348	2522.294406
3424.992188	2536.887413
3426.012892	2549.873327
3427.034903	2561.062862
3428.053895	2568.598501
3429.072751	2570.622727
3430.092914	2565.278022
3431.110060	2550.706868
