-117.018713	-0.950000
-114.349113	2.250000
-111.682448	1.750000
-109.016535	-7.250000
-106.353555	-0.350000
-103.689144	2.100000
-101.027664	-2.950000
-98.364755	1.900000
-95.706952	-0.450000
-93.047720	3.600000
-90.389236	-3.950000
-87.733677	-17.500000
-85.076688	2.250000
-82.424798	4.200000
-79.771478	1.300000
-77.121077	-0.950000
-74.469248	5.150000
-71.822509	-3.750000
-69.174340	1.050000
-66.526914	4.600000
-63.882403	-1.050000
-61.236462	-8.800000
-58.595603	-0.050000
-55.953315	-10.100000
-53.313936	-5.450000
-50.673128	-9.150000
-48.033059	-6.850000
-45.398064	-6.300000
-42.761639	1.950000
-40.128117	-3.700000
-37.493167	-0.800000
-34.863283	2.100000
-32.229805	6.900000
-29.601390	0.900000
-26.973709	11.900000
-24.344599	5.600000
-21.720547	14.650000
-19.092904	12.750000
-16.470316	30.300000
-13.848458	37.700000
-11.227331	93.050000
-8.606935	188.100000
-5.989426	659.850000
-3.370489	2049.300000
-0.754438	5499.700000
1.860886	9480.100000
4.475481	4972.900000
7.087195	611.450000
9.700337	80.600000
12.308445	30.400000
14.920134	30.450000
17.526793	26.000000
20.134881	16.650000
22.742243	2.300000
25.344581	13.150000
27.950498	1.550000
30.551392	-4.950000
33.153714	-11.750000
35.751018	21.600000
38.351899	6.600000
40.947764	6.350000
43.545057	-10.000000
46.141632	-1.150000
48.733197	-9.450000
51.326190	5.500000
53.916322	-2.100000
56.507881	-1.350000
59.096582	0.300000
61.686709	-2.850000
64.271837	-10.700000
66.858393	5.350000
69.444235	0.850000
72.027222	12.450000
74.611637	1.350000
77.188923	-6.300000
79.769775	-13.300000
82.347778	10.000000
84.925070	-11.150000
87.503790	3.600000
90.077527	-8.650000
92.652691	10.800000
95.225012	-8.600000
97.796626	-5.150000
100.365399	-8.850000
102.935599	4.500000
105.502960	-6.750000
108.071748	-5.650000
110.637699	3.600000
113.200815	11.750000
115.767487	-3.050000
118.324937	10.300000
120.888073	11.300000
123.446250	17.800000
126.007981	16.050000
128.564755	16.700000
131.122955	41.750000
133.676203	46.800000
136.228753	69.900000
138.784853	96.100000
141.336005	113.400000
143.886460	147.250000
146.436217	175.100000
148.983155	186.100000
151.529398	187.450000
154.077066	201.250000
156.624038	189.800000
159.166075	196.950000
161.707418	184.550000
164.248068	189.350000
166.790144	183.950000
169.329408	187.550000
171.865863	190.350000
174.401628	178.750000
176.938818	188.900000
179.475317	182.400000
182.009010	185.000000
184.539899	176.950000
187.070100	185.100000
189.601727	170.500000
192.130552	164.450000
194.656578	175.800000
197.181918	176.750000
199.708683	184.000000
202.232652	164.050000
204.755936	185.950000
207.278534	181.750000
209.798340	178.300000
212.317463	180.350000
214.835903	189.350000
217.355768	189.450000
219.868630	192.300000
222.385024	182.950000
224.900737	209.350000
227.411559	206.750000
229.923806	202.050000
232.433270	213.000000
234.942056	213.100000
237.450164	218.800000
239.959696	218.100000
242.464347	203.050000
244.968322	217.750000
247.473721	214.450000
249.974245	225.750000
252.478292	233.200000
254.975369	235.600000
257.475969	223.400000
259.973797	225.750000
262.470952	221.400000
264.967434	215.600000
267.459053	225.750000
269.954192	215.750000
272.446564	238.500000
274.938266	229.100000
277.427205	224.550000
279.917567	232.550000
282.405168	239.700000
284.890009	221.650000
287.378365	252.000000
289.859781	245.900000
292.344711	253.200000
294.824796	257.050000
297.308393	264.000000
299.787147	277.600000
302.267324	285.800000
304.744750	280.650000
307.221512	272.500000
309.697610	266.700000
312.170960	259.800000
314.643649	264.000000
317.115676	263.250000
319.587041	289.550000
322.055663	279.250000
324.523625	279.900000
326.993010	269.950000
329.457572	247.300000
331.925638	236.950000
334.388883	241.800000
336.851472	237.650000
339.313404	230.450000
341.774679	233.200000
344.233219	231.450000
346.693183	217.900000
349.150413	218.400000
351.606989	227.450000
354.062911	228.250000
356.516103	216.600000
358.970718	232.300000
361.420531	223.850000
363.873840	233.750000
366.322350	206.400000
368.770210	211.850000
371.219492	217.400000
373.663979	225.500000
376.109890	209.600000
378.555150	207.300000
380.997692	224.350000
383.439586	207.600000
385.880832	210.400000
388.319364	211.900000
390.759316	200.200000
393.196555	230.350000
395.631083	200.250000
398.069097	212.150000
400.502336	196.900000
402.936995	212.050000
405.366882	208.150000
407.800254	197.900000
410.228856	207.350000
412.656816	204.500000
415.086198	193.450000
417.510814	212.700000
419.936852	210.950000
422.362249	200.850000
424.787006	204.700000
427.207004	199.950000
429.628424	213.000000
432.047148	209.650000
434.467292	199.000000
436.884741	213.850000
439.303610	203.050000
441.719785	194.300000
444.131214	183.350000
446.546119	190.500000
448.958335	174.300000
451.369916	202.100000
453.780863	178.000000
456.189123	167.450000
458.596752	176.050000
461.003748	184.150000
463.410113	171.450000
465.813795	176.700000
468.216847	186.600000
470.619269	179.300000
473.021061	175.300000
475.420175	182.750000
477.820709	187.450000
480.220614	192.750000
482.615797	191.100000
485.014446	206.100000
487.408374	208.600000
489.801677	224.900000
492.194355	236.450000
494.586407	249.850000
496.979877	264.750000
499.368635	298.000000
501.754727	330.550000
504.142239	401.700000
506.529128	502.450000
508.913352	676.400000
511.298996	1041.600000
513.681978	1756.700000
516.062299	3305.850000
518.444039	6048.200000
520.823120	8514.100000
523.203619	8037.300000
525.581462	5142.250000
527.956648	2609.300000
530.331218	1488.000000
532.707205	1010.700000
535.080540	731.000000
537.455292	584.700000
539.825358	493.400000
542.194810	424.350000
544.565679	352.200000
546.931867	327.800000
549.299474	275.700000
551.664435	293.000000
554.028784	245.150000
556.392519	234.300000
558.757672	225.900000
561.118153	200.100000
563.480052	198.050000
565.839310	198.600000
568.195930	177.600000
570.555996	200.250000
572.909370	172.750000
575.266189	170.100000
577.620373	171.900000
579.973948	164.550000
582.326916	152.450000
584.677251	166.200000
587.029004	154.350000
589.374080	151.350000
591.724619	144.950000
594.068486	157.200000
596.417814	145.550000
598.762493	142.450000
601.104548	146.300000
603.448020	140.650000
605.788869	141.700000
608.129115	150.850000
610.466741	145.950000
612.807802	172.100000
615.144226	136.000000
617.482066	153.750000
619.817289	151.550000
622.149895	148.550000
624.483919	141.400000
626.815328	138.950000
629.146139	136.700000
631.476352	132.050000
633.805968	116.400000
636.130960	132.550000
638.461394	122.550000
640.787207	129.250000
643.110412	128.400000
645.435034	139.300000
647.757050	124.650000
650.078472	132.250000
652.397291	123.050000
654.717527	134.550000
657.037169	116.000000
659.354210	124.100000
661.670659	128.250000
663.984510	123.450000
666.299777	119.200000
668.612447	139.250000
670.926532	123.300000
673.236017	128.800000
675.546918	121.800000
677.855226	115.550000
680.162946	116.300000
682.472080	120.100000
684.776622	112.000000
687.080578	113.900000
689.383948	118.450000
691.688732	111.100000
693.988929	120.500000
696.290542	110.200000
698.591569	108.250000
700.888015	100.700000
703.185876	102.600000
705.483153	113.050000
707.779847	109.200000
710.071965	101.000000
712.367494	97.650000
714.658449	110.500000
716.950819	91.150000
719.240614	102.850000
721.529828	94.700000
723.818463	99.450000
726.104525	91.400000
728.392002	102.300000
730.676907	97.150000
732.961235	115.850000
735.242994	96.000000
737.526167	101.050000
739.808763	99.900000
742.086803	101.050000
744.366257	104.050000
746.645136	106.000000
748.923440	96.000000
751.197193	105.450000
753.472361	102.550000
755.746955	102.350000
758.018990	101.250000
760.292438	103.250000
762.563328	98.150000
764.831662	112.250000
767.101409	100.500000
769.368601	109.550000
771.635224	101.750000
773.901276	111.750000
776.164777	103.200000
778.429691	113.550000
780.694035	97.750000
782.953850	114.400000
785.215077	118.750000
787.475737	123.250000
789.733851	111.200000
791.989420	111.800000
794.248379	118.050000
796.500840	133.750000
798.758668	105.100000
801.011977	121.950000
803.262746	106.800000
805.514927	118.200000
807.764569	110.850000
810.015623	118.550000
812.262167	108.750000
814.510122	111.950000
816.755543	129.800000
819.002375	125.850000
821.248646	115.850000
823.490412	119.800000
825.735562	118.900000
827.974239	119.450000
830.216298	108.050000
832.453859	125.450000
834.692832	113.050000
836.929278	121.650000
839.167135	108.450000
841.402467	101.600000
843.635276	93.250000
845.869495	123.700000
848.101193	109.150000
850.332336	115.150000
852.562924	116.100000
854.792958	114.750000
857.022438	109.950000
859.247436	109.100000
861.475808	103.600000
863.699702	99.050000
865.925007	109.900000
868.145836	117.850000
870.370037	106.750000
872.589765	108.550000
874.810903	108.100000
877.031491	113.450000
879.249570	121.700000
881.469058	113.700000
883.684080	111.850000
885.898554	119.650000
888.112481	120.650000
890.325861	111.900000
892.538693	108.750000
894.750978	127.900000
896.960762	117.000000
899.170000	112.750000
901.378693	105.950000
903.584886	116.850000
905.792489	120.750000
907.997595	129.050000
910.202157	115.800000
912.404224	108.950000
914.607700	117.350000
916.808682	134.600000
919.009122	108.750000
921.210971	134.000000
923.406429	143.000000
925.605245	140.750000
927.799624	145.400000
929.997360	175.850000
932.190660	191.450000
934.385369	234.000000
936.577591	244.100000
938.769276	289.300000
940.960423	290.950000
943.149087	316.800000
945.337215	320.850000
947.522861	323.650000
949.711861	313.000000
951.896437	326.400000
954.080478	312.950000
956.267869	311.050000
958.446956	312.800000
960.629394	316.650000
962.811298	319.150000
964.990727	331.150000
967.167684	322.050000
969.346049	337.300000
971.525821	337.150000
973.699244	325.550000
975.876013	339.950000
978.048375	335.800000
980.222145	325.150000
982.391511	335.550000
984.564221	316.300000
986.734466	307.400000
988.904181	289.400000
991.073368	278.450000
993.238158	232.400000
995.406290	218.750000
997.570026	198.850000
999.735170	191.400000
1001.897854	166.850000
1004.060013	183.700000
1006.219715	171.750000
1008.378892	165.650000
1010.539476	160.450000
1012.697605	157.400000
1014.855211	142.950000
1017.012293	157.100000
1019.168851	135.950000
1021.321030	144.450000
1023.474616	143.400000
1025.627680	131.000000
1027.778295	139.550000
1029.930316	126.850000
1032.077965	127.650000
1034.228945	135.600000
1036.375554	121.800000
1038.521644	125.100000
1040.667216	113.850000
1042.814193	118.700000
1044.954881	106.350000
1047.098898	112.050000
1049.240476	110.950000
1051.381536	110.900000
1053.524002	118.100000
1055.660187	108.950000
1057.799699	100.200000
1059.934855	115.900000
1062.073336	109.350000
1064.207464	104.000000
1066.341078	98.800000
1068.476096	117.050000
1070.606766	106.950000
1072.738840	112.700000
1074.868485	93.950000
1076.997617	107.600000
1079.126239	104.600000
1081.254349	112.800000
1083.380033	104.900000
1085.505207	114.000000
1087.631785	89.900000
1089.754025	96.250000
1091.877670	117.900000
1093.996980	101.150000
1096.121519	97.400000
1098.239814	98.700000
1100.359512	108.300000
1102.476793	91.150000
1104.593566	92.150000
1106.709833	92.750000
1108.823685	87.150000
1110.938940	100.650000
1113.049873	103.950000
1115.164118	94.350000
1117.274042	91.900000
1119.385370	99.250000
1121.496193	102.150000
1123.602700	101.200000
1125.712516	84.050000
1127.818019	94.000000
1129.924924	76.450000
1132.025614	93.550000
1134.131516	95.150000
1136.233109	102.300000
1138.336105	86.450000
1140.438600	91.100000
1142.534888	85.400000
1144.636383	95.550000
1146.733576	95.000000
1148.830271	95.400000
1150.926467	85.500000
1153.022165	88.500000
1155.117366	85.450000
1157.210170	84.550000
1159.304376	81.750000
1161.392391	96.050000
1163.485604	83.100000
1165.572630	82.950000
1167.662954	87.150000
1169.748990	99.950000
1171.838324	85.850000
1173.921477	81.000000
1176.006033	89.000000
1178.091990	75.450000
1180.173665	77.500000
1182.256741	84.200000
1184.337432	85.250000
1186.417632	89.600000
1188.497340	72.450000
1190.576557	92.050000
1192.653391	72.450000
1194.727845	83.450000
1196.805591	75.800000
1198.879066	84.750000
1200.953943	69.800000
1203.024552	88.300000
1205.096562	84.000000
1207.166196	72.250000
1209.237231	81.500000
1211.307779	83.950000
1213.374065	71.650000
1215.441752	86.100000
1217.507066	63.350000
1219.573781	80.400000
1221.636241	80.600000
1223.701985	75.850000
1225.763475	75.750000
1227.826366	76.250000
1229.886888	69.650000
1231.946928	92.750000
1234.006484	75.600000
1236.063676	75.350000
1238.120385	80.900000
1240.174732	88.450000
1242.232360	76.800000
1244.287624	77.150000
1246.338649	78.900000
1248.391073	79.050000
1250.443017	74.900000
1252.492603	72.600000
1254.541710	75.450000
1256.590338	82.400000
1258.638488	79.550000
1260.686160	74.450000
1262.729601	72.150000
1264.776318	79.800000
1266.820681	71.450000
1268.864568	74.550000
1270.906103	65.300000
1272.945289	82.200000
1274.987748	62.150000
1277.025984	73.450000
1279.065619	74.500000
1281.104778	78.450000
1283.139720	71.000000
1285.176060	66.100000
1287.210056	71.100000
1289.245449	71.900000
1291.276629	58.500000
1293.309208	82.300000
1295.341315	76.900000
1297.371081	69.650000
1299.402244	74.050000
1301.429200	66.550000
1303.457555	75.100000
1305.481704	67.650000
1307.509119	68.500000
1309.532331	60.400000
1311.556941	74.350000
1313.579216	78.950000
1315.602889	72.450000
1317.624229	68.000000
1319.645102	81.050000
1321.665507	68.100000
1323.681719	78.150000
1325.699328	71.250000
1327.714609	75.700000
1329.733149	74.450000
1331.747499	58.500000
1333.759524	59.250000
1335.774807	75.150000
1337.785904	75.450000
1339.798397	61.650000
1341.806708	75.800000
1343.818275	59.700000
1345.823803	68.800000
1347.832586	62.800000
1349.837191	72.250000
1351.845050	56.700000
1353.852447	73.950000
1355.853813	63.050000
1357.856575	81.700000
1359.858878	68.900000
1361.860721	66.100000
1363.862104	66.050000
1365.861173	65.500000
1367.859785	66.400000
1369.857937	65.150000
1371.855632	82.150000
1373.849164	84.450000
1375.844091	61.700000
1377.838562	73.200000
1379.832576	74.850000
1381.824283	71.000000
1383.815534	71.650000
1385.804480	65.500000
1387.794821	67.500000
1389.784708	75.600000
1391.772290	75.950000
1393.759419	72.600000
1395.744246	76.850000
1397.730468	74.100000
1399.714389	71.250000
1401.697858	79.550000
1403.680875	64.200000
1405.661594	65.500000
1407.643707	71.500000
1409.623523	67.150000
1411.602889	58.750000
1413.578116	56.750000
1415.556581	77.600000
1417.532753	78.200000
1419.508475	74.900000
1421.483749	73.200000
1423.456731	78.150000
1425.429265	64.250000
1427.401351	67.200000
1429.372990	81.300000
1431.340500	70.850000
1433.313084	70.900000
1435.277862	67.400000
1437.247713	87.350000
1439.213439	78.600000
1441.180559	75.700000
1443.145395	78.200000
1445.106111	65.350000
1447.071895	61.950000
1449.031724	83.100000
1450.992947	72.400000
1452.955561	68.500000
1454.914061	71.300000
1456.872119	67.800000
1458.829735	77.000000
1460.786908	64.700000
1462.741806	74.600000
1464.698097	58.250000
1466.652113	67.900000
1468.605688	71.700000
1470.556991	73.150000
1472.509686	71.500000
1474.460110	78.950000
1476.410095	69.250000
1478.359641	68.950000
1480.306918	70.450000
1482.251927	62.250000
1484.198329	78.250000
1486.144293	71.600000
1488.089820	74.000000
1490.033081	68.300000
1491.975906	73.650000
1493.916468	61.900000
1495.858422	66.200000
1497.798113	66.750000
1499.737369	62.850000
1501.676191	65.250000
1503.612753	66.450000
1505.550706	79.450000
1507.486400	76.700000
1509.421661	72.350000
1511.354665	72.750000
1513.287237	60.150000
1515.219377	66.550000
1517.151085	66.600000
1519.080540	63.450000
1521.011385	64.100000
1522.941798	64.950000
1524.868139	59.150000
1526.795870	71.550000
1528.721352	60.300000
1530.646404	72.400000
1532.571027	72.100000
1534.495220	77.400000
1536.417167	61.050000
1538.340504	68.450000
1540.261594	57.650000
1542.180440	55.400000
1544.100676	60.400000
1546.018668	75.650000
1547.936234	64.150000
1549.851559	69.400000
1551.768273	71.450000
1553.680932	83.150000
1555.596794	68.900000
1557.510418	79.650000
1559.421803	71.300000
1561.334578	55.850000
1563.243303	57.400000
1565.153417	71.300000
1567.063108	60.350000
1568.972376	71.800000
1570.879409	62.900000
1572.784210	66.900000
1574.690400	61.700000
1576.594359	74.450000
1578.497896	73.100000
1580.401013	70.000000
1582.301900	71.900000
1584.204176	71.600000
1586.104223	74.800000
1588.005659	79.750000
1589.903061	70.000000
1591.800044	74.250000
1593.696609	65.050000
1595.594561	83.150000
1597.486679	62.250000
1599.381991	77.750000
1601.276885	63.200000
1603.169557	65.200000
1605.061812	63.600000
1606.951848	84.050000
1608.841468	58.050000
1610.730673	62.350000
1612.619462	66.550000
1614.506035	60.300000
1616.393995	66.650000
1618.277938	67.200000
1620.163268	63.050000
1622.048185	68.150000
1623.930888	63.600000
1625.814978	73.750000
1627.695056	67.150000
1629.576522	68.200000
1631.455776	65.050000
1633.336418	65.600000
1635.211255	70.150000
1637.091073	86.100000
1638.966887	66.150000
1640.842290	68.850000
1642.719079	69.700000
1644.590071	73.900000
1646.464246	70.500000
1648.334421	64.600000
1650.207777	62.100000
1652.078930	74.800000
1653.947881	70.950000
1655.818218	68.800000
1657.684562	53.950000
1659.552291	79.700000
1661.417821	65.200000
1663.284737	62.050000
1665.147663	63.150000
1667.011976	73.550000
1668.874092	71.250000
1670.735803	67.350000
1672.598899	56.450000
1674.459801	72.200000
1676.318510	55.500000
1678.176815	69.100000
1680.036504	52.600000
1681.890427	60.050000
1683.747523	66.850000
1685.604215	68.400000
1687.456932	68.400000
1689.312820	61.250000
1691.164734	63.650000
1693.016247	63.150000
1694.867359	54.800000
1696.718070	75.350000
1698.568381	65.500000
1700.416508	57.700000
1702.266019	67.150000
1704.109780	56.950000
1705.958492	56.800000
1707.801457	56.900000
1709.647588	69.150000
1711.489758	73.850000
1713.335093	65.150000
1715.174687	71.800000
1717.015665	65.900000
1718.858026	64.300000
1720.696430	52.050000
1722.536218	79.000000
1724.373831	71.900000
1726.211049	82.350000
1728.046093	60.500000
1729.882520	66.450000
1731.716774	77.900000
1733.550635	67.900000
1735.384101	58.700000
1737.213621	57.950000
1739.046301	69.200000
1740.875035	72.650000
1742.706928	56.650000
1744.534878	62.100000
1746.362436	66.250000
1748.189603	58.300000
1750.016378	59.250000
1751.842761	62.200000
1753.665208	66.700000
1755.490810	67.200000
1757.312477	70.800000
1759.135525	68.900000
1760.956413	53.400000
1762.776912	71.250000
1764.598791	68.250000
1766.414971	70.450000
1768.234303	66.050000
1770.049708	71.200000
1771.868264	60.100000
1773.682894	68.050000
1775.497137	60.200000
1777.310994	61.200000
1779.124464	56.550000
1780.935780	50.700000
1782.748478	59.450000
1784.560790	53.750000
1786.369183	69.750000
1788.178958	72.700000
1789.984818	62.500000
1791.793823	57.000000
1793.598915	61.150000
1795.405388	66.700000
1797.211476	58.050000
1799.013655	62.750000
1800.818978	60.250000
1802.620391	69.400000
1804.423186	54.700000
1806.222074	68.100000
1808.022343	60.150000
1809.822230	62.000000
1811.619975	61.700000
1813.417340	66.250000
1815.214324	65.050000
1817.010929	65.350000
1818.805393	47.550000
1820.601238	64.050000
1822.391427	68.100000
1824.186513	55.150000
1825.975946	68.800000
1827.768517	69.300000
1829.558952	53.300000
1831.347252	60.900000
1833.138688	57.500000
1834.924479	76.450000
1836.711649	57.200000
1838.496687	71.450000
1840.284858	60.000000
1842.069145	70.700000
1843.851301	64.900000
1845.634837	62.600000
1847.416244	53.200000
1849.199029	59.950000
1850.977935	62.150000
1852.758219	65.250000
1854.536378	49.300000
1856.315914	57.800000
1858.093326	43.650000
1859.868615	68.550000
1861.645281	65.400000
1863.419825	73.450000
1865.195746	72.400000
1866.966048	53.850000
1868.739477	56.600000
1870.510786	60.050000
1872.281724	58.150000
1874.054040	61.100000
1875.820742	57.050000
1877.590569	58.900000
1879.356533	64.600000
1881.125621	60.850000
1882.890847	54.600000
1884.655705	52.350000
1886.421939	67.550000
1888.184316	60.500000
1889.946324	62.700000
1891.707966	65.700000
1893.469240	59.300000
1895.230148	57.300000
1896.990688	63.650000
1898.749120	69.700000
1900.507185	56.950000
1902.263143	58.350000
1904.020477	52.000000
1905.777446	69.500000
1907.532308	57.700000
1909.285066	71.700000
1911.037459	59.050000
1912.791229	59.250000
1914.542895	57.750000
1916.292458	61.700000
1918.043398	51.950000
1919.793974	61.550000
1921.540712	52.850000
1923.288825	58.700000
1925.034840	57.350000
1926.782229	68.350000
1928.527520	67.000000
1930.270715	61.000000
1932.015284	53.550000
1933.757757	60.650000
1935.499871	55.200000
1937.241624	66.450000
1938.983017	55.000000
1940.722317	66.050000
1942.461258	64.550000
1944.199840	67.800000
1945.936331	71.000000
1947.672463	63.350000
1949.409971	55.700000
1951.143656	66.900000
1952.878716	63.500000
1954.611687	62.600000
1956.344302	60.650000
1958.076560	62.650000
1959.808462	62.600000
1961.538279	67.300000
1963.266010	53.550000
1964.995116	62.850000
1966.723866	61.250000
1968.450533	52.100000
1970.176846	66.550000
1971.904533	50.900000
1973.626683	55.450000
1975.351934	49.850000
1977.073378	73.900000
1978.797922	65.200000
1980.520387	55.150000
1982.239048	49.350000
1983.960809	57.400000
1985.678767	63.550000
1987.398098	58.950000
1989.113630	62.650000
1990.833982	66.300000
1992.550536	55.950000
1994.263293	59.500000
1995.979146	62.600000
1997.692927	59.550000
1999.406358	65.300000
2001.117718	56.050000
2002.830450	60.100000
2004.539392	61.000000
2006.251426	65.300000
2007.957951	58.450000
2009.667569	57.900000
2011.375119	56.400000
2013.082322	66.450000
2014.787459	55.850000
2016.492250	66.100000
2018.198412	70.350000
2019.900791	76.000000
2021.604543	46.650000
2023.306232	63.050000
2025.007575	51.450000
2026.708574	68.500000
2028.407511	49.800000
2030.107820	72.450000
2031.804353	56.400000
2033.502258	60.050000
2035.198105	57.950000
2036.897037	54.650000
2038.590483	48.500000
2040.285300	63.100000
2041.979774	56.050000
2043.670481	64.800000
2045.364270	60.400000
2047.054294	68.050000
2048.745688	58.250000
2050.435028	53.350000
2052.125740	62.000000
2053.812688	60.650000
2055.499296	47.950000
2057.187275	56.900000
2058.871494	56.200000
2060.557083	61.650000
2062.242333	64.400000
2063.925535	69.700000
2065.610107	59.100000
2067.289215	56.950000
2068.973110	58.350000
2070.651543	71.900000
2072.333054	49.150000
2074.010813	65.100000
2075.688236	61.000000
2077.367028	56.900000
2079.043777	55.150000
2080.718485	63.950000
2082.394563	54.450000
2084.068599	59.650000
2085.742301	53.100000
2087.415667	49.200000
2089.086994	56.200000
2090.757987	51.350000
2092.428646	51.650000
2094.098971	69.550000
2095.768962	54.600000
2097.436917	76.350000
2099.104538	63.750000
2100.770126	70.850000
2102.437082	62.500000
2104.102005	60.900000
2105.766596	66.000000
2107.429155	54.450000
2109.093082	57.450000
2110.754978	53.100000
2112.416544	60.450000
2114.077778	67.200000
2115.736983	49.000000
2117.395859	70.900000
2119.054405	56.600000
2120.712620	60.950000
2122.367113	61.100000
2124.024670	69.300000
2125.681897	51.100000
2127.335404	50.100000
2128.990278	58.300000
2130.641433	54.000000
2132.295651	55.700000
2133.946151	65.650000
2135.598019	66.150000
2137.244478	56.500000
2138.895691	61.800000
2140.543192	58.700000
2142.192059	50.900000
2143.838907	61.400000
2145.485430	59.200000
2147.131627	48.550000
2148.774116	59.050000
2150.419662	65.800000
2152.061502	51.650000
2153.706399	63.900000
2155.347591	66.050000
2156.988459	58.500000
2158.629004	55.150000
2160.267536	58.050000
2161.907434	59.100000
2163.543632	60.050000
2165.181196	56.950000
2166.818438	55.650000
2168.453670	52.550000
2170.088580	65.600000
2171.723169	57.800000
2173.357437	61.450000
2174.988011	49.400000
2176.621637	45.500000
2178.251571	67.550000
2179.882870	68.750000
2181.512164	52.150000
2183.141139	67.000000
2184.769794	47.500000
2186.398130	62.350000
2188.024463	56.550000
2189.650478	65.100000
2191.274492	58.000000
2192.899871	53.100000
2194.523249	58.800000
2196.147992	70.550000
2197.769054	47.350000
2199.389799	58.950000
2201.011908	60.850000
2202.632020	60.500000
2204.250136	66.850000
2205.867936	56.500000
2207.485420	60.900000
2209.102590	66.450000
2210.719443	56.750000
2212.335982	59.250000
2213.950528	57.750000
2215.563081	53.700000
2217.176998	57.800000
2218.788924	61.900000
2220.402213	54.000000
2222.013512	44.450000
2223.622821	59.500000
2225.233493	51.450000
2226.842177	58.800000
2228.450549	46.500000
2230.056934	48.750000
2231.664681	62.200000
2233.270443	44.300000
2234.875893	70.300000
2236.479358	52.550000
2238.084186	46.000000
2239.687030	60.850000
2241.287891	57.800000
2242.890115	53.550000
2244.490357	55.150000
2246.091961	50.400000
2247.689912	48.400000
2249.289226	57.450000
2250.886560	62.600000
2252.483586	53.900000
2254.081973	57.500000
2255.676713	54.750000
2257.269475	49.600000
2258.863600	57.350000
2260.459086	65.900000
2262.050927	54.200000
2263.642462	59.450000
2265.235359	40.950000
2266.822946	63.450000
2268.415229	47.250000
2270.002205	53.100000
2271.592210	65.300000
2273.176910	59.550000
2274.766304	51.800000
2276.350395	65.400000
2277.935848	63.900000
2279.519332	57.950000
2281.105841	49.650000
2282.688717	62.500000
2284.271290	61.650000
2285.853559	49.250000
2287.432198	48.450000
2289.013862	73.200000
2290.591897	53.600000
2292.172955	71.850000
2293.750386	65.325000
2295.325854	58.800000
2296.904344	56.750000
2298.479210	43.150000
2300.053775	60.300000
2301.628039	59.700000
2303.202003	53.550000
2304.775667	67.900000
2306.349031	51.100000
2307.918776	52.250000
2309.488222	44.950000
2311.060686	47.850000
2312.627876	55.200000
2314.198083	49.300000
2315.764677	43.200000
2317.332629	61.850000
2318.898627	59.550000
2320.464327	56.850000
2322.029729	50.400000
2323.593178	73.600000
2325.157986	54.800000
2326.719186	59.150000
2328.283399	53.250000
2329.842352	73.850000
2331.404318	55.550000
2332.964334	47.400000
2334.524054	49.550000
2336.081826	54.000000
2337.639302	55.450000
2339.196484	51.650000
2340.751718	49.150000
2342.306659	48.850000
2343.861305	47.800000
2345.415658	52.000000
2346.969717	56.600000
2348.523483	62.800000
2350.075304	42.500000
2351.625182	50.600000
2353.178069	45.800000
2354.725712	54.100000
2356.276364	47.400000
2357.823424	56.300000
2359.371842	56.700000
2360.919969	60.100000
2362.464507	49.200000
2364.010403	44.200000
2365.554361	45.950000
2367.099675	51.300000
2368.641405	55.250000
2370.184493	54.800000
2371.725644	58.800000
2373.266506	60.450000
2374.807079	46.900000
2376.347363	52.550000
2377.887358	49.200000
2379.423774	53.800000
2380.963192	49.900000
2382.499033	60.550000
2384.036231	50.150000
2385.569853	53.350000
2387.106475	43.250000
2388.641167	58.650000
2390.173929	63.350000
2391.706404	54.850000
2393.236951	56.150000
2394.770496	57.950000
2396.298830	49.650000
2397.828520	61.250000
2399.357925	49.500000
2400.887045	56.250000
2402.415879	47.200000
2403.939509	52.100000
2405.467774	46.350000
2406.990837	52.050000
2408.518533	56.050000
2410.039390	58.500000
2411.564879	46.200000
2413.086809	49.950000
2414.610093	58.700000
2416.131457	49.500000
2417.650901	53.700000
2419.171700	56.900000
2420.690580	47.350000
2422.209179	49.150000
2423.725859	46.050000
2425.243895	47.950000
2426.761649	43.850000
2428.275851	61.250000
2429.789774	41.950000
2431.303416	58.950000
2432.818412	46.500000
2434.329861	42.250000
2435.842663	43.400000
2437.353553	56.450000
2438.864164	42.850000
2440.372863	58.900000
2441.884548	46.700000
2443.392690	50.000000
2444.900554	50.700000
2446.408139	45.950000
2447.912185	50.150000
2449.419215	55.950000
2450.924337	47.500000
2452.429182	57.550000
2453.932120	48.800000
2455.434782	53.500000
2456.937167	45.600000
2458.437647	41.950000
2459.939480	43.050000
2461.439408	50.950000
2462.939061	46.650000
2464.438439	43.150000
2465.935914	46.200000
2467.431487	58.950000
2468.930040	60.900000
2470.425065	46.600000
2471.921442	38.950000
2473.414293	47.150000
2474.908497	42.700000
2476.402427	57.900000
2477.892833	51.150000
2479.386217	52.500000
2480.877703	52.600000
2482.367292	59.400000
2483.856609	52.500000
2485.344030	46.250000
2486.834427	42.600000
2488.321306	60.350000
2489.809536	53.800000
2491.294249	45.800000
2492.778692	38.800000
2494.264487	52.200000
2495.748390	41.750000
2497.233643	59.150000
2498.713763	39.200000
2500.196856	48.850000
2501.678058	50.100000
2503.158991	53.750000
2504.638035	58.050000
2506.116810	45.800000
2507.595317	42.250000
2509.073555	56.900000
2510.551526	52.550000
2512.025991	53.650000
2513.503426	40.850000
2514.977356	55.800000
2516.452638	44.350000
2517.927652	58.500000
2519.399165	55.550000
2520.872029	54.400000
2522.343010	54.200000
2523.815341	40.650000
2525.282558	50.200000
2526.752742	50.150000
2528.221045	38.700000
2529.689083	49.800000
2531.156855	49.750000
2532.624363	55.650000
2534.091607	38.600000
2535.555358	45.800000
2537.020459	38.250000
2538.483683	60.650000
2539.948256	39.750000
2541.409341	63.900000
2542.871775	64.300000
2544.333946	47.950000
2545.792630	51.300000
2547.255887	45.700000
2548.714047	41.150000
2550.173557	58.900000
2551.627972	58.100000
2553.086958	52.700000
2554.544072	44.350000
2555.999314	48.250000
2557.454296	47.550000
2558.907408	48.400000
2560.361869	41.000000
2561.814461	48.250000
2563.266793	54.450000
2564.717257	48.700000
2566.170678	58.350000
2567.619016	54.100000
2569.070309	49.850000
2570.519737	48.900000
2571.965692	50.400000
2573.414602	38.400000
2574.860042	42.400000
2576.306829	59.250000
2577.751753	52.950000
2579.196420	44.050000
2580.642434	54.650000
2582.084982	45.850000
2583.528876	46.150000
2584.969306	54.000000
2586.411084	40.300000
2587.851002	51.400000
2589.292267	44.100000
2590.730070	49.500000
2592.170823	44.600000
2593.606514	61.050000
2595.045153	42.400000
2596.481936	52.050000
2597.916863	51.150000
2599.354737	47.700000
2600.787554	54.200000
2602.221718	43.200000
2603.654028	37.850000
2605.087684	47.200000
2606.519487	42.950000
2607.951036	54.100000
2609.382332	41.400000
2610.811777	44.100000
2612.240969	33.150000
2613.668310	51.650000
2615.096998	58.550000
2616.525433	43.300000
2617.950422	51.700000
2619.376756	44.100000
2620.801243	51.550000
2622.227075	52.650000
2623.649463	37.450000
2625.073196	51.900000
2626.495084	37.550000
2627.916721	55.300000
2629.336514	40.450000
2630.757652	45.350000
2632.178540	45.800000
2633.595989	42.500000
2635.016378	42.200000
2636.433330	47.650000
2637.850034	41.400000
2639.266489	53.300000
2640.682696	50.750000
2642.098655	58.500000
2643.512773	39.200000
2644.926643	61.800000
2646.338674	47.400000
2647.752050	30.700000
2649.161996	55.600000
2650.574878	52.000000
2651.984331	48.000000
2653.393538	44.300000
2654.800909	30.000000
2656.211214	38.200000
2657.619683	43.450000
2659.026318	49.900000
2660.432707	37.700000
2661.837262	45.650000
2663.243161	36.150000
2664.647227	42.800000
2666.051048	41.900000
2667.454625	40.200000
2668.856371	50.950000
2670.259460	42.650000
2671.659131	43.650000
2673.060146	54.050000
2674.457745	46.850000
2675.858273	50.100000
2677.255387	51.250000
2678.653844	47.450000
2680.050474	45.150000
2681.446861	53.850000
2682.843006	43.350000
2684.237325	58.250000
2685.632987	55.850000
2687.025240	41.950000
2688.418835	32.700000
2689.810606	42.750000
2691.203720	38.650000
2692.595010	40.150000
2693.984477	32.300000
2695.373704	44.350000
2696.762692	38.300000
2698.153021	43.400000
2699.538367	46.300000
2700.926636	58.100000
2702.313085	41.100000
2703.699295	53.050000
2705.085266	45.750000
2706.467839	36.400000
2707.851754	54.350000
2709.235430	46.950000
2710.618869	56.600000
2711.998912	43.350000
2713.380297	46.150000
2714.759867	39.150000
2716.140777	42.850000
2717.519873	47.150000
2718.897155	34.200000
2720.275778	38.650000
2721.652587	41.150000
2723.029161	35.400000
2724.405499	39.500000
2725.780025	49.550000
2727.155892	41.600000
2728.528373	35.950000
2729.903769	50.200000
2731.274205	44.550000
2732.645981	49.450000
2734.017524	46.700000
2735.387258	38.200000
2736.758332	54.550000
2738.127599	39.450000
2739.496632	44.050000
2740.863859	39.250000
2742.230852	33.850000
2743.597613	48.950000
2744.964141	50.400000
2746.328865	39.450000
2747.693356	43.550000
2749.057616	39.500000
2750.421643	44.950000
2751.785438	37.650000
2753.145861	50.250000
2754.509193	42.000000
2755.867583	52.350000
2757.228883	36.050000
2758.586813	50.700000
2759.947651	39.500000
2761.306689	52.700000
2762.662360	40.850000
2764.020938	52.050000
2765.376149	52.500000
2766.731131	51.950000
2768.084316	43.500000
2769.440408	39.200000
2770.793136	40.350000
2772.145636	37.650000
2773.497907	39.950000
2774.851516	38.200000
2776.201765	45.850000
2777.550219	44.750000
2778.901578	43.850000
2780.249579	50.450000
2781.598917	28.650000
2782.946463	38.900000
2784.293783	40.800000
2785.640875	43.850000
2786.986177	47.850000
2788.331253	42.050000
2789.676103	37.900000
2791.020727	43.400000
2792.361999	42.100000
2793.704608	35.900000
2795.046993	45.350000
2796.389152	54.850000
2797.727962	39.900000
2799.069672	38.450000
2800.408033	29.150000
2801.747732	47.200000
2803.085646	40.800000
2804.421774	47.600000
2805.757680	46.850000
2807.094923	41.450000
2808.430382	33.300000
2809.765617	41.850000
2811.099071	42.950000
2812.433861	33.000000
2813.765311	26.100000
2815.099656	47.650000
2816.429102	51.000000
2817.759886	35.500000
2819.090449	34.000000
2820.419232	50.500000
2821.749351	38.500000
2823.077692	54.650000
2824.405812	38.600000
2825.732154	43.600000
2827.059832	41.550000
2828.384178	44.650000
2829.709860	39.250000
2831.033766	48.050000
2832.357452	47.800000
2833.682474	43.300000
2835.004167	31.100000
2836.325641	41.500000
2837.646895	41.350000
2838.967932	33.550000
2840.287195	32.250000
2841.607794	44.750000
2842.926621	43.900000
2844.245231	43.350000
2845.562069	44.350000
2846.878690	39.350000
2848.195094	28.700000
2849.509728	49.550000
2850.825697	45.050000
2852.138347	44.700000
2853.452331	37.250000
2854.766099	57.150000
2856.079650	45.750000
2857.391435	42.400000
2858.701453	31.800000
2860.012806	34.850000
2861.320844	38.300000
2862.630216	49.000000
2863.939373	31.900000
2865.248316	56.750000
2866.555494	35.600000
2867.860910	42.800000
2869.167659	41.200000
2870.472647	39.650000
2871.777420	35.200000
2873.080433	39.050000
2874.386326	39.350000
2875.687365	42.300000
2876.989737	38.900000
2878.290351	37.150000
2879.592297	38.350000
2880.894031	45.550000
2882.192461	22.650000
2883.492224	41.950000
2884.790230	34.000000
2886.088024	42.900000
2887.384062	37.300000
2888.681432	49.150000
2889.977048	38.550000
2891.272452	45.350000
2892.567645	39.100000
2893.859541	29.600000
2895.154312	37.650000
2896.445788	26.850000
2897.738596	46.600000
2899.031194	41.400000
2900.320497	45.550000
2901.611134	45.200000
2902.900019	43.950000
2904.190236	41.950000
2905.477162	42.000000
2906.765420	46.850000
2908.051929	47.100000
2909.338229	35.800000
2910.624321	38.850000
2911.908665	38.150000
2913.195881	27.300000
2914.478270	51.200000
2915.761991	35.300000
2917.043965	44.000000
2918.325733	22.800000
2919.605755	43.300000
2920.888648	28.000000
2922.169794	38.100000
2923.447659	37.350000
2924.728393	35.400000
2926.005847	37.550000
2927.283094	35.800000
2928.558599	33.350000
2929.836972	43.450000
2931.110531	19.400000
2932.386957	54.950000
2933.661642	46.450000
2934.934586	52.850000
2936.208862	37.400000
2937.481398	45.450000
2938.753729	39.950000
2940.022788	39.500000
2941.294712	22.650000
2942.564898	43.300000
2943.834880	27.500000
2945.104659	33.950000
2946.372702	44.450000
2947.639008	39.150000
2948.905112	25.250000
2950.172547	30.850000
2951.438246	24.300000
2952.703744	39.150000
2953.969039	32.400000
2955.231069	44.900000
2956.494429	26.800000
2957.757588	53.250000
2959.019015	35.250000
2960.281771	39.450000
2961.542795	37.450000
2962.802089	50.800000
2964.061182	36.700000
2965.320076	39.750000
2966.578769	30.450000
2967.837261	29.950000
2969.094025	27.150000
2970.350590	43.200000
2971.605426	24.250000
2972.861592	30.950000
2974.114503	33.900000
2975.368742	41.000000
2976.622783	35.250000
2977.875098	47.850000
2979.127215	35.100000
2980.377607	44.350000
2981.630854	36.100000
2982.879324	43.950000
2984.130649	22.600000
2985.378724	39.300000
2986.626602	29.000000
2987.874284	40.800000
2989.121768	27.050000
2990.367531	42.900000
2991.613098	39.600000
2992.859992	32.950000
2994.103642	26.900000
2995.348619	41.300000
2996.590354	29.850000
2997.834940	46.200000
2999.077807	30.650000
3000.317433	38.650000
3001.559909	28.850000
3002.799145	36.700000
3004.039709	39.450000
3005.278556	38.400000
3006.517209	39.250000
3007.754146	37.950000
3008.992411	30.200000
3010.228960	41.200000
3011.465316	30.000000
3012.701478	41.450000
3013.935926	40.300000
3015.170181	35.850000
3016.404244	36.500000
3017.636593	30.450000
3018.867231	28.350000
3020.100715	31.150000
3021.332488	28.150000
3022.562549	45.350000
3023.792419	31.650000
3025.020579	57.550000
3026.250066	32.800000
3027.477843	38.450000
3028.705429	43.400000
3029.934341	40.700000
3031.158511	27.350000
3032.385524	31.900000
3033.609314	29.000000
3034.834429	36.850000
3036.057839	23.950000
3037.281058	31.900000
3038.502572	37.300000
3039.726927	35.500000
3040.946547	21.850000
3042.167493	33.400000
3043.388249	29.100000
3044.607303	42.000000
3045.827681	27.650000
3047.044843	39.300000
3048.263330	30.050000
3049.480116	40.650000
3050.696713	24.550000
3051.913123	43.950000
3053.126319	24.700000
3054.342353	39.350000
3055.555175	38.500000
3056.770834	36.550000
3057.981771	21.950000
3059.194032	52.150000
3060.406106	32.550000
3061.617994	41.450000
3062.828185	37.600000
3064.038189	36.850000
3065.248007	32.800000
3066.456129	44.700000
3067.664066	26.400000
3068.870307	33.250000
3070.077873	31.750000
3071.283744	33.625000
3072.489430	35.500000
3073.694932	35.850000
3074.898740	34.700000
3076.103872	35.850000
3077.307311	34.000000
3078.509059	50.250000
3079.710622	39.600000
3080.912002	26.350000
3082.113198	39.700000
3083.312704	40.800000
3084.512027	31.350000
3085.712673	35.600000
3086.911629	39.850000
3088.107391	35.150000
3089.305981	26.300000
3090.501378	32.650000
3091.698099	33.500000
3092.891627	37.250000
3094.087983	18.900000
3095.282652	27.400000
3096.474131	28.500000
3097.669942	41.950000
3098.861058	28.100000
3100.053498	36.750000
3101.242749	44.850000
3102.434827	26.200000
3103.625221	33.300000
3104.812429	39.700000
3106.000959	30.500000
3107.190812	29.900000
3108.377480	31.000000
3109.563969	36.250000
3110.750279	22.450000
3111.937910	28.850000
3113.122359	11.600000
3114.305129	37.950000
3115.490721	32.050000
3116.674634	40.250000
3117.856867	42.200000
3119.038923	35.600000
3120.220800	37.200000
3121.402499	26.750000
3122.582521	28.200000
3123.760866	42.300000
3124.942031	27.650000
3126.120021	42.500000
3127.297834	29.850000
3128.475470	29.450000
3129.651431	36.600000
3130.827216	26.300000
3132.004321	38.950000
3133.179753	32.550000
3134.353511	32.550000
3135.525596	32.100000
3136.699003	40.800000
3137.872233	34.600000
3139.043792	33.000000
3140.216671	34.350000
3141.386383	20.850000
3142.557416	37.700000
3143.726778	31.500000
3144.894471	25.800000
3146.064979	32.400000
3147.230829	35.400000
3148.400987	24.350000
3149.566488	27.050000
3150.731816	30.050000
3151.896970	35.150000
3153.061951	31.200000
3154.228251	29.250000
3155.389898	29.350000
3156.552866	31.900000
3157.715661	12.750000
3158.878283	32.800000
3160.039239	19.300000
3161.200024	36.300000
3162.360636	23.800000
3163.519584	32.500000
3164.678361	21.550000
3165.836965	25.400000
3166.995398	22.300000
3168.153660	24.150000
3169.310259	20.200000
3170.465197	27.600000
3171.621454	21.250000
3172.776050	30.350000
3173.930476	27.300000
3175.083242	27.300000
3176.235837	30.200000
3177.388263	39.550000
3178.540518	28.100000
3179.692604	28.150000
3180.841543	31.450000
3181.993289	24.550000
3183.143378	25.550000
3184.291810	32.100000
3185.440072	18.350000
3186.588166	37.500000
3187.736091	21.150000
3188.882360	48.650000
3190.028461	37.900000
3191.172908	19.250000
3192.317187	29.450000
3193.461297	22.850000
3194.606726	23.650000
3195.749016	25.750000
3196.891139	32.450000
3198.033094	36.500000
3199.174882	36.850000
3200.316503	41.800000
3201.454989	14.200000
3202.594792	22.300000
3203.735912	33.450000
3204.873899	37.600000
3206.010235	18.050000
3207.146407	30.500000
3208.283895	29.650000
3209.419735	35.500000
3210.556892	21.950000
3211.689436	29.600000
3212.826261	21.500000
3213.958476	34.050000
3215.092007	28.850000
3216.225373	28.050000
3217.355613	29.550000
3218.488650	32.300000
3219.618561	21.050000
3220.749788	32.050000
3221.877891	19.950000
3223.008790	36.100000
3224.138045	28.150000
3225.265657	25.300000
3226.390146	42.050000
3227.518911	37.800000
3228.644554	40.100000
3229.770034	27.450000
3230.893873	19.300000
3232.020507	36.200000
3233.142543	19.300000
3234.265895	38.500000
3235.389085	19.700000
3236.512112	28.400000
3237.633501	32.050000
3238.754727	32.750000
3239.874315	29.800000
3240.993742	27.600000
3242.111532	21.250000
3243.232113	32.400000
3244.349581	28.850000
3245.466888	18.050000
3246.584035	20.900000
3247.699545	31.200000
3248.816371	21.650000
3249.930087	32.400000
3251.046592	35.100000
3252.161462	14.400000
3253.273224	21.150000
3254.384827	15.250000
3255.497745	28.350000
3256.610503	31.550000
3257.720155	32.400000
3258.831122	31.950000
3259.941930	19.950000
3261.051106	37.050000
3262.158651	34.800000
3263.267511	33.100000
3264.376212	35.250000
3265.481811	27.500000
3266.588725	37.150000
3267.694009	34.550000
3268.800607	37.900000
3269.904105	26.150000
3271.008917	19.450000
3272.113572	32.500000
3273.215129	21.650000
3274.316529	31.550000
3275.419243	27.850000
3276.521801	22.000000
3277.621262	22.900000
3278.723507	27.100000
3279.822656	30.000000
3280.920180	25.550000
3282.017550	35.600000
3283.117701	35.150000
3284.214760	22.750000
3285.311663	25.700000
3286.408411	25.500000
3287.500600	34.500000
3288.597039	18.450000
3289.691855	24.850000
3290.786517	25.000000
3291.879556	25.650000
3292.972442	16.650000
3294.063707	30.550000
3295.156285	28.250000
3296.247243	29.250000
3297.336581	24.550000
3298.425766	19.350000
3299.516263	31.000000
3300.603677	22.400000
3301.690937	24.300000
3302.779510	29.800000
3303.867930	13.150000
3304.951804	20.000000
3306.039919	27.550000
3307.124952	38.200000
3308.208370	18.750000
3309.293100	18.250000
3310.376214	19.800000
3311.460641	32.800000
3312.541989	16.500000
3313.624649	25.100000
3314.705694	20.850000
3315.786589	20.850000
3316.865871	29.650000
3317.945002	39.400000
3319.025445	30.850000
3320.102813	36.350000
3321.181493	30.350000
3322.258561	30.950000
3323.335479	42.400000
3324.410787	36.100000
3325.485945	18.800000
3326.562414	28.650000
3327.635813	24.000000
3328.709062	25.250000
3329.783623	19.400000
3330.856575	32.100000
3331.927918	17.700000
3333.000572	27.150000
3334.070159	31.850000
3335.141058	36.200000
3336.210349	25.300000
3337.280950	22.350000
3338.349946	26.100000
3339.417335	31.100000
3340.483119	17.600000
3341.553129	19.800000
3342.620076	18.050000
3343.683961	38.650000
3344.750613	21.300000
3345.815662	35.950000
3346.879107	19.300000
3347.942406	23.900000
3349.005558	14.500000
3350.068564	17.300000
3351.131424	21.750000
3352.192681	30.600000
3353.250882	23.300000
3354.313304	14.650000
3355.372670	28.600000
3356.431890	33.800000
3357.492419	22.700000
3358.548440	16.050000
3359.607224	17.500000
3360.661501	33.650000
3361.718542	23.150000
3362.773984	31.250000
3363.830736	25.300000
3364.885889	32.250000
3365.939445	28.900000
3366.991404	29.400000
3368.046126	24.750000
3369.097798	17.150000
3370.149327	17.800000
3371.202164	29.250000
3372.251954	25.000000
3373.303053	32.750000
3374.351105	20.800000
3375.401918	27.650000
3376.449685	25.850000
3377.497310	17.850000
3378.544793	28.050000
3379.590683	29.750000
3380.637881	19.900000
3381.682037	22.300000
3382.728951	14.050000
3383.774273	25.100000
3384.816554	27.550000
3385.858694	17.800000
3386.902143	26.300000
3387.945450	20.450000
3388.987167	21.400000
3390.028744	32.250000
3391.070179	33.750000
3392.110026	20.700000
3393.148284	21.650000
3394.187850	32.550000
3395.227276	20.200000
3396.265114	29.800000
3397.301365	35.600000
3398.337477	17.400000
3399.374895	4.350000
3400.409281	21.300000
3401.444975	19.650000
3402.480529	30.150000
3403.513052	23.300000
3404.548327	37.200000
3405.580573	24.850000
3406.612680	25.350000
3407.643203	15.300000
3408.675033	36.500000
3409.706725	24.950000
3410.735389	24.150000
3411.763916	22.350000
3412.793749	34.100000
3413.823445	16.650000
3414.850115	30.050000
3415.878091	17.750000
3416.903044	19.550000
3417.930746	22.350000
3418.955424	34.100000
3419.981409	28.100000
3421.005815	25.950000
3422.030084	20.500000
3423.052774	35.750000
3424.075328	23.900000
3425.099188	24.550000
3426.120028	32.450000
3427.140732	31.500000
3428.162742	23.150000
3429.181734	24.500000
3430.200591	18.250000
3431.220754	20.400000
3432.237900	27.650000
