-117.018713	-12.850000
-114.349113	-0.800000
-111.682448	-1.500000
-109.016535	-5.300000
-106.353555	1.800000
-103.689144	4.500000
-101.027664	-5.200000
-98.364755	2.450000
-95.706952	-0.150000
-93.047720	13.600000
-90.389236	-3.050000
-87.733677	-18.350000
-85.076688	1.650000
-82.424798	-5.100000
-79.771478	1.150000
-77.121077	-6.000000
-74.469248	-5.200000
-71.822509	5.650000
-69.174340	2.250000
-66.526914	4.650000
-63.882403	-13.350000
-61.236462	-2.500000
-58.595603	-0.300000
-55.953315	-5.000000
-53.313936	-1.500000
-50.673128	-3.050000
-48.033059	-5.300000
-45.398064	-10.000000
-42.761639	-2.300000
-40.128117	-5.450000
-37.493167	0.050000
-34.863283	-4.000000
-32.229805	1.900000
-29.601390	3.300000
-26.973709	4.350000
-24.344599	5.850000
-21.720547	9.000000
-19.092904	17.850000
-16.470316	30.900000
-13.848458	32.800000
-11.227331	76.050000
-8.606935	181.350000
-5.989426	647.400000
-3.370489	2117.350000
-0.754438	5112.550000
1.860886	6687.250000
4.475481	4858.000000
7.087195	545.250000
9.700337	72.900000
12.308445	26.100000
14.920134	28.150000
17.526793	10.950000
20.134881	14.350000
22.742243	-3.000000
25.344581	14.550000
27.950498	3.350000
30.551392	-1.350000
33.153714	3.450000
35.751018	7.900000
38.351899	0.300000
40.947764	-0.550000
43.545057	-4.600000
46.141632	-0.800000
48.733197	-14.750000
51.326190	3.700000
53.916322	-1.000000
56.507881	5.800000
59.096582	4.450000
61.686709	-3.450000
64.271837	-2.200000
66.858393	2.150000
69.444235	-0.900000
72.027222	-1.200000
74.611637	-6.750000
77.188923	-15.650000
79.769775	0.850000
82.347778	2.300000
84.925070	-8.000000
87.503790	3.850000
90.077527	-2.900000
92.652691	-4.750000
95.225012	-4.250000
97.796626	-11.900000
100.365399	-8.700000
102.935599	0.900000
105.502960	-5.500000
108.071748	5.500000
110.637699	4.400000
113.200815	2.750000
115.767487	1.650000
118.324937	8.450000
120.888073	15.200000
123.446250	5.000000
126.007981	12.150000
128.564755	9.300000
131.122955	31.000000
133.676203	47.150000
136.228753	58.350000
138.784853	82.850000
141.336005	109.850000
143.886460	115.900000
146.436217	139.700000
148.983155	148.250000
151.529398	152.600000
154.077066	168.700000
156.624038	168.950000
159.166075	155.450000
161.707418	142.500000
164.248068	156.700000
166.790144	157.300000
169.329408	158.050000
171.865863	148.650000
174.401628	152.750000
176.938818	151.750000
179.475317	143.750000
182.009010	147.600000
184.539899	148.800000
187.070100	147.000000
189.601727	139.800000
192.130552	139.450000
194.656578	130.150000
197.181918	148.500000
199.708683	142.250000
202.232652	127.950000
204.755936	149.000000
207.278534	148.000000
209.798340	152.400000
212.317463	136.100000
214.835903	155.850000
217.355768	153.400000
219.868630	162.650000
222.385024	157.150000
224.900737	168.950000
227.411559	179.850000
229.923806	165.150000
232.433270	171.700000
234.942056	174.600000
237.450164	180.050000
239.959696	181.750000
242.464347	168.450000
244.968322	184.100000
247.473721	183.650000
249.974245	178.950000
252.478292	191.400000
254.975369	186.600000
257.475969	181.100000
259.973797	178.600000
262.470952	181.250000
264.967434	182.850000
267.459053	187.000000
269.954192	187.750000
272.446564	196.600000
274.938266	198.250000
277.427205	193.700000
279.917567	207.850000
282.405168	205.900000
284.890009	194.700000
287.378365	212.350000
289.859781	205.150000
292.344711	214.400000
294.824796	227.350000
297.308393	233.550000
299.787147	228.150000
302.267324	250.000000
304.744750	246.500000
307.221512	235.200000
309.697610	234.650000
312.170960	222.250000
314.643649	231.900000
317.115676	224.550000
319.587041	245.350000
322.055663	249.000000
324.523625	241.800000
326.993010	233.250000
329.457572	206.150000
331.925638	203.750000
334.388883	195.350000
336.851472	207.350000
339.313404	195.400000
341.774679	202.200000
344.233219	182.750000
346.693183	184.300000
349.150413	195.000000
351.606989	199.200000
354.062911	205.150000
356.516103	189.850000
358.970718	189.350000
361.420531	189.950000
363.873840	186.650000
366.322350	183.350000
368.770210	180.800000
371.219492	183.300000
373.663979	180.000000
376.109890	170.900000
378.555150	190.850000
380.997692	180.500000
383.439586	175.550000
385.880832	179.950000
388.319364	178.800000
390.759316	172.000000
393.196555	185.750000
395.631083	178.150000
398.069097	180.800000
400.502336	165.800000
402.936995	172.700000
405.366882	177.850000
407.800254	173.050000
410.228856	163.450000
412.656816	172.150000
415.086198	184.300000
417.510814	176.200000
419.936852	168.400000
422.362249	166.950000
424.787006	166.450000
427.207004	163.850000
429.628424	178.700000
432.047148	178.150000
434.467292	175.900000
436.884741	172.950000
439.303610	165.300000
441.719785	161.200000
444.131214	166.450000
446.546119	154.600000
448.958335	153.450000
451.369916	162.100000
453.780863	155.150000
456.189123	145.850000
458.596752	143.250000
461.003748	156.450000
463.410113	132.850000
465.813795	139.700000
468.216847	155.650000
470.619269	154.650000
473.021061	154.150000
475.420175	161.150000
477.820709	156.050000
480.220614	170.950000
482.615797	162.250000
485.014446	183.900000
487.408374	190.550000
489.801677	195.250000
492.194355	201.750000
494.586407	211.500000
496.979877	232.200000
499.368635	244.500000
501.754727	263.250000
504.142239	340.850000
506.529128	446.350000
508.913352	613.100000
511.298996	923.450000
513.681978	1594.200000
516.062299	3083.100000
518.444039	5662.850000
520.823120	8018.600000
523.203619	7547.600000
525.581462	4821.150000
527.956648	2380.200000
530.331218	1304.400000
532.707205	866.600000
535.080540	621.600000
537.455292	520.550000
539.825358	417.800000
542.194810	357.100000
544.565679	314.850000
546.931867	268.950000
549.299474	241.650000
551.664435	227.850000
554.028784	207.050000
556.392519	187.150000
558.757672	186.550000
561.118153	169.350000
563.480052	151.800000
565.839310	149.450000
568.195930	140.300000
570.555996	138.100000
572.909370	128.000000
575.266189	132.200000
577.620373	136.500000
579.973948	123.100000
582.326916	103.200000
584.677251	108.850000
587.029004	118.400000
589.374080	117.250000
591.724619	114.400000
594.068486	109.900000
596.417814	112.400000
598.762493	104.850000
601.104548	101.750000
603.448020	123.700000
605.788869	106.300000
608.129115	104.600000
610.466741	110.100000
612.807802	107.700000
615.144226	110.650000
617.482066	115.900000
619.817289	121.550000
622.149895	112.600000
624.483919	116.150000
626.815328	107.200000
629.146139	109.300000
631.476352	97.800000
633.805968	81.400000
636.130960	87.250000
638.461394	84.800000
640.787207	93.750000
643.110412	93.850000
645.435034	105.300000
647.757050	94.950000
650.078472	94.750000
652.397291	96.250000
654.717527	94.200000
657.037169	87.750000
659.354210	91.750000
661.670659	92.400000
663.984510	81.100000
666.299777	91.250000
668.612447	89.900000
670.926532	89.250000
673.236017	100.750000
675.546918	104.750000
677.855226	91.150000
680.162946	80.200000
682.472080	80.450000
684.776622	78.900000
687.080578	80.750000
689.383948	86.300000
691.688732	71.050000
693.988929	81.400000
696.290542	78.100000
698.591569	68.700000
700.888015	59.600000
703.185876	67.850000
705.483153	74.150000
707.779847	75.800000
710.071965	64.200000
712.367494	65.800000
714.658449	73.650000
716.950819	63.000000
719.240614	68.500000
721.529828	66.950000
723.818463	64.900000
726.104525	66.650000
728.392002	60.600000
730.676907	76.550000
732.961235	71.000000
735.242994	64.450000
737.526167	65.250000
739.808763	72.150000
742.086803	64.850000
744.366257	56.150000
746.645136	74.700000
748.923440	66.950000
751.197193	71.200000
753.472361	68.050000
755.746955	66.650000
758.018990	61.500000
760.292438	76.950000
762.563328	68.450000
764.831662	70.950000
767.101409	73.900000
769.368601	75.100000
771.635224	61.400000
773.901276	75.100000
776.164777	69.050000
778.429691	75.850000
780.694035	69.050000
782.953850	79.850000
785.215077	78.550000
787.475737	81.000000
789.733851	74.450000
791.989420	82.100000
794.248379	90.600000
796.500840	84.950000
798.758668	75.900000
801.011977	76.050000
803.262746	74.350000
805.514927	82.800000
807.764569	78.200000
810.015623	69.800000
812.262167	73.400000
814.510122	77.750000
816.755543	82.850000
819.002375	69.750000
821.248646	79.850000
823.490412	77.900000
825.735562	71.050000
827.974239	91.850000
830.216298	76.350000
832.453859	83.400000
834.692832	74.500000
836.929278	88.550000
839.167135	72.800000
841.402467	73.050000
843.635276	57.200000
845.869495	74.600000
848.101193	83.700000
850.332336	74.750000
852.562924	70.700000
854.792958	64.700000
857.022438	71.850000
859.247436	83.050000
861.475808	63.600000
863.699702	66.750000
865.925007	71.850000
868.145836	71.950000
870.370037	76.700000
872.589765	78.150000
874.810903	72.200000
877.031491	74.700000
879.249570	76.950000
881.469058	68.950000
883.684080	70.550000
885.898554	78.900000
888.112481	91.900000
890.325861	74.450000
892.538693	52.750000
894.750978	85.500000
896.960762	74.950000
899.170000	71.250000
901.378693	74.300000
903.584886	77.600000
905.792489	81.200000
907.997595	81.650000
910.202157	75.300000
912.404224	88.000000
914.607700	70.600000
916.808682	88.550000
919.009122	72.550000
921.210971	83.400000
923.406429	93.750000
925.605245	99.900000
927.799624	107.100000
929.997360	120.150000
932.190660	137.850000
934.385369	174.250000
936.577591	189.250000
938.769276	243.600000
940.960423	245.250000
943.149087	259.600000
945.337215	280.000000
947.522861	266.500000
949.711861	258.000000
951.896437	260.250000
954.080478	274.850000
956.267869	269.350000
958.446956	262.300000
960.629394	262.100000
962.811298	265.650000
964.990727	282.050000
967.167684	274.550000
969.346049	282.500000
971.525821	279.800000
973.699244	278.950000
975.876013	293.100000
978.048375	286.100000
980.222145	286.750000
982.391511	278.550000
984.564221	256.800000
986.734466	258.750000
988.904181	242.000000
991.073368	220.450000
993.238158	209.100000
995.406290	166.250000
997.570026	153.500000
999.735170	156.950000
1001.897854	138.450000
1004.060013	152.550000
1006.219715	136.450000
1008.378892	130.050000
1010.539476	122.400000
1012.697605	124.750000
1014.855211	114.850000
1017.012293	117.850000
1019.168851	97.450000
1021.321030	99.600000
1023.474616	113.800000
1025.627680	94.300000
1027.778295	94.100000
1029.930316	90.050000
1032.077965	97.400000
1034.228945	96.300000
1036.375554	86.750000
1038.521644	83.250000
1040.667216	77.250000
1042.814193	84.850000
1044.954881	78.350000
1047.098898	67.950000
1049.240476	74.300000
1051.381536	80.550000
1053.524002	73.400000
1055.660187	72.600000
1057.799699	71.750000
1059.934855	87.400000
1062.073336	74.800000
1064.207464	69.250000
1066.341078	72.400000
1068.476096	69.350000
1070.606766	82.550000
1072.738840	86.850000
1074.868485	68.000000
1076.997617	55.950000
1079.126239	65.900000
1081.254349	75.100000
1083.380033	66.000000
1085.505207	69.350000
1087.631785	58.550000
1089.754025	60.400000
1091.877670	69.100000
1093.996980	58.400000
1096.121519	64.050000
1098.239814	53.500000
1100.359512	62.250000
1102.476793	56.700000
1104.593566	53.000000
1106.709833	53.000000
1108.823685	62.700000
1110.938940	67.100000
1113.049873	64.300000
1115.164118	51.950000
1117.274042	55.900000
1119.385370	60.350000
1121.496193	67.050000
1123.602700	58.200000
1125.712516	55.450000
1127.818019	51.300000
1129.924924	57.750000
1132.025614	49.650000
1134.131516	51.850000
1136.233109	64.300000
1138.336105	47.450000
1140.438600	46.950000
1142.534888	55.650000
1144.636383	47.200000
1146.733576	51.950000
1148.830271	52.350000
1150.926467	57.200000
1153.022165	48.950000
1155.117366	45.200000
1157.210170	41.500000
1159.304376	43.000000
1161.392391	50.550000
1163.485604	49.500000
1165.572630	34.350000
1167.662954	41.200000
1169.748990	49.600000
1171.838324	47.500000
1173.921477	50.050000
1176.006033	41.350000
1178.091990	42.900000
1180.173665	44.950000
1182.256741	38.750000
1184.337432	51.600000
1186.417632	40.700000
1188.497340	47.250000
1190.576557	51.850000
1192.653391	37.400000
1194.727845	51.300000
1196.805591	60.200000
1198.879066	41.600000
1200.953943	37.350000
1203.024552	44.100000
1205.096562	59.650000
1207.166196	44.350000
1209.237231	47.000000
1211.307779	47.050000
1213.374065	35.450000
1215.441752	36.600000
1217.507066	35.050000
1219.573781	32.850000
1221.636241	41.250000
1223.701985	36.000000
1225.763475	31.900000
1227.826366	31.600000
1229.886888	38.000000
1231.946928	45.650000
1234.006484	31.700000
1236.063676	39.250000
1238.120385	34.500000
1240.174732	42.850000
1242.232360	31.050000
1244.287624	44.000000
1246.338649	37.050000
1248.391073	40.900000
1250.443017	31.750000
1252.492603	33.000000
1254.541710	35.800000
1256.590338	35.800000
1258.638488	33.300000
1260.686160	32.100000
1262.729601	39.600000
1264.776318	37.300000
1266.820681	35.250000
1268.864568	37.750000
1270.906103	30.650000
1272.945289	35.850000
1274.987748	30.000000
1277.025984	29.650000
1279.065619	39.200000
1281.104778	29.150000
1283.139720	28.650000
1285.176060	25.850000
1287.210056	32.000000
1289.245449	28.400000
1291.276629	27.900000
1293.309208	46.050000
1295.341315	34.250000
1297.371081	32.050000
1299.402244	32.900000
1301.429200	31.050000
1303.457555	23.000000
1305.481704	26.600000
1307.509119	39.600000
1309.532331	25.700000
1311.556941	34.050000
1313.579216	35.350000
1315.602889	35.850000
1317.624229	22.400000
1319.645102	29.050000
1321.665507	40.500000
1323.681719	35.650000
1325.699328	38.050000
1327.714609	36.600000
1329.733149	40.150000
1331.747499	35.150000
1333.759524	16.950000
1335.774807	40.150000
1337.785904	34.750000
1339.798397	25.050000
1341.806708	37.250000
1343.818275	38.350000
1345.823803	25.200000
1347.832586	21.650000
1349.837191	32.200000
1351.845050	33.550000
1353.852447	28.100000
1355.853813	28.150000
1357.856575	40.250000
1359.858878	31.550000
1361.860721	39.850000
1363.862104	31.800000
1365.861173	22.950000
1367.859785	31.350000
1369.857937	25.400000
1371.855632	34.400000
1373.849164	37.600000
1375.844091	28.500000
1377.838562	39.550000
1379.832576	31.700000
1381.824283	34.800000
1383.815534	32.800000
1385.804480	39.600000
1387.794821	34.500000
1389.784708	39.750000
1391.772290	35.900000
1393.759419	37.750000
1395.744246	27.250000
1397.730468	31.250000
1399.714389	44.550000
1401.697858	37.700000
1403.680875	24.550000
1405.661594	30.500000
1407.643707	35.050000
1409.623523	23.800000
1411.602889	29.400000
1413.578116	30.500000
1415.556581	41.350000
1417.532753	39.150000
1419.508475	37.200000
1421.483749	41.450000
1423.456731	41.600000
1425.429265	28.200000
1427.401351	39.950000
1429.372990	36.900000
1431.340500	33.200000
1433.313084	36.450000
1435.277862	27.500000
1437.247713	44.150000
1439.213439	44.100000
1441.180559	41.150000
1443.145395	39.100000
1445.106111	19.450000
1447.071895	29.600000
1449.031724	33.050000
1450.992947	24.450000
1452.955561	36.450000
1454.914061	33.000000
1456.872119	29.250000
1458.829735	38.950000
1460.786908	35.050000
1462.741806	37.200000
1464.698097	21.800000
1466.652113	25.650000
1468.605688	25.800000
1470.556991	32.200000
1472.509686	32.800000
1474.460110	34.900000
1476.410095	35.300000
1478.359641	29.700000
1480.306918	32.450000
1482.251927	28.050000
1484.198329	24.650000
1486.144293	36.350000
1488.089820	35.950000
1490.033081	28.950000
1491.975906	36.650000
1493.916468	29.800000
1495.858422	29.150000
1497.798113	32.750000
1499.737369	19.600000
1501.676191	24.300000
1503.612753	27.950000
1505.550706	35.950000
1507.486400	22.750000
1509.421661	30.000000
1511.354665	42.200000
1513.287237	29.600000
1515.219377	32.950000
1517.151085	42.700000
1519.080540	35.100000
1521.011385	34.800000
1522.941798	35.150000
1524.868139	25.750000
1526.795870	30.450000
1528.721352	21.200000
1530.646404	33.700000
1532.571027	27.900000
1534.495220	38.800000
1536.417167	31.750000
1538.340504	42.100000
1540.261594	25.600000
1542.180440	29.500000
1544.100676	25.750000
1546.018668	31.900000
1547.936234	29.950000
1549.851559	38.650000
1551.768273	35.650000
1553.680932	51.450000
1555.596794	30.150000
1557.510418	37.550000
1559.421803	33.900000
1561.334578	29.500000
1563.243303	29.850000
1565.153417	38.550000
1567.063108	14.650000
1568.972376	31.050000
1570.879409	23.150000
1572.784210	37.350000
1574.690400	39.750000
1576.594359	37.200000
1578.497896	33.850000
1580.401013	34.600000
1582.301900	25.400000
1584.204176	27.750000
1586.104223	33.550000
1588.005659	36.000000
1589.903061	26.350000
1591.800044	28.200000
1593.696609	31.450000
1595.594561	40.900000
1597.486679	26.200000
1599.381991	29.800000
1601.276885	40.150000
1603.169557	30.550000
1605.061812	24.900000
1606.951848	47.050000
1608.841468	34.850000
1610.730673	25.100000
1612.619462	34.900000
1614.506035	21.200000
1616.393995	28.900000
1618.277938	37.350000
1620.163268	23.400000
1622.048185	34.550000
1623.930888	31.500000
1625.814978	43.100000
1627.695056	32.050000
1629.576522	29.500000
1631.455776	32.300000
1633.336418	28.150000
1635.211255	33.250000
1637.091073	37.650000
1638.966887	26.400000
1640.842290	31.850000
1642.719079	35.950000
1644.590071	43.650000
1646.464246	30.600000
1648.334421	33.100000
1650.207777	25.500000
1652.078930	46.500000
1653.947881	28.150000
1655.818218	31.650000
1657.684562	30.400000
1659.552291	37.350000
1661.417821	32.600000
1663.284737	30.850000
1665.147663	32.250000
1667.011976	33.600000
1668.874092	34.200000
1670.735803	40.600000
1672.598899	28.400000
1674.459801	35.800000
1676.318510	27.550000
1678.176815	31.450000
1680.036504	19.150000
1681.890427	29.000000
1683.747523	29.400000
1685.604215	32.150000
1687.456932	25.850000
1689.312820	34.650000
1691.164734	34.550000
1693.016247	30.800000
1694.867359	30.450000
1696.718070	24.550000
1698.568381	32.200000
1700.416508	33.400000
1702.266019	23.550000
1704.109780	28.550000
1705.958492	25.100000
1707.801457	31.400000
1709.647588	31.750000
1711.489758	35.250000
1713.335093	32.400000
1715.174687	37.800000
1717.015665	29.650000
1718.858026	32.250000
1720.696430	15.050000
1722.536218	32.250000
1724.373831	31.150000
1726.211049	36.700000
1728.046093	33.050000
1729.882520	42.550000
1731.716774	35.300000
1733.550635	30.250000
1735.384101	30.700000
1737.213621	25.000000
1739.046301	32.400000
1740.875035	29.250000
1742.706928	31.400000
1744.534878	41.850000
1746.362436	33.100000
1748.189603	30.050000
1750.016378	36.600000
1751.842761	24.250000
1753.665208	32.400000
1755.490810	28.950000
1757.312477	30.900000
1759.135525	43.450000
1760.956413	33.850000
1762.776912	28.900000
1764.598791	37.500000
1766.414971	26.350000
1768.234303	31.100000
1770.049708	37.600000
1771.868264	29.100000
1773.682894	29.400000
1775.497137	21.150000
1777.310994	24.400000
1779.124464	29.650000
1780.935780	24.250000
1782.748478	27.200000
1784.560790	30.350000
1786.369183	33.250000
1788.178958	31.750000
1789.984818	33.650000
1791.793823	31.650000
1793.598915	27.650000
1795.405388	27.450000
1797.211476	24.250000
1799.013655	37.750000
1800.818978	36.800000
1802.620391	28.500000
1804.423186	23.750000
1806.222074	30.500000
1808.022343	24.100000
1809.822230	17.800000
1811.619975	29.950000
1813.417340	23.800000
1815.214324	32.850000
1817.010929	25.500000
1818.805393	24.950000
1820.601238	33.900000
1822.391427	22.600000
1824.186513	29.700000
1825.975946	31.700000
1827.768517	34.050000
1829.558952	37.600000
1831.347252	28.400000
1833.138688	24.600000
1834.924479	31.700000
1836.711649	30.700000
1838.496687	31.400000
1840.284858	25.850000
1842.069145	32.750000
1843.851301	45.400000
1845.634837	24.400000
1847.416244	35.500000
1849.199029	35.350000
1850.977935	35.150000
1852.758219	37.400000
1854.536378	20.350000
1856.315914	35.050000
1858.093326	19.050000
1859.868615	40.750000
1861.645281	29.600000
1863.419825	27.150000
1865.195746	36.800000
1866.966048	34.150000
1868.739477	24.000000
1870.510786	29.100000
1872.281724	29.050000
1874.054040	23.300000
1875.820742	22.800000
1877.590569	26.200000
1879.356533	22.250000
1881.125621	32.350000
1882.890847	31.200000
1884.655705	29.950000
1886.421939	40.750000
1888.184316	21.750000
1889.946324	32.950000
1891.707966	31.300000
1893.469240	29.200000
1895.230148	32.100000
1896.990688	36.150000
1898.749120	27.800000
1900.507185	29.850000
1902.263143	30.500000
1904.020477	21.250000
1905.777446	32.550000
1907.532308	21.250000
1909.285066	29.600000
1911.037459	23.200000
1912.791229	34.300000
1914.542895	13.200000
1916.292458	33.350000
1918.043398	29.750000
1919.793974	23.450000
1921.540712	22.200000
1923.288825	32.700000
1925.034840	34.100000
1926.782229	41.050000
1928.527520	35.800000
1930.270715	29.550000
1932.015284	17.850000
1933.757757	22.950000
1935.499871	26.450000
1937.241624	24.400000
1938.983017	30.950000
1940.722317	28.350000
1942.461258	33.350000
1944.199840	31.000000
1945.936331	24.950000
1947.672463	25.150000
1949.409971	25.350000
1951.143656	28.850000
1952.878716	29.400000
1954.611687	20.550000
1956.344302	32.150000
1958.076560	24.750000
1959.808462	31.550000
1961.538279	33.550000
1963.266010	34.450000
1964.995116	35.450000
1966.723866	28.300000
1968.450533	30.750000
1970.176846	36.900000
1971.904533	26.250000
1973.626683	32.300000
1975.351934	29.150000
1977.073378	39.000000
1978.797922	36.200000
1980.520387	25.450000
1982.239048	27.550000
1983.960809	26.600000
1985.678767	34.900000
1987.398098	28.050000
1989.113630	31.700000
1990.833982	38.450000
1992.550536	22.000000
1994.263293	31.700000
1995.979146	31.750000
1997.692927	28.000000
1999.406358	23.200000
2001.117718	24.600000
2002.830450	29.600000
2004.539392	28.250000
2006.251426	37.300000
2007.957951	33.550000
2009.667569	29.750000
2011.375119	33.350000
2013.082322	29.050000
2014.787459	35.350000
2016.492250	33.600000
2018.198412	33.500000
2019.900791	26.950000
2021.604543	22.000000
2023.306232	25.350000
2025.007575	19.400000
2026.708574	29.600000
2028.407511	24.450000
2030.107820	40.950000
2031.804353	22.200000
2033.502258	30.400000
2035.198105	27.100000
2036.897037	19.200000
2038.590483	22.950000
2040.285300	29.200000
2041.979774	31.950000
2043.670481	30.400000
2045.364270	20.950000
2047.054294	32.200000
2048.745688	33.150000
2050.435028	27.600000
2052.125740	33.800000
2053.812688	27.650000
2055.499296	26.550000
2057.187275	21.000000
2058.871494	24.400000
2060.557083	29.550000
2062.242333	31.850000
2063.925535	34.500000
2065.610107	21.600000
2067.289215	25.150000
2068.973110	19.000000
2070.651543	32.950000
2072.333054	16.150000
2074.010813	42.500000
2075.688236	31.250000
2077.367028	30.000000
2079.043777	33.650000
2080.718485	23.350000
2082.394563	31.850000
2084.068599	23.850000
2085.742301	24.750000
2087.415667	21.850000
2089.086994	18.500000
2090.757987	20.000000
2092.428646	17.750000
2094.098971	24.600000
2095.768962	29.350000
2097.436917	41.700000
2099.104538	45.250000
2100.770126	35.800000
2102.437082	29.450000
2104.102005	25.800000
2105.766596	33.200000
2107.429155	13.750000
2109.093082	38.700000
2110.754978	18.100000
2112.416544	30.600000
2114.077778	34.350000
2115.736983	29.750000
2117.395859	34.300000
2119.054405	35.150000
2120.712620	27.500000
2122.367113	30.400000
2124.024670	34.500000
2125.681897	21.650000
2127.335404	28.550000
2128.990278	24.100000
2130.641433	28.500000
2132.295651	29.150000
2133.946151	31.850000
2135.598019	39.350000
2137.244478	32.250000
2138.895691	37.650000
2140.543192	28.350000
2142.192059	21.500000
2143.838907	42.200000
2145.485430	27.700000
2147.131627	29.000000
2148.774116	16.250000
2150.419662	33.150000
2152.061502	19.750000
2153.706399	32.500000
2155.347591	26.800000
2156.988459	28.550000
2158.629004	34.200000
2160.267536	31.150000
2161.907434	24.250000
2163.543632	30.450000
2165.181196	43.100000
2166.818438	36.550000
2168.453670	26.700000
2170.088580	28.950000
2171.723169	18.850000
2173.357437	23.200000
2174.988011	25.200000
2176.621637	20.000000
2178.251571	29.350000
2179.882870	38.750000
2181.512164	27.550000
2183.141139	32.100000
2184.769794	25.350000
2186.398130	28.750000
2188.024463	32.550000
2189.650478	32.350000
2191.274492	33.750000
2192.899871	23.700000
2194.523249	27.900000
2196.147992	30.150000
2197.769054	25.400000
2199.389799	36.350000
2201.011908	24.650000
2202.632020	26.400000
2204.250136	33.250000
2205.867936	24.350000
2207.485420	31.300000
2209.102590	30.900000
2210.719443	31.650000
2212.335982	33.350000
2213.950528	33.250000
2215.563081	33.650000
2217.176998	32.850000
2218.788924	30.650000
2220.402213	25.900000
2222.013512	29.600000
2223.622821	22.850000
2225.233493	39.200000
2226.842177	40.300000
2228.450549	20.050000
2230.056934	30.050000
2231.664681	19.600000
2233.270443	22.800000
2234.875893	31.250000
2236.479358	17.700000
2238.084186	19.700000
2239.687030	30.600000
2241.287891	29.800000
2242.890115	22.300000
2244.490357	26.650000
2246.091961	30.600000
2247.689912	19.450000
2249.289226	34.950000
2250.886560	29.100000
2252.483586	29.100000
2254.081973	25.600000
2255.676713	32.750000
2257.269475	24.450000
2258.863600	35.200000
2260.459086	27.900000
2262.050927	27.800000
2263.642462	34.200000
2265.235359	26.050000
2266.822946	31.100000
2268.415229	22.250000
2270.002205	25.700000
2271.592210	21.900000
2273.176910	26.200000
2274.766304	27.250000
2276.350395	36.900000
2277.935848	34.100000
2279.519332	31.550000
2281.105841	14.800000
2282.688717	36.850000
2284.271290	31.700000
2285.853559	19.100000
2287.432198	22.750000
2289.013862	36.950000
2290.591897	20.450000
2292.172955	31.350000
2293.750386	31.300000
2295.325854	31.250000
2296.904344	24.350000
2298.479210	21.000000
2300.053775	26.450000
2301.628039	30.100000
2303.202003	23.150000
2304.775667	35.050000
2306.349031	32.700000
2307.918776	30.250000
2309.488222	17.850000
2311.060686	22.200000
2312.627876	30.800000
2314.198083	21.700000
2315.764677	18.800000
2317.332629	21.550000
2318.898627	25.550000
2320.464327	30.600000
2322.029729	24.900000
2323.593178	39.450000
2325.157986	29.650000
2326.719186	30.600000
2328.283399	41.850000
2329.842352	41.400000
2331.404318	33.800000
2332.964334	24.400000
2334.524054	22.700000
2336.081826	22.150000
2337.639302	28.050000
2339.196484	27.800000
2340.751718	29.400000
2342.306659	26.000000
2343.861305	18.900000
2345.415658	20.000000
2346.969717	34.850000
2348.523483	35.850000
2350.075304	12.000000
2351.625182	30.550000
2353.178069	25.450000
2354.725712	26.600000
2356.276364	23.250000
2357.823424	24.900000
2359.371842	28.150000
2360.919969	32.900000
2362.464507	29.500000
2364.010403	24.350000
2365.554361	24.000000
2367.099675	33.250000
2368.641405	37.700000
2370.184493	28.650000
2371.725644	24.650000
2373.266506	23.800000
2374.807079	29.650000
2376.347363	22.750000
2377.887358	21.200000
2379.423774	16.200000
2380.963192	26.350000
2382.499033	17.650000
2384.036231	27.400000
2385.569853	27.900000
2387.106475	22.100000
2388.641167	26.900000
2390.173929	21.000000
2391.706404	24.350000
2393.236951	34.950000
2394.770496	28.050000
2396.298830	25.200000
2397.828520	33.100000
2399.357925	24.400000
2400.887045	28.650000
2402.415879	28.150000
2403.939509	26.150000
2405.467774	30.500000
2406.990837	34.100000
2408.518533	32.700000
2410.039390	26.900000
2411.564879	17.700000
2413.086809	26.850000
2414.610093	36.200000
2416.131457	20.950000
2417.650901	25.500000
2419.171700	36.850000
2420.690580	33.850000
2422.209179	20.800000
2423.725859	20.500000
2425.243895	24.350000
2426.761649	22.850000
2428.275851	39.450000
2429.789774	22.050000
2431.303416	40.450000
2432.818412	36.450000
2434.329861	19.950000
2435.842663	32.950000
2437.353553	23.050000
2438.864164	25.050000
2440.372863	22.750000
2441.884548	24.550000
2443.392690	33.300000
2444.900554	27.600000
2446.408139	19.750000
2447.912185	27.900000
2449.419215	30.350000
2450.924337	31.550000
2452.429182	28.850000
2453.932120	30.300000
2455.434782	30.300000
2456.937167	25.750000
2458.437647	19.500000
2459.939480	24.250000
2461.439408	29.050000
2462.939061	25.300000
2464.438439	27.500000
2465.935914	18.400000
2467.431487	23.300000
2468.930040	32.500000
2470.425065	33.100000
2471.921442	18.800000
2473.414293	17.300000
2474.908497	23.900000
2476.402427	27.050000
2477.892833	30.350000
2479.386217	18.200000
2480.877703	19.500000
2482.367292	26.250000
2483.856609	21.600000
2485.344030	23.650000
2486.834427	18.850000
2488.321306	27.250000
2489.809536	25.600000
2491.294249	13.500000
2492.778692	19.250000
2494.264487	22.700000
2495.748390	12.000000
2497.233643	23.150000
2498.713763	30.550000
2500.196856	21.900000
2501.678058	29.300000
2503.158991	22.300000
2504.638035	20.800000
2506.116810	20.000000
2507.595317	24.200000
2509.073555	35.150000
2510.551526	27.650000
2512.025991	21.300000
2513.503426	19.850000
2514.977356	24.900000
2516.452638	33.100000
2517.927652	24.550000
2519.399165	27.100000
2520.872029	33.950000
2522.343010	33.750000
2523.815341	21.250000
2525.282558	27.900000
2526.752742	32.200000
2528.221045	22.700000
2529.689083	24.500000
2531.156855	31.550000
2532.624363	24.400000
2534.091607	24.850000
2535.555358	19.050000
2537.020459	23.400000
2538.483683	24.300000
2539.948256	21.200000
2541.409341	24.450000
2542.871775	39.550000
2544.333946	29.100000
2545.792630	21.900000
2547.255887	24.850000
2548.714047	35.400000
2550.173557	30.700000
2551.627972	17.600000
2553.086958	41.250000
2554.544072	30.200000
2555.999314	31.950000
2557.454296	24.750000
2558.907408	37.750000
2560.361869	17.950000
2561.814461	22.500000
2563.266793	39.650000
2564.717257	21.400000
2566.170678	30.450000
2567.619016	26.900000
2569.070309	26.200000
2570.519737	39.450000
2571.965692	35.850000
2573.414602	23.850000
2574.860042	23.050000
2576.306829	29.500000
2577.751753	20.950000
2579.196420	21.300000
2580.642434	30.300000
2582.084982	24.700000
2583.528876	21.850000
2584.969306	28.050000
2586.411084	22.900000
2587.851002	24.750000
2589.292267	24.600000
2590.730070	22.750000
2592.170823	27.100000
2593.606514	26.150000
2595.045153	31.400000
2596.481936	21.850000
2597.916863	36.650000
2599.354737	22.150000
2600.787554	39.900000
2602.221718	32.900000
2603.654028	15.450000
2605.087684	35.750000
2606.519487	16.800000
2607.951036	23.750000
2609.382332	30.000000
2610.811777	12.950000
2612.240969	11.300000
2613.668310	34.450000
2615.096998	33.050000
2616.525433	25.450000
2617.950422	23.000000
2619.376756	24.400000
2620.801243	29.750000
2622.227075	30.950000
2623.649463	19.050000
2625.073196	33.050000
2626.495084	15.150000
2627.916721	22.450000
2629.336514	31.600000
2630.757652	23.150000
2632.178540	30.650000
2633.595989	22.650000
2635.016378	27.700000
2636.433330	27.250000
2637.850034	29.700000
2639.266489	27.400000
2640.682696	33.250000
2642.098655	39.050000
2643.512773	17.250000
2644.926643	41.150000
2646.338674	21.300000
2647.752050	18.850000
2649.161996	32.150000
2650.574878	20.750000
2651.984331	30.800000
2653.393538	27.750000
2654.800909	15.050000
2656.211214	29.500000
2657.619683	27.800000
2659.026318	29.400000
2660.432707	17.150000
2661.837262	29.800000
2663.243161	25.000000
2664.647227	20.250000
2666.051048	21.950000
2667.454625	14.400000
2668.856371	21.150000
2670.259460	10.000000
2671.659131	20.600000
2673.060146	31.150000
2674.457745	31.850000
2675.858273	24.500000
2677.255387	18.950000
2678.653844	10.700000
2680.050474	31.300000
2681.446861	34.350000
2682.843006	27.950000
2684.237325	30.300000
2685.632987	32.400000
2687.025240	24.000000
2688.418835	14.350000
2689.810606	29.950000
2691.203720	23.250000
2692.595010	18.100000
2693.984477	19.300000
2695.373704	23.600000
2696.762692	26.650000
2698.153021	23.300000
2699.538367	32.300000
2700.926636	25.850000
2702.313085	24.500000
2703.699295	24.800000
2705.085266	26.350000
2706.467839	12.800000
2707.851754	16.600000
2709.235430	27.550000
2710.618869	21.500000
2711.998912	19.500000
2713.380297	23.050000
2714.759867	21.300000
2716.140777	33.750000
2717.519873	26.650000
2718.897155	25.950000
2720.275778	29.350000
2721.652587	25.450000
2723.029161	24.750000
2724.405499	21.750000
2725.780025	18.050000
2727.155892	24.050000
2728.528373	17.200000
2729.903769	24.200000
2731.274205	12.100000
2732.645981	28.100000
2734.017524	20.600000
2735.387258	31.300000
2736.758332	20.900000
2738.127599	26.900000
2739.496632	28.600000
2740.863859	17.300000
2742.230852	16.900000
2743.597613	19.000000
2744.964141	30.800000
2746.328865	27.550000
2747.693356	20.200000
2749.057616	26.850000
2750.421643	23.600000
2751.785438	28.100000
2753.145861	29.500000
2754.509193	27.600000
2755.867583	32.300000
2757.228883	22.000000
2758.586813	31.850000
2759.947651	29.450000
2761.306689	31.650000
2762.662360	27.600000
2764.020938	27.000000
2765.376149	27.900000
2766.731131	25.100000
2768.084316	19.300000
2769.440408	19.500000
2770.793136	22.700000
2772.145636	22.800000
2773.497907	15.300000
2774.851516	15.600000
2776.201765	22.350000
2777.550219	23.100000
2778.901578	17.050000
2780.249579	27.150000
2781.598917	17.900000
2782.946463	18.850000
2784.293783	32.900000
2785.640875	19.800000
2786.986177	23.100000
2788.331253	18.450000
2789.676103	23.450000
2791.020727	10.150000
2792.361999	25.550000
2793.704608	24.050000
2795.046993	22.550000
2796.389152	29.000000
2797.727962	19.400000
2799.069672	29.300000
2800.408033	15.200000
2801.747732	23.000000
2803.085646	20.600000
2804.421774	27.300000
2805.757680	25.550000
2807.094923	18.300000
2808.430382	10.250000
2809.765617	16.900000
2811.099071	25.200000
2812.433861	4.200000
2813.765311	9.850000
2815.099656	30.800000
2816.429102	24.950000
2817.759886	16.350000
2819.090449	20.250000
2820.419232	29.350000
2821.749351	19.200000
2823.077692	44.700000
2824.405812	19.800000
2825.732154	18.350000
2827.059832	23.350000
2828.384178	28.150000
2829.709860	26.000000
2831.033766	21.800000
2832.357452	24.700000
2833.682474	28.700000
2835.004167	21.050000
2836.325641	17.600000
2837.646895	19.250000
2838.967932	17.150000
2840.287195	12.600000
2841.607794	20.150000
2842.926621	31.850000
2844.245231	12.000000
2845.562069	25.450000
2846.878690	6.300000
2848.195094	16.650000
2849.509728	35.300000
2850.825697	30.450000
2852.138347	29.150000
2853.452331	21.150000
2854.766099	22.150000
2856.079650	24.750000
2857.391435	26.050000
2858.701453	15.350000
2860.012806	25.850000
2861.320844	23.450000
2862.630216	19.500000
2863.939373	2.850000
2865.248316	25.700000
2866.555494	19.950000
2867.860910	26.900000
2869.167659	24.900000
2870.472647	22.400000
2871.777420	12.900000
2873.080433	20.200000
2874.386326	23.000000
2875.687365	22.650000
2876.989737	16.750000
2878.290351	26.150000
2879.592297	23.050000
2880.894031	25.900000
2882.192461	21.050000
2883.492224	19.400000
2884.790230	18.900000
2886.088024	28.800000
2887.384062	24.300000
2888.681432	25.100000
2889.977048	20.800000
2891.272452	26.050000
2892.567645	17.700000
2893.859541	22.950000
2895.154312	29.450000
2896.445788	14.250000
2897.738596	20.600000
2899.031194	15.950000
2900.320497	18.400000
2901.611134	34.200000
2902.900019	17.900000
2904.190236	21.250000
2905.477162	30.350000
2906.765420	27.350000
2908.051929	35.200000
2909.338229	14.850000
2910.624321	20.800000
2911.908665	19.750000
2913.195881	22.100000
2914.478270	25.150000
2915.761991	17.400000
2917.043965	27.900000
2918.325733	20.300000
2919.605755	23.550000
2920.888648	17.100000
2922.169794	13.950000
2923.447659	20.000000
2924.728393	22.850000
2926.005847	12.250000
2927.283094	14.500000
2928.558599	15.150000
2929.836972	24.600000
2931.110531	15.250000
2932.386957	30.450000
2933.661642	20.050000
2934.934586	24.050000
2936.208862	15.050000
2937.481398	26.400000
2938.753729	23.350000
2940.022788	16.950000
2941.294712	8.950000
2942.564898	23.850000
2943.834880	26.350000
2945.104659	24.100000
2946.372702	18.950000
2947.639008	24.550000
2948.905112	10.800000
2950.172547	20.050000
2951.438246	9.250000
2952.703744	10.150000
2953.969039	22.700000
2955.231069	31.900000
2956.494429	20.600000
2957.757588	24.450000
2959.019015	13.950000
2960.281771	20.000000
2961.542795	19.550000
2962.802089	26.500000
2964.061182	19.600000
2965.320076	17.050000
2966.578769	14.000000
2967.837261	21.700000
2969.094025	8.750000
2970.350590	12.700000
2971.605426	17.500000
2972.861592	14.150000
2974.114503	26.000000
2975.368742	20.500000
2976.622783	22.200000
2977.875098	31.800000
2979.127215	27.500000
2980.377607	17.150000
2981.630854	26.550000
2982.879324	18.250000
2984.130649	21.750000
2985.378724	18.050000
2986.626602	20.950000
2987.874284	40.500000
2989.121768	14.800000
2990.367531	38.250000
2991.613098	27.000000
2992.859992	19.500000
2994.103642	20.900000
2995.348619	24.200000
2996.590354	15.200000
2997.834940	28.600000
2999.077807	21.200000
3000.317433	13.200000
3001.559909	21.100000
3002.799145	11.200000
3004.039709	12.650000
3005.278556	26.900000
3006.517209	17.900000
3007.754146	23.450000
3008.992411	15.850000
3010.228960	20.050000
3011.465316	19.600000
3012.701478	33.000000
3013.935926	16.300000
3015.170181	22.950000
3016.404244	19.750000
3017.636593	17.700000
3018.867231	20.100000
3020.100715	19.500000
3021.332488	10.950000
3022.562549	23.000000
3023.792419	12.300000
3025.020579	24.300000
3026.250066	16.200000
3027.477843	28.900000
3028.705429	20.700000
3029.934341	18.900000
3031.158511	21.250000
3032.385524	16.800000
3033.609314	8.700000
3034.834429	31.200000
3036.057839	10.550000
3037.281058	21.850000
3038.502572	19.750000
3039.726927	17.850000
3040.946547	13.650000
3042.167493	21.550000
3043.388249	16.950000
3044.607303	20.700000
3045.827681	21.050000
3047.044843	16.250000
3048.263330	15.250000
3049.480116	15.500000
3050.696713	13.200000
3051.913123	29.550000
3053.126319	14.600000
3054.342353	14.000000
3055.555175	19.700000
3056.770834	15.000000
3057.981771	18.150000
3059.194032	17.500000
3060.406106	17.700000
3061.617994	21.050000
3062.828185	28.050000
3064.038189	14.050000
3065.248007	17.750000
3066.456129	25.700000
3067.664066	20.900000
3068.870307	22.800000
3070.077873	25.900000
3071.283744	22.550000
3072.489430	19.200000
3073.694932	14.900000
3074.898740	18.450000
3076.103872	25.350000
3077.307311	18.250000
3078.509059	23.400000
3079.710622	23.400000
3080.912002	5.700000
3082.113198	22.850000
3083.312704	25.600000
3084.512027	12.650000
3085.712673	25.500000
3086.911629	20.400000
3088.107391	23.200000
3089.305981	8.650000
3090.501378	14.950000
3091.698099	14.300000
3092.891627	18.150000
3094.087983	12.450000
3095.282652	17.350000
3096.474131	24.700000
3097.669942	30.450000
3098.861058	14.500000
3100.053498	20.500000
3101.242749	20.700000
3102.434827	14.650000
3103.625221	19.050000
3104.812429	15.450000
3106.000959	4.650000
3107.190812	20.650000
3108.377480	19.550000
3109.563969	5.800000
3110.750279	16.350000
3111.937910	12.250000
3113.122359	11.100000
3114.305129	14.450000
3115.490721	1.750000
3116.674634	17.050000
3117.856867	22.200000
3119.038923	12.400000
3120.220800	17.200000
3121.402499	14.750000
3122.582521	17.250000
3123.760866	21.000000
3124.942031	22.550000
3126.120021	31.100000
3127.297834	18.250000
3128.475470	12.050000
3129.651431	32.450000
3130.827216	11.750000
3132.004321	25.200000
3133.179753	13.800000
3134.353511	18.300000
3135.525596	15.150000
3136.699003	19.500000
3137.872233	26.300000
3139.043792	20.300000
3140.216671	19.700000
3141.386383	12.100000
3142.557416	15.550000
3143.726778	17.650000
3144.894471	21.550000
3146.064979	18.950000
3147.230829	20.350000
3148.400987	2.250000
3149.566488	18.000000
3150.731816	25.800000
3151.896970	14.650000
3153.061951	19.450000
3154.228251	12.200000
3155.389898	12.850000
3156.552866	17.500000
3157.715661	8.550000
3158.878283	28.150000
3160.039239	2.750000
3161.200024	20.750000
3162.360636	21.100000
3163.519584	8.700000
3164.678361	12.650000
3165.836965	18.900000
3166.995398	18.800000
3168.153660	14.850000
3169.310259	10.450000
3170.465197	9.950000
3171.621454	12.000000
3172.776050	17.300000
3173.930476	14.100000
3175.083242	25.550000
3176.235837	21.750000
3177.388263	21.100000
3178.540518	15.350000
3179.692604	11.800000
3180.841543	22.400000
3181.993289	7.750000
3183.143378	16.450000
3184.291810	13.400000
3185.440072	9.850000
3186.588166	20.000000
3187.736091	14.450000
3188.882360	30.450000
3190.028461	15.800000
3191.172908	21.700000
3192.317187	18.200000
3193.461297	6.500000
3194.606726	11.250000
3195.749016	21.250000
3196.891139	19.950000
3198.033094	22.950000
3199.174882	14.850000
3200.316503	23.450000
3201.454989	15.650000
3202.594792	13.600000
3203.735912	11.500000
3204.873899	14.250000
3206.010235	6.900000
3207.146407	14.700000
3208.283895	18.250000
3209.419735	26.300000
3210.556892	12.900000
3211.689436	16.950000
3212.826261	8.550000
3213.958476	13.500000
3215.092007	8.300000
3216.225373	8.750000
3217.355613	10.850000
3218.488650	16.200000
3219.618561	14.650000
3220.749788	16.050000
3221.877891	15.150000
3223.008790	15.900000
3224.138045	12.700000
3225.265657	11.200000
3226.390146	27.600000
3227.518911	22.950000
3228.644554	13.850000
3229.770034	10.300000
3230.893873	-3.300000
3232.020507	12.200000
3233.142543	11.600000
3234.265895	23.500000
3235.389085	20.100000
3236.512112	16.600000
3237.633501	16.250000
3238.754727	6.300000
3239.874315	15.650000
3240.993742	17.400000
3242.111532	13.150000
3243.232113	19.100000
3244.349581	22.300000
3245.466888	11.200000
3246.584035	18.350000
3247.699545	12.050000
3248.816371	18.850000
3249.930087	22.350000
3251.046592	27.400000
3252.161462	12.950000
3253.273224	14.150000
3254.384827	0.600000
3255.497745	15.750000
3256.610503	16.050000
3257.720155	18.000000
3258.831122	18.200000
3259.941930	9.200000
3261.051106	17.000000
3262.158651	15.350000
3263.267511	17.300000
3264.376212	19.650000
3265.481811	21.150000
3266.588725	17.650000
3267.694009	13.750000
3268.800607	14.800000
3269.904105	20.050000
3271.008917	9.050000
3272.113572	19.050000
3273.215129	4.750000
3274.316529	25.100000
3275.419243	11.150000
3276.521801	25.100000
3277.621262	13.900000
3278.723507	9.200000
3279.822656	14.700000
3280.920180	1.000000
3282.017550	18.500000
3283.117701	17.850000
3284.214760	16.050000
3285.311663	9.500000
3286.408411	12.650000
3287.500600	17.100000
3288.597039	14.250000
3289.691855	14.600000
3290.786517	23.950000
3291.879556	14.900000
3292.972442	9.050000
3294.063707	27.400000
3295.156285	7.500000
3296.247243	20.750000
3297.336581	15.700000
3298.425766	9.350000
3299.516263	20.400000
3300.603677	20.250000
3301.690937	15.400000
3302.779510	25.850000
3303.867930	5.100000
3304.951804	10.600000
3306.039919	21.400000
3307.124952	17.550000
3308.208370	7.950000
3309.293100	11.100000
3310.376214	6.300000
3311.460641	18.850000
3312.541989	17.550000
3313.624649	15.750000
3314.705694	8.550000
3315.786589	13.650000
3316.865871	14.350000
3317.945002	22.950000
3319.025445	16.400000
3320.102813	20.400000
3321.181493	9.700000
3322.258561	14.750000
3323.335479	26.250000
3324.410787	18.150000
3325.485945	17.550000
3326.562414	22.650000
3327.635813	20.850000
3328.709062	21.600000
3329.783623	12.450000
3330.856575	7.750000
3331.927918	7.950000
3333.000572	5.700000
3334.070159	10.550000
3335.141058	11.900000
3336.210349	8.350000
3337.280950	17.050000
3338.349946	13.300000
3339.417335	22.700000
3340.483119	16.800000
3341.553129	14.300000
3342.620076	15.550000
3343.683961	24.250000
3344.750613	13.050000
3345.815662	14.350000
3346.879107	17.550000
3347.942406	15.350000
3349.005558	7.400000
3350.068564	8.000000
3351.131424	18.100000
3352.192681	19.550000
3353.250882	25.100000
3354.313304	9.800000
3355.372670	15.850000
3356.431890	24.150000
3357.492419	16.400000
3358.548440	13.750000
3359.607224	11.450000
3360.661501	20.400000
3361.718542	12.000000
3362.773984	15.150000
3363.830736	12.350000
3364.885889	15.500000
3365.939445	14.350000
3366.991404	20.350000
3368.046126	13.450000
3369.097798	9.400000
3370.149327	14.600000
3371.202164	20.200000
3372.251954	17.250000
3373.303053	23.750000
3374.351105	13.250000
3375.401918	18.650000
3376.449685	9.900000
3377.497310	4.100000
3378.544793	19.000000
3379.590683	17.450000
3380.637881	13.500000
3381.682037	19.100000
3382.728951	1.400000
3383.774273	17.000000
3384.816554	5.650000
3385.858694	20.600000
3386.902143	10.350000
3387.945450	7.200000
3388.987167	18.600000
3390.028744	21.300000
3391.070179	25.450000
3392.110026	2.150000
3393.148284	9.950000
3394.187850	11.650000
3395.227276	6.550000
3396.265114	16.350000
3397.301365	21.550000
3398.337477	13.900000
3399.374895	-1.650000
3400.409281	10.550000
3401.444975	16.150000
3402.480529	16.450000
3403.513052	10.500000
3404.548327	17.400000
3405.580573	9.450000
3406.612680	24.800000
3407.643203	14.250000
3408.675033	20.700000
3409.706725	6.950000
3410.735389	19.950000
3411.763916	17.500000
3412.793749	10.250000
3413.823445	8.150000
3414.850115	14.750000
3415.878091	16.150000
3416.903044	15.000000
3417.930746	19.700000
3418.955424	11.200000
3419.981409	13.500000
3421.005815	14.450000
3422.030084	20.200000
3423.052774	10.400000
3424.075328	16.250000
3425.099188	11.200000
3426.120028	20.950000
3427.140732	27.750000
3428.162742	10.900000
3429.181734	21.800000
3430.200591	4.650000
3431.220754	12.850000
3432.237900	16.250000
