-117.300111	7.110000
-114.630511	10.900000
-111.963846	13.760000
-109.297933	9.650000
-106.634952	11.200000
-103.970542	12.500000
-101.309062	6.660000
-98.646153	10.400000
-95.988350	11.100000
-93.329118	8.950000
-90.670634	9.410000
-88.015074	10.400000
-85.358086	13.550000
-82.706196	10.990000
-80.052875	14.330000
-77.402475	5.430000
-74.750645	10.340000
-72.103906	11.500000
-69.455738	7.600000
-66.808312	15.200000
-64.163800	12.560000
-61.517860	13.490000
-58.877001	10.220000
-56.234713	14.600000
-53.595334	15.950000
-50.954525	6.660000
-48.314457	14.510000
-45.679461	15.980000
-43.043037	12.760000
-40.409515	11.480000
-37.774565	14.730000
-35.144680	17.230000
-32.511203	17.820000
-29.882788	15.960000
-27.255107	20.870000
-24.625997	17.200000
-22.001944	18.300000
-19.374302	22.860000
-16.751713	29.700000
-14.129856	36.990000
-11.508729	63.500000
-8.888332	162.080000
-6.270824	473.590000
-3.651887	1563.210000
-1.035835	3249.890000
1.579488	3118.040000
4.194084	1386.690000
6.805797	137.160000
9.418939	37.900000
12.027047	23.650000
14.638737	26.270000
17.245396	18.830000
19.853483	21.020000
22.460846	19.790000
25.063184	14.550000
27.669100	18.390000
30.269994	12.670000
32.872316	18.640000
35.469621	16.450000
38.070501	16.290000
40.666366	18.090000
43.263660	13.630000
45.860234	9.490000
48.451799	22.240000
51.044792	12.370000
53.634924	22.930000
56.226484	15.620000
58.815184	19.590000
61.405311	18.730000
63.990439	14.490000
66.576995	18.110000
69.162837	13.800000
71.745825	17.280000
74.330239	22.630000
76.907525	14.120000
79.488377	22.820000
82.066380	18.870000
84.643673	20.930000
87.222392	21.250000
89.796129	18.550000
92.371294	20.890000
94.943615	18.840000
97.515228	24.240000
100.084001	23.800000
102.654201	24.310000
105.221563	33.110000
107.790350	32.890000
110.356301	33.200000
112.919417	41.410000
115.486089	45.680000
118.043540	58.630000
120.606676	75.430000
123.164852	100.330000
125.726583	153.510000
128.283357	224.640000
130.841558	333.760000
133.394805	491.270000
135.947355	694.140000
138.503455	783.180000
141.054607	828.570000
143.605062	851.400000
146.154819	865.140000
148.701757	888.700000
151.248000	889.830000
153.795668	902.470000
156.342640	904.310000
158.884677	893.340000
161.426020	891.720000
163.966670	892.170000
166.508746	894.220000
169.048010	888.410000
171.584466	890.470000
174.120230	883.930000
176.657420	890.540000
179.193919	885.390000
181.727612	877.670000
184.258501	879.160000
186.788703	884.740000
189.320329	879.100000
191.849154	882.800000
194.375180	877.630000
196.900520	882.890000
199.427285	883.000000
201.951254	882.760000
204.474538	886.760000
206.997137	880.930000
209.516943	882.600000
212.036066	883.310000
214.554506	883.700000
217.074370	886.910000
219.587233	888.790000
222.103627	882.980000
224.619339	885.360000
227.130161	891.800000
229.642408	888.880000
232.151873	887.830000
234.660659	895.450000
237.168766	894.180000
239.678298	890.710000
242.182949	898.150000
244.686924	897.940000
247.192323	900.600000
249.692847	897.180000
252.196895	892.670000
254.693971	896.470000
257.194571	902.650000
259.692399	897.300000
262.189554	902.910000
264.686036	905.990000
267.177655	904.730000
269.672794	901.540000
272.165166	901.590000
274.656868	905.490000
277.145807	903.520000
279.636170	903.140000
282.123770	904.970000
284.608611	906.890000
287.096967	906.290000
289.578383	910.680000
292.063313	912.360000
294.543398	909.290000
297.026995	909.660000
299.505749	911.030000
301.985927	919.970000
304.463352	915.320000
306.940114	910.310000
309.416213	923.560000
311.889563	928.330000
314.362251	945.680000
316.834278	966.320000
319.305644	998.410000
321.774265	1018.430000
324.242228	1016.640000
326.711612	981.140000
329.176174	958.190000
331.644240	952.520000
334.107486	935.880000
336.570074	944.420000
339.032006	935.460000
341.493281	926.590000
343.951822	931.380000
346.411785	925.950000
348.869015	928.730000
351.325591	929.200000
353.781513	934.460000
356.234705	932.200000
358.689320	926.770000
361.139133	933.820000
363.592442	930.200000
366.040953	931.930000
368.488812	929.220000
370.938094	925.460000
373.382582	931.830000
375.828492	929.770000
378.273752	919.090000
380.716294	929.830000
383.158188	932.330000
385.599435	930.740000
388.037966	930.530000
390.477919	928.650000
392.915158	932.490000
395.349685	931.890000
397.787700	931.990000
400.220938	931.750000
402.655597	919.890000
405.085484	930.120000
407.518856	929.740000
409.947458	929.730000
412.375418	926.560000
414.804800	925.760000
417.229416	931.330000
419.655454	929.220000
422.080851	930.030000
424.505608	928.300000
426.925607	930.350000
429.347027	940.830000
431.765750	936.880000
434.185894	935.860000
436.603343	930.190000
439.022212	930.010000
441.438388	938.430000
443.849816	937.420000
446.264722	926.520000
448.676937	934.760000
451.088518	933.310000
453.499465	935.140000
455.907726	928.990000
458.315354	929.130000
460.722350	928.560000
463.128715	922.960000
465.532397	913.850000
467.935449	913.980000
470.337871	914.250000
472.739663	914.060000
475.138778	917.800000
477.539312	911.770000
479.939217	910.740000
482.334399	910.900000
484.733048	916.450000
487.126977	917.970000
489.520280	917.110000
491.912957	908.250000
494.305009	899.660000
496.698479	887.390000
499.087237	880.860000
501.473329	871.170000
503.860841	862.560000
506.247730	856.980000
508.631955	844.040000
511.017598	840.140000
513.400580	830.050000
515.780901	825.770000
518.162641	820.850000
520.541722	815.500000
522.922222	820.020000
525.300064	813.810000
527.675251	807.810000
530.049820	807.200000
532.425807	808.090000
534.799142	805.320000
537.173894	804.150000
539.543961	801.650000
541.913412	799.660000
544.284281	798.540000
546.650470	799.340000
549.018077	801.720000
551.383038	790.400000
553.747386	791.430000
556.111121	794.820000
558.476274	795.160000
560.836755	789.260000
563.198654	787.580000
565.557912	788.060000
567.914533	787.410000
570.274598	785.020000
572.627972	782.530000
574.984791	784.520000
577.338975	788.800000
579.692551	779.320000
582.045518	786.460000
584.395853	781.450000
586.747606	783.710000
589.092682	781.020000
591.443222	781.160000
593.787088	779.010000
596.136416	784.130000
598.481095	780.100000
600.823150	778.480000
603.166622	777.690000
605.507471	782.210000
607.847718	782.430000
610.185344	776.460000
612.526405	780.300000
614.862828	772.560000
617.200668	768.050000
619.535891	771.530000
621.868498	762.950000
624.202521	773.230000
626.533930	770.720000
628.864741	769.600000
631.194955	765.920000
633.524570	761.800000
635.849563	765.500000
638.179996	762.170000
640.505809	764.890000
642.829014	770.810000
645.153636	770.190000
647.475652	763.510000
649.797074	759.130000
652.115894	762.350000
654.436129	757.030000
656.755771	758.090000
659.072812	764.940000
661.389261	762.350000
663.703112	758.940000
666.018379	759.910000
668.331049	763.540000
670.645134	762.810000
672.954619	753.860000
675.265520	768.820000
677.573828	748.000000
679.881548	760.590000
682.190682	760.300000
684.495224	754.480000
686.799180	755.750000
689.102550	751.190000
691.407334	751.080000
693.707532	752.250000
696.009144	748.270000
698.310172	745.860000
700.606617	747.950000
702.904478	746.700000
705.201755	747.230000
707.498449	745.200000
709.790567	744.080000
712.086096	745.660000
714.377051	751.660000
716.669421	750.090000
718.959216	747.820000
721.248430	748.430000
723.537065	745.660000
725.823127	750.620000
728.110604	755.780000
730.395509	750.150000
732.679837	757.850000
734.961596	753.320000
737.244769	747.730000
739.527365	751.250000
741.805405	753.690000
744.084860	754.740000
746.363738	756.450000
748.642042	751.780000
750.915796	749.790000
753.190963	756.230000
755.465557	756.700000
757.737592	756.810000
760.011040	753.630000
762.281930	756.190000
764.550264	757.510000
766.820011	758.830000
769.087204	753.770000
771.353826	760.810000
773.619878	758.740000
775.883379	767.180000
778.148293	763.340000
780.412637	767.470000
782.672452	761.860000
784.933679	767.580000
787.194339	765.350000
789.452453	761.840000
791.708022	758.280000
793.966982	760.670000
796.219443	766.190000
798.477270	766.710000
800.730579	758.980000
802.981348	765.720000
805.233529	762.330000
807.483171	758.440000
809.734226	754.390000
811.980769	758.630000
814.228724	751.490000
816.474145	754.800000
818.720977	750.250000
820.967248	751.960000
823.209014	753.460000
825.454164	752.870000
827.692841	747.420000
829.934900	754.290000
832.172461	751.290000
834.411434	749.120000
836.647880	747.330000
838.885737	745.820000
841.121069	751.690000
843.353878	749.160000
845.588098	748.060000
847.819795	749.330000
850.050938	743.940000
852.281526	741.810000
854.511560	744.490000
856.741040	736.820000
858.966038	748.100000
861.194411	750.640000
863.418304	750.000000
865.643609	747.090000
867.864438	745.970000
870.088639	745.590000
872.308367	743.310000
874.529505	745.960000
876.750094	740.850000
878.968172	745.130000
881.187660	743.150000
883.402682	747.760000
885.617157	747.430000
887.831083	748.750000
890.044463	740.280000
892.257295	741.690000
894.469581	742.290000
896.679364	745.920000
898.888602	743.230000
901.097295	745.430000
903.303489	743.010000
905.511092	746.440000
907.716197	743.400000
909.920759	747.250000
912.122826	747.570000
914.326302	747.510000
916.527284	745.300000
918.727724	748.970000
920.929573	749.510000
923.125031	750.250000
925.323848	747.170000
927.518226	750.240000
929.715962	742.340000
931.909262	744.050000
934.103971	745.190000
936.296194	747.180000
938.487878	746.670000
940.679025	751.420000
942.867689	749.450000
945.055817	750.740000
947.241464	754.630000
949.430463	760.600000
951.615039	758.000000
953.799080	755.650000
955.986471	755.540000
958.165558	762.960000
960.347996	763.000000
962.529900	764.050000
964.709329	764.000000
966.886286	767.800000
969.064651	766.710000
971.244423	775.610000
973.417846	772.390000
975.594615	774.790000
977.766977	778.680000
979.940747	782.920000
982.110113	775.360000
984.282823	781.800000
986.453068	776.270000
988.622784	779.310000
990.791971	779.260000
992.956761	781.730000
995.124892	788.420000
997.288629	789.170000
999.453772	787.790000
1001.616456	791.560000
1003.778615	793.150000
1005.938317	792.540000
1008.097494	799.280000
1010.258078	792.910000
1012.416208	790.330000
1014.573813	793.300000
1016.730895	798.410000
1018.887453	802.070000
1021.039632	796.280000
1023.193218	803.580000
1025.346282	806.740000
1027.496897	804.370000
1029.648919	807.220000
1031.796567	806.800000
1033.947547	810.340000
1036.094156	813.010000
1038.240246	812.970000
1040.385818	813.600000
1042.532795	809.120000
1044.673483	815.530000
1046.817501	816.630000
1048.959078	812.900000
1051.100139	818.250000
1053.242604	821.890000
1055.378790	818.470000
1057.518301	822.620000
1059.653458	821.520000
1061.791939	825.320000
1063.926066	824.310000
1066.059680	823.960000
1068.194699	820.610000
1070.325368	829.330000
1072.457442	821.140000
1074.587087	820.830000
1076.716220	819.470000
1078.844841	813.980000
1080.972951	814.620000
1083.098635	804.410000
1085.223809	809.120000
1087.350387	811.120000
1089.472627	808.540000
1091.596272	805.340000
1093.715582	802.060000
1095.840122	801.480000
1097.958416	797.990000
1100.078115	798.480000
1102.195395	796.500000
1104.312169	791.770000
1106.428436	799.720000
1108.542287	795.830000
1110.657543	786.960000
1112.768475	794.620000
1114.882720	787.860000
1116.992644	784.480000
1119.103972	790.810000
1121.214795	788.700000
1123.321302	790.930000
1125.431119	782.280000
1127.536621	784.540000
1129.643526	781.440000
1131.744216	781.330000
1133.850118	780.820000
1135.951711	783.520000
1138.054707	781.800000
1140.157202	773.330000
1142.253490	781.580000
1144.354986	773.220000
1146.452178	772.280000
1148.548873	775.270000
1150.645069	775.320000
1152.740768	775.950000
1154.835968	773.830000
1156.928772	776.440000
1159.022979	771.800000
1161.110994	771.840000
1163.204207	771.400000
1165.291232	768.340000
1167.381556	772.420000
1169.467593	770.540000
1171.556927	773.830000
1173.640080	774.430000
1175.724635	775.070000
1177.810592	766.920000
1179.892267	769.300000
1181.975344	764.530000
1184.056035	772.010000
1186.136234	769.460000
1188.215942	764.580000
1190.295159	770.790000
1192.371994	769.030000
1194.446448	770.100000
1196.524193	768.080000
1198.597669	766.640000
1200.672545	764.800000
1202.743154	763.790000
1204.815164	771.290000
1206.884799	767.420000
1208.955834	768.620000
1211.026381	762.070000
1213.092667	760.640000
1215.160354	768.570000
1217.225669	767.710000
1219.292384	763.940000
1221.354843	769.530000
1223.420587	758.700000
1225.482077	767.270000
1227.544968	759.230000
1229.605491	761.870000
1231.665530	759.810000
1233.725087	763.350000
1235.782278	759.630000
1237.838988	765.130000
1239.893334	767.910000
1241.950962	763.810000
1244.006227	765.200000
1246.057251	765.080000
1248.109675	757.900000
1250.161619	767.730000
1252.211205	762.670000
1254.260312	766.170000
1256.308941	764.870000
1258.357091	764.440000
1260.404762	762.980000
1262.448203	766.360000
1264.494920	770.290000
1266.539283	768.320000
1268.583170	767.560000
1270.624705	771.850000
1272.663891	767.330000
1274.706350	779.590000
1276.744586	770.790000
1278.784221	776.460000
1280.823381	771.150000
1282.858322	779.880000
1284.894662	774.210000
1286.928658	777.360000
1288.964051	783.440000
1290.995232	783.710000
1293.027810	787.760000
1295.059917	788.430000
1297.089683	793.560000
1299.120847	791.350000
1301.147803	797.630000
1303.176157	796.650000
1305.200307	803.300000
1307.227721	808.390000
1309.250933	815.640000
1311.275543	824.600000
1313.297819	827.390000
1315.321492	833.780000
1317.342832	833.960000
1319.363704	854.410000
1321.384109	856.150000
1323.400321	863.110000
1325.417930	867.410000
1327.433211	882.610000
1329.451751	886.300000
1331.466102	894.010000
1333.478127	899.110000
1335.493409	903.680000
1337.504506	903.750000
1339.517000	915.410000
1341.525311	914.080000
1343.536877	910.110000
1345.542405	914.170000
1347.551188	905.730000
1349.555793	907.820000
1351.563652	908.480000
1353.571049	903.100000
1355.572415	889.960000
1357.575177	873.370000
1359.577480	871.940000
1361.579323	848.770000
1363.580706	838.340000
1365.579776	835.040000
1367.578387	826.010000
1369.576540	819.790000
1371.574234	813.500000
1373.567766	805.740000
1375.562694	800.360000
1377.557164	798.350000
1379.551178	792.140000
1381.542885	787.090000
1383.534137	781.840000
1385.523083	779.130000
1387.513424	778.160000
1389.503310	773.290000
1391.490892	777.750000
1393.478021	772.320000
1395.462848	779.230000
1397.449070	772.460000
1399.432992	771.600000
1401.416461	772.000000
1403.399477	776.620000
1405.380196	771.900000
1407.362309	776.310000
1409.342126	766.610000
1411.321491	772.000000
1413.296718	770.480000
1415.275183	770.000000
1417.251355	769.680000
1419.227078	766.350000
1421.202351	762.800000
1423.175333	761.260000
1425.147867	767.820000
1427.119953	765.450000
1429.091592	767.600000
1431.059102	766.790000
1433.031686	769.000000
1434.996465	770.340000
1436.966315	771.410000
1438.932042	772.160000
1440.899161	763.500000
1442.863997	763.760000
1444.824713	768.920000
1446.790497	767.080000
1448.750326	771.430000
1450.711549	767.450000
1452.674164	770.160000
1454.632664	770.460000
1456.590721	771.060000
1458.548337	775.150000
1460.505510	766.590000
1462.460408	774.290000
1464.416699	767.690000
1466.370715	774.800000
1468.324290	769.800000
1470.275593	776.450000
1472.228289	770.990000
1474.178712	776.990000
1476.128697	770.660000
1478.078243	776.720000
1480.025520	782.570000
1481.970529	778.280000
1483.916931	778.110000
1485.862895	781.450000
1487.808422	785.730000
1489.751683	782.500000
1491.694509	783.360000
1493.635071	786.110000
1495.577024	779.410000
1497.516715	784.810000
1499.455972	787.940000
1501.394793	785.230000
1503.331355	791.940000
1505.269308	795.130000
1507.205002	794.750000
1509.140263	799.570000
1511.073268	797.300000
1513.005840	802.160000
1514.937980	805.100000
1516.869688	813.630000
1518.799142	816.520000
1520.729987	819.710000
1522.660400	819.090000
1524.586741	832.880000
1526.514473	835.620000
1528.439954	845.380000
1530.365006	853.680000
1532.289629	859.350000
1534.213823	870.080000
1536.135769	884.160000
1538.059106	901.060000
1539.980196	929.430000
1541.899043	951.380000
1543.819278	987.700000
1545.737271	1018.300000
1547.654837	1063.870000
1549.570161	1124.390000
1551.486875	1195.670000
1553.399534	1278.200000
1555.315397	1381.270000
1557.229020	1485.200000
1559.140406	1602.030000
1561.053180	1710.210000
1562.961905	1806.590000
1564.872019	1886.850000
1566.781710	1895.660000
1568.690978	1882.840000
1570.598012	1823.490000
1572.502813	1733.510000
1574.409003	1635.270000
1576.312961	1534.750000
1578.216498	1431.360000
1580.119615	1331.060000
1582.020502	1244.430000
1583.922778	1171.730000
1585.822826	1109.580000
1587.724261	1061.640000
1589.621663	1018.770000
1591.518646	990.540000
1593.415211	961.130000
1595.313164	950.200000
1597.205282	940.200000
1599.100593	923.620000
1600.995487	918.930000
1602.888159	910.730000
1604.780414	903.330000
1606.670450	899.830000
1608.560070	891.030000
1610.449275	874.860000
1612.338065	860.640000
1614.224637	852.060000
1616.112597	836.930000
1617.996540	832.610000
1619.881870	821.130000
1621.766787	809.300000
1623.649490	803.380000
1625.533580	797.320000
1627.413658	794.720000
1629.295124	786.500000
1631.174379	787.740000
1633.055020	778.090000
1634.929857	780.330000
1636.809675	773.980000
1638.685489	773.180000
1640.560892	770.000000
1642.437681	776.050000
1644.308674	768.140000
1646.182848	774.010000
1648.053023	767.910000
1649.926380	768.100000
1651.797533	767.680000
1653.666484	761.870000
1655.536820	761.480000
1657.403164	763.710000
1659.270893	761.400000
1661.136423	759.090000
1663.003339	761.220000
1664.866266	752.490000
1666.730578	753.060000
1668.592694	758.060000
1670.454405	751.990000
1672.317502	756.500000
1674.178403	750.400000
1676.037112	756.270000
1677.895417	746.510000
1679.755107	754.510000
1681.609029	748.520000
1683.466125	755.570000
1685.322818	751.910000
1687.175534	753.130000
1689.031422	748.290000
1690.883336	754.320000
1692.734849	746.640000
1694.585961	749.040000
1696.436673	746.730000
1698.286984	749.090000
1700.135110	742.780000
1701.984621	748.310000
1703.828383	747.060000
1705.677094	748.850000
1707.520059	745.020000
1709.366191	753.020000
1711.208360	745.490000
1713.053695	751.460000
1714.893289	754.430000
1716.734267	740.800000
1718.576628	752.160000
1720.415033	750.170000
1722.254821	747.800000
1724.092434	752.420000
1725.929651	746.810000
1727.764695	751.290000
1729.601122	745.570000
1731.435377	747.110000
1733.269237	745.220000
1735.102703	753.910000
1736.932224	742.700000
1738.764903	746.930000
1740.593638	747.370000
1742.425530	746.960000
1744.253480	747.280000
1746.081039	738.010000
1747.908205	742.160000
1749.734980	744.560000
1751.561363	741.130000
1753.383810	746.460000
1755.209412	749.100000
1757.031079	745.990000
1758.854128	743.050000
1760.675015	745.480000
1762.495514	738.430000
1764.317394	743.240000
1766.133574	743.630000
1767.952906	744.930000
1769.768311	735.480000
1771.586866	744.160000
1773.401496	739.280000
1775.215739	740.800000
1777.029596	741.000000
1778.843066	738.250000
1780.654383	735.950000
1782.467080	743.660000
1784.279392	743.320000
1786.087786	740.480000
1787.897560	740.890000
1789.703420	742.180000
1791.512425	737.750000
1793.317517	737.160000
1795.123990	740.070000
1796.930079	741.720000
1798.732257	745.140000
1800.537580	738.880000
1802.338994	737.370000
1804.141788	746.570000
1805.940676	733.300000
1807.740945	737.820000
1809.540832	739.210000
1811.338577	740.630000
1813.135942	736.420000
1814.932927	744.340000
1816.729531	739.010000
1818.523996	739.850000
1820.319840	733.760000
1822.110029	739.400000
1823.905115	736.960000
1825.694549	740.110000
1827.487119	741.400000
1829.277554	740.360000
1831.065855	742.320000
1832.857291	743.930000
1834.643081	737.760000
1836.430251	738.550000
1838.215289	737.250000
1840.003461	739.190000
1841.787747	742.780000
1843.569903	738.410000
1845.353439	737.330000
1847.134846	745.310000
1848.917632	738.150000
1850.696537	742.830000
1852.476822	743.970000
1854.254980	740.950000
1856.034517	736.590000
1857.811929	740.750000
1859.587217	741.410000
1861.363883	739.710000
1863.138427	740.780000
1864.914349	734.790000
1866.684650	739.750000
1868.458079	737.980000
1870.229388	735.280000
1872.000326	735.570000
1873.772642	740.470000
1875.539344	742.490000
1877.309172	732.970000
1879.075136	746.370000
1880.844223	733.140000
1882.609449	733.320000
1884.374307	738.590000
1886.140542	737.750000
1887.902918	740.950000
1889.664927	740.320000
1891.426568	732.090000
1893.187843	736.680000
1894.948750	736.750000
1896.709291	738.300000
1898.467722	738.050000
1900.225787	738.280000
1901.981745	736.720000
1903.739079	736.340000
1905.496048	729.570000
1907.250910	742.140000
1909.003668	728.980000
1910.756061	738.920000
1912.509831	735.520000
1914.261497	735.290000
1916.011061	731.630000
1917.762000	732.240000
1919.512577	737.520000
1921.259314	733.330000
1923.007428	738.930000
1924.753442	737.710000
1926.500831	738.960000
1928.246123	733.730000
1929.989317	738.410000
1931.733886	736.510000
1933.476360	738.540000
1935.218473	734.030000
1936.960226	739.840000
1938.701619	738.450000
1940.440919	736.090000
1942.179860	745.930000
1943.918442	737.000000
1945.654933	747.460000
1947.391066	745.575000
1949.128573	743.690000
1950.862258	734.290000
1952.597318	736.010000
1954.330289	739.300000
1956.062904	744.860000
1957.795163	733.960000
1959.527065	738.560000
1961.256881	734.100000
1962.984612	740.390000
1964.713718	734.620000
1966.442469	734.580000
1968.169136	731.870000
1969.895449	734.770000
1971.623135	737.700000
1973.345285	736.540000
1975.070536	736.900000
1976.791980	737.170000
1978.516525	736.030000
1980.238989	737.990000
1981.957651	737.760000
1983.679411	743.190000
1985.397369	737.750000
1987.116700	737.690000
1988.832232	741.160000
1990.552584	738.820000
1992.269138	743.160000
1993.981895	738.210000
1995.697748	736.900000
1997.411529	741.420000
1999.124960	733.030000
2000.836320	741.390000
2002.549052	741.970000
2004.257994	738.480000
2005.970028	738.930000
2007.676554	739.730000
2009.386171	737.470000
2011.093722	742.830000
2012.800924	737.440000
2014.506061	740.970000
2016.210852	738.300000
2017.917014	743.350000
2019.619394	740.980000
2021.323145	736.440000
2023.024834	741.030000
2024.726178	739.070000
2026.427176	739.460000
2028.126113	731.970000
2029.826422	736.380000
2031.522956	740.750000
2033.220861	737.150000
2034.916707	738.260000
2036.615639	739.210000
2038.309085	738.990000
2040.003902	735.680000
2041.698377	733.490000
2043.389083	735.710000
2045.082873	739.160000
2046.772896	735.320000
2048.464290	734.700000
2050.153631	738.700000
2051.844342	739.640000
2053.531290	737.520000
2055.217899	735.830000
2056.905877	733.000000
2058.590096	736.820000
2060.275686	731.590000
2061.960936	735.170000
2063.644137	732.490000
2065.328709	733.460000
2067.007818	735.320000
2068.691712	736.410000
2070.370145	731.070000
2072.051656	732.240000
2073.729415	731.690000
2075.406838	736.340000
2077.085630	736.090000
2078.762380	732.800000
2080.437088	734.590000
2082.113165	737.320000
2083.787202	734.620000
2085.460903	736.150000
2087.134269	728.630000
2088.805596	733.120000
2090.476590	732.110000
2092.147248	732.770000
2093.817573	731.650000
2095.487564	731.140000
2097.155519	734.270000
2098.823141	737.110000
2100.488728	729.980000
2102.155684	734.610000
2103.820607	735.060000
2105.485198	733.660000
2107.147757	730.780000
2108.811684	736.760000
2110.473580	730.070000
2112.135146	735.390000
2113.796380	736.280000
2115.455586	740.470000
2117.114461	736.480000
2118.773007	739.550000
2120.431223	733.450000
2122.085715	728.600000
2123.743272	733.780000
2125.400500	737.880000
2127.054006	733.730000
2128.708880	732.620000
2130.360035	729.260000
2132.014253	736.610000
2133.664754	731.910000
2135.316621	730.460000
2136.963080	731.650000
2138.614294	734.600000
2140.261794	732.760000
2141.910661	736.340000
2143.557509	738.800000
2145.204032	741.740000
2146.850229	731.660000
2148.492718	736.170000
2150.138265	738.410000
2151.780105	737.660000
2153.425002	735.400000
2155.066194	740.310000
2156.707062	735.430000
2158.347606	731.440000
2159.986138	732.260000
2161.626036	734.470000
2163.262234	735.160000
2164.899798	731.760000
2166.537040	731.470000
2168.172272	736.200000
2169.807183	730.640000
2171.441771	739.980000
2173.076039	734.550000
2174.706613	740.610000
2176.340239	736.810000
2177.970173	737.650000
2179.601472	732.670000
2181.230766	734.760000
2182.859741	736.370000
2184.488396	735.490000
2186.116732	735.480000
2187.743066	741.360000
2189.369081	734.220000
2190.993094	734.620000
2192.618473	734.500000
2194.241851	733.120000
2195.866594	740.220000
2197.487656	737.880000
2199.108401	737.990000
2200.730511	734.500000
2202.350623	735.630000
2203.968738	736.120000
2205.586538	732.850000
2207.204023	729.670000
2208.821192	736.180000
2210.438046	733.530000
2212.054584	732.540000
2213.669130	733.460000
2215.281683	736.050000
2216.895600	736.850000
2218.507526	734.250000
2220.120815	738.120000
2221.732114	734.150000
2223.341423	728.750000
2224.952096	735.200000
2226.560780	732.940000
2228.169151	731.830000
2229.775536	734.560000
2231.383284	724.310000
2232.989045	735.160000
2234.594495	732.580000
2236.197960	733.320000
2237.802788	733.660000
2239.405632	731.990000
2241.006493	730.340000
2242.608717	740.440000
2244.208959	737.070000
2245.810563	740.660000
2247.408514	738.720000
2249.007828	734.200000
2250.605162	734.030000
2252.202188	735.030000
2253.800576	737.260000
2255.395315	734.050000
2256.988077	732.710000
2258.582202	733.060000
2260.177688	731.590000
2261.769529	731.190000
2263.361064	735.330000
2264.953961	734.020000
2266.541548	734.840000
2268.133831	737.950000
2269.720808	731.150000
2271.310812	729.990000
2272.895512	737.150000
2274.484906	742.070000
2276.068998	736.190000
2277.654450	738.360000
2279.237934	734.550000
2280.824443	735.400000
2282.407319	734.130000
2283.989892	733.550000
2285.572161	731.460000
2287.150800	737.670000
2288.732464	738.290000
2290.310499	736.900000
2291.891557	735.210000
2293.468988	734.680000
2295.044456	734.150000
2296.622946	730.520000
2298.197812	733.020000
2299.772377	731.670000
2301.346642	731.820000
2302.920606	735.920000
2304.494269	729.480000
2306.067633	733.070000
2307.637378	737.770000
2309.206824	730.140000
2310.779288	731.650000
2312.346478	733.950000
2313.916686	736.850000
2315.483279	728.090000
2317.051232	738.760000
2318.617229	739.020000
2320.182929	734.390000
2321.748331	738.980000
2323.311780	735.830000
2324.876588	741.460000
2326.437788	752.130000
2328.002002	761.930000
2329.560954	763.560000
2331.122921	754.630000
2332.682936	742.290000
2334.242657	736.540000
2335.800428	731.350000
2337.357904	733.320000
2338.915086	734.760000
2340.470320	736.090000
2342.025261	738.680000
2343.579907	738.980000
2345.134260	737.250000
2346.688320	737.680000
2348.242085	741.140000
2349.793907	736.720000
2351.343785	735.500000
2352.896671	738.170000
2354.444315	737.630000
2355.994966	741.080000
2357.542026	737.160000
2359.090444	740.870000
2360.638571	737.880000
2362.183109	740.360000
2363.729005	738.410000
2365.272963	741.000000
2366.818278	739.930000
2368.360008	747.380000
2369.903095	737.690000
2371.444246	738.250000
2372.985108	743.350000
2374.525681	742.240000
2376.065965	740.250000
2377.605960	743.720000
2379.142377	740.010000
2380.681795	747.220000
2382.217636	742.530000
2383.754833	743.990000
2385.288455	748.050000
2386.825077	748.590000
2388.359769	742.860000
2389.892531	750.660000
2391.425006	747.240000
2392.955553	754.280000
2394.489098	746.350000
2396.017432	746.960000
2397.547123	746.390000
2399.076527	751.460000
2400.605647	750.560000
2402.134482	752.770000
2403.658111	756.200000
2405.186376	749.980000
2406.709439	756.380000
2408.237135	758.470000
2409.757992	753.170000
2411.283482	760.650000
2412.805411	756.240000
2414.328696	769.630000
2415.850059	762.760000
2417.369503	763.260000
2418.890302	769.520000
2420.409183	767.420000
2421.927781	766.780000
2423.444462	771.410000
2424.962497	767.060000
2426.480251	768.080000
2427.994454	768.340000
2429.508376	773.160000
2431.022018	767.000000
2432.537015	769.210000
2434.048463	767.190000
2435.561266	771.880000
2437.072155	775.170000
2438.582766	771.060000
2440.091465	771.900000
2441.603150	772.070000
2443.111292	773.000000
2444.619156	769.010000
2446.126742	764.580000
2447.630787	767.640000
2449.137817	766.600000
2450.642940	767.920000
2452.147784	774.300000
2453.650722	764.660000
2455.153384	767.370000
2456.655769	766.970000
2458.156249	765.430000
2459.658082	765.700000
2461.158010	764.920000
2462.657663	762.300000
2464.157041	755.810000
2465.654516	759.950000
2467.150089	754.860000
2468.648642	755.260000
2470.143667	758.230000
2471.640044	758.870000
2473.132895	750.510000
2474.627099	759.680000
2476.121029	754.870000
2477.611435	759.970000
2479.104819	750.620000
2480.596305	750.180000
2482.085894	754.660000
2483.575211	753.540000
2485.062632	749.530000
2486.553029	752.840000
2488.039908	752.980000
2489.528138	757.470000
2491.012851	753.700000
2492.497295	747.010000
2493.983089	750.400000
2495.466992	751.090000
2496.952245	750.040000
2498.432365	749.370000
2499.915458	742.590000
2501.396660	754.910000
2502.877593	752.930000
2504.356637	752.670000
2505.835412	748.020000
2507.313919	747.710000
2508.792158	752.430000
2510.270128	751.960000
2511.744593	748.690000
2513.222028	748.730000
2514.695959	753.800000
2516.171240	757.640000
2517.646254	754.680000
2519.117768	753.680000
2520.590631	750.790000
2522.061612	750.920000
2523.533943	747.210000
2525.001160	755.030000
2526.471344	753.320000
2527.939647	752.390000
2529.407685	754.940000
2530.875458	755.870000
2532.342966	751.410000
2533.810209	754.750000
2535.273960	756.390000
2536.739061	757.940000
2538.202285	757.300000
2539.666859	758.680000
2541.127943	755.110000
2542.590377	755.480000
2544.052548	760.210000
2545.511233	762.880000
2546.974490	758.470000
2548.432650	758.930000
2549.892159	761.180000
2551.346574	763.240000
2552.805560	765.080000
2554.262674	764.900000
2555.717917	757.820000
2557.172898	766.080000
2558.626011	759.330000
2560.080472	761.840000
2561.533063	766.300000
2562.985395	769.350000
2564.435860	764.250000
2565.889280	765.090000
2567.337618	765.530000
2568.788912	774.390000
2570.238339	770.800000
2571.684294	771.470000
2573.133204	770.560000
2574.578644	766.320000
2576.025431	773.140000
2577.470356	775.670000
2578.915022	777.580000
2580.361036	782.360000
2581.803584	774.490000
2583.247479	779.510000
2584.687909	781.480000
2586.129686	782.420000
2587.569604	780.550000
2589.010869	784.960000
2590.448672	784.200000
2591.889425	783.520000
2593.325116	785.990000
2594.763756	791.840000
2596.200538	790.920000
2597.635465	790.750000
2599.073339	791.170000
2600.506156	798.400000
2601.940320	796.240000
2603.372630	802.180000
2604.806286	801.380000
2606.238089	802.100000
2607.669638	806.800000
2609.100935	804.830000
2610.530379	815.910000
2611.959571	816.460000
2613.386913	818.250000
2614.815600	818.890000
2616.244036	819.310000
2617.669024	826.410000
2619.095359	830.910000
2620.519845	832.880000
2621.945677	834.950000
2623.368065	844.770000
2624.791799	843.440000
2626.213686	852.980000
2627.635324	853.370000
2629.055116	860.560000
2630.476254	857.980000
2631.897142	870.260000
2633.314592	878.400000
2634.734981	878.170000
2636.151933	889.950000
2637.568636	897.440000
2638.985091	890.390000
2640.401298	897.730000
2641.817257	902.120000
2643.231375	910.720000
2644.645245	921.630000
2646.057277	925.060000
2647.470652	927.960000
2648.880598	930.340000
2650.293480	944.530000
2651.702933	955.390000
2653.112140	955.110000
2654.519511	969.040000
2655.929816	978.810000
2657.338286	985.750000
2658.744920	985.150000
2660.151309	1000.580000
2661.555864	1001.770000
2662.961763	1013.330000
2664.365829	1017.950000
2665.769650	1024.970000
2667.173227	1031.320000
2668.574973	1043.740000
2669.978062	1052.610000
2671.377733	1056.980000
2672.778748	1059.230000
2674.176347	1063.370000
2675.576876	1065.150000
2676.973989	1066.120000
2678.372446	1071.490000
2679.769076	1074.770000
2681.165463	1074.680000
2682.561608	1066.110000
2683.955928	1060.880000
2685.351589	1064.490000
2686.743842	1062.130000
2688.137437	1061.940000
2689.529208	1060.980000
2690.922322	1052.490000
2692.313612	1054.710000
2693.703079	1054.180000
2695.092306	1044.780000
2696.481294	1042.580000
2697.871623	1033.860000
2699.256969	1035.690000
2700.645238	1026.550000
2702.031687	1021.700000
2703.417897	1008.040000
2704.803868	1006.460000
2706.186441	996.260000
2707.570356	992.290000
2708.954033	981.070000
2710.337471	976.800000
2711.717515	963.770000
2713.098899	959.420000
2714.478469	954.240000
2715.859379	938.730000
2717.238475	931.270000
2718.615757	924.500000
2719.994380	911.860000
2721.371190	903.220000
2722.747763	890.080000
2724.124101	890.080000
2725.498628	875.560000
2726.874495	874.290000
2728.246975	863.530000
2729.622371	860.050000
2730.992807	849.920000
2732.364584	844.920000
2733.736126	836.200000
2735.105860	831.550000
2736.476935	822.470000
2737.846201	819.690000
2739.215234	813.980000
2740.582461	812.540000
2741.949455	808.590000
2743.316215	805.350000
2744.682744	798.750000
2746.047467	797.180000
2747.411958	791.720000
2748.776218	787.960000
2750.140245	787.420000
2751.504041	787.170000
2752.864463	784.850000
2754.227795	781.880000
2755.586185	775.350000
2756.947485	776.430000
2758.305415	771.840000
2759.666253	772.690000
2761.025292	773.280000
2762.380962	766.530000
2763.739540	766.640000
2765.094751	763.830000
2766.449733	764.820000
2767.802919	765.030000
2769.159011	763.640000
2770.511738	766.530000
2771.864238	764.870000
2773.216509	760.590000
2774.570119	757.540000
2775.920367	758.110000
2777.268821	757.100000
2778.620181	761.490000
2779.968181	754.850000
2781.317519	758.530000
2782.665066	756.740000
2784.012385	756.280000
2785.359478	751.510000
2786.704780	758.200000
2788.049855	753.230000
2789.394705	752.960000
2790.739329	741.260000
2792.080601	753.830000
2793.423211	751.820000
2794.765595	746.930000
2796.107754	752.480000
2797.446564	750.930000
2798.788274	747.700000
2800.126636	746.890000
2801.466334	745.790000
2802.804248	751.430000
2804.140377	745.240000
2805.476282	744.560000
2806.813525	748.820000
2808.148984	750.010000
2809.484220	742.550000
2810.817673	747.310000
2812.152463	749.480000
2813.483913	750.030000
2814.818258	746.510000
2816.147705	749.300000
2817.478489	750.920000
2818.809051	750.550000
2820.137834	742.750000
2821.467953	744.300000
2822.796294	740.910000
2824.124414	743.370000
2825.450756	747.320000
2826.778435	738.710000
2828.102780	740.860000
2829.428462	747.290000
2830.752368	737.170000
2832.076055	742.030000
2833.401077	740.360000
2834.722769	739.430000
2836.044243	738.000000
2837.365498	739.890000
2838.686534	740.560000
2840.005797	738.350000
2841.326396	738.020000
2842.645224	741.960000
2843.963833	736.410000
2845.280671	735.320000
2846.597292	739.920000
2847.913696	733.040000
2849.228330	736.760000
2850.544300	736.660000
2851.856949	738.150000
2853.170933	740.680000
2854.484701	736.890000
2855.798252	739.420000
2857.110037	740.940000
2858.420055	741.130000
2859.731408	736.650000
2861.039446	728.830000
2862.348818	738.180000
2863.657976	740.340000
2864.966918	741.100000
2866.274096	740.250000
2867.579512	738.320000
2868.886262	740.770000
2870.191249	742.900000
2871.496023	741.740000
2872.799035	732.810000
2874.104928	738.580000
2875.405967	742.290000
2876.708340	740.250000
2878.008953	735.290000
2879.310900	736.900000
2880.612633	740.140000
2881.911063	740.740000
2883.210826	735.260000
2884.508832	738.770000
2885.806626	737.130000
2887.102664	739.940000
2888.400035	731.520000
2889.695650	739.210000
2890.991054	729.000000
2892.286247	740.990000
2893.578143	737.800000
2894.872915	734.690000
2896.164390	737.990000
2897.457198	735.190000
2898.749796	738.680000
2900.039100	735.300000
2901.329736	729.270000
2902.618621	741.180000
2903.908838	733.980000
2905.195764	738.340000
2906.484022	736.440000
2907.770531	742.330000
2909.056832	735.540000
2910.342924	740.010000
2911.627268	737.750000
2912.914483	740.150000
2914.196872	741.160000
2915.480593	741.280000
2916.762568	732.520000
2918.044335	738.160000
2919.324358	736.950000
2920.607250	731.970000
2921.888397	739.760000
2923.166262	740.730000
2924.446996	736.550000
2925.724449	740.490000
2927.001696	735.120000
2928.277201	739.930000
2929.555574	732.050000
2930.829133	736.580000
2932.105559	730.310000
2933.380244	737.270000
2934.653188	732.950000
2935.927464	734.870000
2937.200000	733.630000
2938.472331	733.270000
2939.741390	737.010000
2941.013314	736.470000
2942.283500	732.340000
2943.553482	733.590000
2944.823261	731.060000
2946.091304	731.300000
2947.357610	727.120000
2948.623715	729.830000
2949.891149	728.030000
2951.156849	733.140000
2952.422346	728.810000
2953.687641	728.510000
2954.949671	735.140000
2956.213031	726.380000
2957.476190	725.590000
2958.737617	734.600000
2960.000373	728.030000
2961.261397	726.100000
2962.520691	729.220000
2963.779785	732.520000
2965.038678	729.890000
2966.297371	736.640000
2967.555864	726.950000
2968.812628	731.080000
2970.069192	731.580000
2971.324029	727.220000
2972.580194	728.020000
2973.833105	727.800000
2975.087345	727.060000
2976.341386	736.210000
2977.593701	725.120000
2978.845817	730.420000
2980.096209	725.070000
2981.349456	729.880000
2982.597926	723.590000
2983.849251	728.710000
2985.097326	721.690000
2986.345205	728.880000
2987.592886	724.640000
2988.840370	729.670000
2990.086133	728.090000
2991.331700	726.490000
2992.578594	719.000000
2993.822244	725.000000
2995.067222	726.100000
2996.308956	725.870000
2997.553542	731.110000
2998.796409	723.830000
3000.036035	726.810000
3001.278511	732.140000
3002.517747	723.870000
3003.758311	725.630000
3004.997159	726.210000
3006.235811	723.060000
3007.472749	717.450000
3008.711013	727.040000
3009.947562	724.000000
3011.183918	724.420000
3012.420080	720.900000
3013.654528	726.630000
3014.888784	729.240000
3016.122846	724.980000
3017.355196	722.740000
3018.585834	731.610000
3019.819318	724.780000
3021.051090	725.210000
3022.281152	725.920000
3023.511022	725.890000
3024.739182	719.320000
3025.968668	727.730000
3027.196445	725.190000
3028.424031	721.710000
3029.652944	721.930000
3030.877114	723.360000
3032.104127	719.260000
3033.327916	726.370000
3034.553032	725.050000
3035.776441	719.470000
3036.999660	715.910000
3038.221174	719.830000
3039.445529	721.030000
3040.665149	718.150000
3041.886095	719.470000
3043.106852	718.680000
3044.325905	724.660000
3045.546283	720.790000
3046.763445	723.150000
3047.981933	723.330000
3049.198718	725.400000
3050.415316	721.670000
3051.631725	721.720000
3052.844922	721.290000
3054.060956	716.870000
3055.273778	717.750000
3056.489437	722.430000
3057.700373	728.310000
3058.912634	725.020000
3060.124709	721.300000
3061.336596	721.660000
3062.546787	725.510000
3063.756791	718.670000
3064.966609	724.180000
3066.174731	720.550000
3067.382668	717.200000
3068.588909	717.770000
3069.796475	719.990000
3071.002346	721.095000
3072.208033	722.200000
3073.413534	722.520000
3074.617342	719.410000
3075.822474	711.200000
3077.025913	721.360000
3078.227661	720.680000
3079.429224	722.050000
3080.630604	720.290000
3081.831800	716.530000
3083.031306	714.690000
3084.230629	718.940000
3085.431275	717.580000
3086.630231	717.090000
3087.825993	720.180000
3089.024584	715.410000
3090.219981	719.760000
3091.416701	720.920000
3092.610229	712.370000
3093.806585	720.310000
3095.001255	716.080000
3096.192734	717.860000
3097.388544	719.770000
3098.579661	720.250000
3099.772100	715.620000
3100.961352	717.410000
3102.153429	716.410000
3103.343823	718.620000
3104.531031	721.020000
3105.719562	720.590000
3106.909414	718.180000
3108.096083	716.590000
3109.282571	720.050000
3110.468881	714.570000
3111.656512	719.480000
3112.840961	725.580000
3114.023731	722.230000
3115.209323	714.150000
3116.393236	720.880000
3117.575470	724.220000
3118.757525	718.290000
3119.939402	726.510000
3121.121101	717.170000
3122.301123	720.390000
3123.479468	715.990000
3124.660633	718.110000
3125.838624	715.610000
3127.016437	723.220000
3128.194073	718.310000
3129.370034	713.220000
3130.545818	713.460000
3131.722924	718.440000
3132.898355	715.810000
3134.072113	719.230000
3135.244198	713.770000
3136.417605	722.250000
3137.590835	719.120000
3138.762394	720.470000
3139.935273	718.690000
3141.104985	721.210000
3142.276018	714.150000
3143.445381	720.090000
3144.613073	718.570000
3145.783581	721.870000
3146.949431	720.140000
3148.119589	722.940000
3149.285091	719.270000
3150.450418	717.780000
3151.615572	721.170000
3152.780553	721.930000
3153.946853	722.830000
3155.108501	719.710000
3156.271468	718.350000
3157.434263	717.310000
3158.596885	718.440000
3159.757842	713.930000
3160.918626	718.080000
3162.079238	723.520000
3163.238186	718.440000
3164.396963	712.840000
3165.555568	717.510000
3166.714000	716.210000
3167.872262	718.330000
3169.028861	716.900000
3170.183799	713.270000
3171.340056	719.060000
3172.494652	718.260000
3173.649078	716.630000
3174.801844	717.690000
3175.954439	710.500000
3177.106865	715.680000
3178.259121	720.340000
3179.411206	720.320000
3180.560146	718.200000
3181.711892	717.750000
3182.861980	717.720000
3184.010412	714.120000
3185.158674	718.780000
3186.306768	713.300000
3187.454693	717.540000
3188.600962	719.160000
3189.747063	722.260000
3190.891510	717.420000
3192.035789	723.550000
3193.179900	720.540000
3194.325328	723.590000
3195.467618	717.070000
3196.609741	722.430000
3197.751696	718.910000
3198.893484	719.600000
3200.035105	718.240000
3201.173591	725.960000
3202.313394	723.180000
3203.454515	729.630000
3204.592501	724.290000
3205.728838	730.840000
3206.865009	722.040000
3208.002497	726.620000
3209.138337	732.310000
3210.275494	730.870000
3211.408038	732.630000
3212.544864	731.640000
3213.677078	728.130000
3214.810609	730.460000
3215.943976	728.190000
3217.074215	725.330000
3218.207252	730.790000
3219.337163	703.530000
3220.468390	722.690000
3221.596493	724.490000
3222.727392	725.290000
3223.856647	730.850000
3224.984259	728.500000
3226.108748	720.350000
3227.237513	718.890000
3228.363156	725.270000
3229.488637	723.420000
3230.612476	722.360000
3231.739109	725.320000
3232.861145	724.750000
3233.984497	723.020000
3235.107687	717.790000
3236.230715	712.860000
3237.352103	717.330000
3238.473329	712.850000
3239.592918	716.050000
3240.712345	718.040000
3241.830134	712.880000
3242.950715	713.980000
3244.068183	719.040000
3245.185490	718.330000
3246.302637	713.300000
3247.418148	708.990000
3248.534973	715.780000
3249.648689	711.320000
3250.765194	711.440000
3251.880065	715.210000
3252.991827	718.390000
3254.103429	714.720000
3255.216347	708.930000
3256.329105	710.780000
3257.438757	710.070000
3258.549724	710.270000
3259.660532	710.550000
3260.769708	706.840000
3261.877254	713.350000
3262.986113	711.790000
3264.094815	712.370000
3265.200414	714.320000
3266.307327	714.890000
3267.412611	707.540000
3268.519209	710.400000
3269.622707	714.140000
3270.727520	715.700000
3271.832175	709.740000
3272.933731	707.150000
3274.035131	705.890000
3275.137845	715.190000
3276.240403	711.140000
3277.339864	710.890000
3278.442109	713.870000
3279.541258	712.480000
3280.638783	708.900000
3281.736152	716.410000
3282.836303	707.650000
3283.933362	707.270000
3285.030265	712.460000
3286.127013	709.060000
3287.219203	711.370000
3288.315641	705.550000
3289.410457	708.220000
3290.505119	707.500000
3291.598159	706.940000
3292.691044	707.720000
3293.782310	707.120000
3294.874887	706.100000
3295.965845	707.310000
3297.055183	709.030000
3298.144368	709.240000
3299.234866	705.330000
3300.322279	706.620000
3301.409539	712.220000
3302.498112	709.890000
3303.586533	705.300000
3304.670406	706.220000
3305.758521	706.840000
3306.843554	708.900000
3307.926972	709.650000
3309.011702	707.500000
3310.094817	704.330000
3311.179243	705.790000
3312.260591	707.170000
3313.343251	704.090000
3314.424297	705.390000
3315.505192	705.500000
3316.584473	707.840000
3317.663604	705.150000
3318.744047	708.880000
3319.821415	710.740000
3320.900095	706.150000
3321.977163	710.930000
3323.054082	713.040000
3324.129389	709.500000
3325.204547	706.460000
3326.281016	710.470000
3327.354415	707.280000
3328.427665	711.130000
3329.502225	705.130000
3330.575177	700.090000
3331.646520	705.570000
3332.719174	706.290000
3333.788762	709.290000
3334.859660	703.490000
3335.928951	706.570000
3336.999553	708.170000
3338.068548	706.920000
3339.135937	708.280000
3340.201721	710.810000
3341.271731	707.890000
3342.338678	702.500000
3343.402563	704.230000
3344.469216	703.260000
3345.534264	704.220000
3346.597709	706.280000
3347.661008	710.180000
3348.724160	704.510000
3349.787166	705.760000
3350.850026	705.360000
3351.911284	706.000000
3352.969485	705.420000
3354.031906	706.740000
3355.091272	709.180000
3356.150492	701.210000
3357.211022	702.180000
3358.267042	701.850000
3359.325826	708.200000
3360.380103	705.070000
3361.437144	706.850000
3362.492586	702.460000
3363.549338	705.500000
3364.604491	697.880000
3365.658047	706.400000
3366.710007	701.890000
3367.764728	701.050000
3368.816400	699.990000
3369.867929	702.130000
3370.920766	701.510000
3371.970556	703.050000
3373.021655	702.490000
3374.069708	704.580000
3375.120520	706.080000
3376.168288	702.480000
3377.215913	711.350000
3378.263395	703.800000
3379.309285	702.660000
3380.356483	703.720000
3381.400639	707.980000
3382.447553	704.550000
3383.492875	709.980000
3384.535156	702.700000
3385.577297	701.070000
3386.620745	702.310000
3387.664052	703.180000
3388.705770	706.040000
3389.747346	702.480000
3390.788781	703.150000
3391.828628	703.380000
3392.866886	706.200000
3393.906452	699.730000
3394.945878	704.040000
3395.983716	708.350000
3397.019967	702.530000
3398.056079	701.760000
3399.093498	707.530000
3400.127884	701.500000
3401.163577	708.640000
3402.199131	708.070000
3403.231654	702.570000
3404.266930	700.150000
3405.299175	699.630000
3406.331282	703.070000
3407.361805	701.920000
3408.393635	703.750000
3409.425327	706.690000
3410.453991	701.830000
3411.482518	706.550000
3412.512351	706.300000
3413.542047	709.650000
3414.568717	703.110000
3415.596694	705.140000
3416.621646	706.730000
3417.649348	707.520000
3418.674027	699.380000
3419.700012	705.380000
3420.724417	705.510000
3421.748686	705.720000
3422.771376	703.540000
3423.793930	703.140000
3424.817790	701.550000
3425.838630	709.030000
3426.859334	699.600000
3427.881345	703.960000
3428.900337	704.350000
3429.919193	705.930000
3430.939356	699.770000
3431.956502	709.140000
