-117.300111	5.310000
-114.630511	3.310000
-111.963846	11.290000
-109.297933	9.330000
-106.634952	-0.210000
-103.970542	5.130000
-101.309062	4.830000
-98.646153	8.470000
-95.988350	10.980000
-93.329118	9.860000
-90.670634	7.800000
-88.015074	5.370000
-85.358086	4.980000
-82.706196	9.710000
-80.052875	8.730000
-77.402475	-3.950000
-74.750645	10.250000
-72.103906	6.500000
-69.455738	3.870000
-66.808312	15.440000
-64.163800	7.440000
-61.517860	6.250000
-58.877001	5.950000
-56.234713	6.970000
-53.595334	6.530000
-50.954525	6.420000
-48.314457	7.160000
-45.679461	9.440000
-43.043037	10.180000
-40.409515	6.580000
-37.774565	11.310000
-35.144680	12.010000
-32.511203	10.610000
-29.882788	13.250000
-27.255107	17.520000
-24.625997	14.150000
-22.001944	15.920000
-19.374302	21.230000
-16.751713	31.640000
-14.129856	47.030000
-11.508729	80.180000
-8.888332	197.250000
-6.270824	630.180000
-3.651887	2024.100000
-1.035835	4647.170000
1.579488	5033.470000
4.194084	2613.680000
6.805797	298.850000
9.418939	49.910000
12.027047	29.290000
14.638737	27.120000
17.245396	18.740000
19.853483	17.370000
22.460846	14.130000
25.063184	12.170000
27.669100	12.960000
30.269994	6.690000
32.872316	10.160000
35.469621	10.070000
38.070501	9.950000
40.666366	9.550000
43.263660	9.210000
45.860234	2.930000
48.451799	6.930000
51.044792	8.890000
53.634924	6.980000
56.226484	11.220000
58.815184	7.670000
61.405311	10.680000
63.990439	7.080000
66.576995	7.100000
69.162837	7.350000
71.745825	3.590000
74.330239	12.090000
76.907525	7.980000
79.488377	6.130000
82.066380	6.170000
84.643673	10.630000
87.222392	13.300000
89.796129	14.970000
92.371294	9.770000
94.943615	11.220000
97.515228	8.170000
100.084001	9.220000
102.654201	9.480000
105.221563	15.280000
107.790350	15.780000
110.356301	12.890000
112.919417	14.250000
115.486089	13.020000
118.043540	24.300000
120.606676	26.580000
123.164852	35.330000
125.726583	58.430000
128.283357	87.030000
130.841558	116.910000
133.394805	175.710000
135.947355	256.760000
138.503455	367.140000
141.054607	478.930000
143.605062	586.850000
146.154819	659.480000
148.701757	735.580000
151.248000	764.440000
153.795668	791.360000
156.342640	803.250000
158.884677	790.000000
161.426020	791.150000
163.966670	791.920000
166.508746	794.130000
169.048010	796.790000
171.584466	796.700000
174.120230	805.010000
176.657420	789.930000
179.193919	790.210000
181.727612	792.650000
184.258501	792.930000
186.788703	794.120000
189.320329	794.300000
191.849154	801.790000
194.375180	797.830000
196.900520	802.840000
199.427285	807.250000
201.951254	805.160000
204.474538	809.470000
206.997137	806.910000
209.516943	802.140000
212.036066	795.270000
214.554506	792.100000
217.074370	797.170000
219.587233	802.390000
222.103627	804.070000
224.619339	801.480000
227.130161	803.480000
229.642408	797.460000
232.151873	809.420000
234.660659	806.590000
237.168766	818.560000
239.678298	814.980000
242.182949	810.470000
244.686924	813.710000
247.192323	819.780000
249.692847	816.590000
252.196895	817.080000
254.693971	822.820000
257.194571	829.110000
259.692399	831.690000
262.189554	822.080000
264.686036	828.820000
267.177655	831.500000
269.672794	823.530000
272.165166	828.010000
274.656868	830.000000
277.145807	829.550000
279.636170	829.270000
282.123770	833.230000
284.608611	834.030000
287.096967	833.320000
289.578383	829.550000
292.063313	834.720000
294.543398	839.340000
297.026995	833.960000
299.505749	832.350000
301.985927	844.740000
304.463352	848.300000
306.940114	845.910000
309.416213	853.220000
311.889563	860.140000
314.362251	879.470000
316.834278	903.700000
319.305644	940.170000
321.774265	953.910000
324.242228	959.330000
326.711612	920.910000
329.176174	898.040000
331.644240	892.480000
334.107486	879.360000
336.570074	885.390000
339.032006	872.160000
341.493281	873.990000
343.951822	872.040000
346.411785	865.610000
348.869015	864.380000
351.325591	872.490000
353.781513	871.490000
356.234705	865.640000
358.689320	866.720000
361.139133	867.180000
363.592442	864.340000
366.040953	862.460000
368.488812	857.580000
370.938094	862.000000
373.382582	873.310000
375.828492	854.860000
378.273752	858.290000
380.716294	866.260000
383.158188	869.330000
385.599435	870.490000
388.037966	869.410000
390.477919	865.130000
392.915158	877.260000
395.349685	871.110000
397.787700	882.630000
400.220938	869.130000
402.655597	864.690000
405.085484	861.010000
407.518856	864.080000
409.947458	874.260000
412.375418	857.410000
414.804800	863.310000
417.229416	871.200000
419.655454	870.080000
422.080851	870.100000
424.505608	872.540000
426.925607	872.170000
429.347027	886.440000
431.765750	878.870000
434.185894	881.630000
436.603343	882.110000
439.022212	880.300000
441.438388	886.430000
443.849816	894.880000
446.264722	879.050000
448.676937	887.680000
451.088518	883.280000
453.499465	881.490000
455.907726	888.840000
458.315354	879.220000
460.722350	874.990000
463.128715	874.630000
465.532397	875.600000
467.935449	877.490000
470.337871	870.380000
472.739663	865.890000
475.138778	872.170000
477.539312	860.720000
479.939217	867.350000
482.334399	860.820000
484.733048	865.690000
487.126977	861.520000
489.520280	868.410000
491.912957	857.790000
494.305009	852.620000
496.698479	837.970000
499.087237	831.750000
501.473329	825.690000
503.860841	812.300000
506.247730	812.120000
508.631955	798.620000
511.017598	796.360000
513.400580	782.580000
515.780901	778.290000
518.162641	774.360000
520.541722	770.600000
522.922222	770.790000
525.300064	771.090000
527.675251	767.900000
530.049820	758.600000
532.425807	765.480000
534.799142	760.730000
537.173894	761.270000
539.543961	749.930000
541.913412	761.690000
544.284281	755.440000
546.650470	752.520000
549.018077	755.300000
551.383038	751.580000
553.747386	747.450000
556.111121	753.690000
558.476274	747.070000
560.836755	749.990000
563.198654	757.060000
565.557912	747.580000
567.914533	752.410000
570.274598	757.740000
572.627972	756.520000
574.984791	751.400000
577.338975	753.630000
579.692551	745.840000
582.045518	749.130000
584.395853	745.830000
586.747606	753.330000
589.092682	748.370000
591.443222	743.410000
593.787088	748.100000
596.136416	746.050000
598.481095	749.650000
600.823150	738.010000
603.166622	742.740000
605.507471	741.610000
607.847718	745.430000
610.185344	746.150000
612.526405	734.920000
614.862828	728.750000
617.200668	723.530000
619.535891	728.900000
621.868498	726.120000
624.202521	729.940000
626.533930	730.410000
628.864741	731.370000
631.194955	722.180000
633.524570	719.070000
635.849563	719.280000
638.179996	727.830000
640.505809	719.940000
642.829014	728.260000
645.153636	727.490000
647.475652	731.500000
649.797074	730.200000
652.115894	740.610000
654.436129	732.670000
656.755771	741.220000
659.072812	739.020000
661.389261	740.810000
663.703112	742.070000
666.018379	741.260000
668.331049	742.440000
670.645134	738.940000
672.954619	738.010000
675.265520	744.250000
677.573828	735.410000
679.881548	746.050000
682.190682	740.640000
684.495224	736.060000
686.799180	736.030000
689.102550	738.470000
691.407334	732.330000
693.707532	728.220000
696.009144	732.460000
698.310172	721.120000
700.606617	727.920000
702.904478	727.640000
705.201755	720.150000
707.498449	719.640000
709.790567	717.230000
712.086096	716.020000
714.377051	728.510000
716.669421	722.500000
718.959216	719.090000
721.248430	721.790000
723.537065	725.890000
725.823127	725.510000
728.110604	736.910000
730.395509	727.600000
732.679837	734.270000
734.961596	736.530000
737.244769	732.600000
739.527365	739.330000
741.805405	734.670000
744.084860	740.350000
746.363738	737.830000
748.642042	737.590000
750.915796	734.240000
753.190963	742.940000
755.465557	741.790000
757.737592	741.040000
760.011040	746.650000
762.281930	739.530000
764.550264	750.070000
766.820011	742.430000
769.087204	744.130000
771.353826	753.780000
773.619878	754.490000
775.883379	754.300000
778.148293	751.260000
780.412637	755.730000
782.672452	749.660000
784.933679	755.560000
787.194339	754.700000
789.452453	753.200000
791.708022	748.720000
793.966982	756.530000
796.219443	756.360000
798.477270	758.860000
800.730579	752.350000
802.981348	749.890000
805.233529	750.340000
807.483171	750.380000
809.734226	753.870000
811.980769	744.720000
814.228724	741.550000
816.474145	749.420000
818.720977	741.740000
820.967248	735.810000
823.209014	734.920000
825.454164	745.550000
827.692841	735.820000
829.934900	738.920000
832.172461	738.520000
834.411434	738.920000
836.647880	737.170000
838.885737	726.420000
841.121069	732.260000
843.353878	735.070000
845.588098	732.240000
847.819795	724.820000
850.050938	725.580000
852.281526	722.130000
854.511560	721.420000
856.741040	716.670000
858.966038	723.320000
861.194411	712.360000
863.418304	720.750000
865.643609	718.250000
867.864438	723.120000
870.088639	716.940000
872.308367	715.920000
874.529505	717.030000
876.750094	719.990000
878.968172	714.960000
881.187660	721.970000
883.402682	724.620000
885.617157	721.590000
887.831083	725.540000
890.044463	717.880000
892.257295	724.300000
894.469581	719.300000
896.679364	725.440000
898.888602	727.390000
901.097295	726.890000
903.303489	726.100000
905.511092	727.790000
907.716197	722.070000
909.920759	732.880000
912.122826	732.840000
914.326302	730.910000
916.527284	727.720000
918.727724	735.750000
920.929573	736.590000
923.125031	736.430000
925.323848	736.650000
927.518226	734.260000
929.715962	734.100000
931.909262	734.090000
934.103971	739.150000
936.296194	739.430000
938.487878	739.240000
940.679025	744.110000
942.867689	749.880000
945.055817	753.780000
947.241464	752.810000
949.430463	754.970000
951.615039	761.460000
953.799080	759.440000
955.986471	760.240000
958.165558	765.520000
960.347996	771.030000
962.529900	769.760000
964.709329	772.080000
966.886286	774.950000
969.064651	778.960000
971.244423	784.250000
973.417846	784.260000
975.594615	782.820000
977.766977	788.970000
979.940747	791.580000
982.110113	784.330000
984.282823	796.370000
986.453068	791.210000
988.622784	791.300000
990.791971	791.490000
992.956761	793.600000
995.124892	801.240000
997.288629	800.370000
999.453772	804.620000
1001.616456	800.690000
1003.778615	805.510000
1005.938317	804.880000
1008.097494	806.890000
1010.258078	804.900000
1012.416208	802.300000
1014.573813	809.360000
1016.730895	808.320000
1018.887453	806.830000
1021.039632	809.910000
1023.193218	809.910000
1025.346282	816.240000
1027.496897	810.040000
1029.648919	811.600000
1031.796567	821.320000
1033.947547	817.910000
1036.094156	819.990000
1038.240246	820.420000
1040.385818	818.110000
1042.532795	811.560000
1044.673483	814.740000
1046.817501	818.580000
1048.959078	816.450000
1051.100139	829.480000
1053.242604	823.940000
1055.378790	824.460000
1057.518301	822.710000
1059.653458	827.380000
1061.791939	826.190000
1063.926066	826.860000
1066.059680	828.870000
1068.194699	818.390000
1070.325368	822.110000
1072.457442	820.030000
1074.587087	820.470000
1076.716220	817.150000
1078.844841	815.640000
1080.972951	814.130000
1083.098635	807.670000
1085.223809	814.380000
1087.350387	811.480000
1089.472627	804.730000
1091.596272	807.380000
1093.715582	809.210000
1095.840122	803.550000
1097.958416	799.020000
1100.078115	806.480000
1102.195395	803.770000
1104.312169	798.830000
1106.428436	805.380000
1108.542287	798.710000
1110.657543	795.650000
1112.768475	799.470000
1114.882720	799.380000
1116.992644	794.150000
1119.103972	795.940000
1121.214795	798.780000
1123.321302	799.480000
1125.431119	796.790000
1127.536621	793.110000
1129.643526	792.780000
1131.744216	792.920000
1133.850118	800.750000
1135.951711	788.780000
1138.054707	794.680000
1140.157202	793.050000
1142.253490	790.930000
1144.354986	788.800000
1146.452178	789.010000
1148.548873	784.420000
1150.645069	784.390000
1152.740768	786.560000
1154.835968	783.140000
1156.928772	781.020000
1159.022979	781.470000
1161.110994	783.670000
1163.204207	788.880000
1165.291232	784.920000
1167.381556	783.540000
1169.467593	782.880000
1171.556927	780.640000
1173.640080	785.160000
1175.724635	780.580000
1177.810592	778.350000
1179.892267	780.860000
1181.975344	779.780000
1184.056035	786.800000
1186.136234	777.180000
1188.215942	778.240000
1190.295159	784.100000
1192.371994	774.720000
1194.446448	778.000000
1196.524193	778.470000
1198.597669	780.930000
1200.672545	775.150000
1202.743154	776.040000
1204.815164	773.840000
1206.884799	773.560000
1208.955834	774.450000
1211.026381	775.820000
1213.092667	772.580000
1215.160354	777.710000
1217.225669	772.180000
1219.292384	774.240000
1221.354843	776.670000
1223.420587	776.530000
1225.482077	779.960000
1227.544968	775.420000
1229.605491	772.220000
1231.665530	772.480000
1233.725087	780.890000
1235.782278	778.300000
1237.838988	779.120000
1239.893334	777.960000
1241.950962	773.340000
1244.006227	777.210000
1246.057251	775.210000
1248.109675	772.110000
1250.161619	782.410000
1252.211205	774.470000
1254.260312	776.750000
1256.308941	773.420000
1258.357091	777.640000
1260.404762	781.160000
1262.448203	781.240000
1264.494920	777.860000
1266.539283	778.920000
1268.583170	776.090000
1270.624705	777.240000
1272.663891	776.670000
1274.706350	782.570000
1276.744586	780.640000
1278.784221	779.270000
1280.823381	777.000000
1282.858322	779.480000
1284.894662	783.010000
1286.928658	783.140000
1288.964051	788.950000
1290.995232	786.970000
1293.027810	792.010000
1295.059917	794.460000
1297.089683	796.840000
1299.120847	809.140000
1301.147803	800.250000
1303.176157	803.550000
1305.200307	813.410000
1307.227721	816.620000
1309.250933	819.560000
1311.275543	827.640000
1313.297819	835.750000
1315.321492	838.460000
1317.342832	845.870000
1319.363704	856.660000
1321.384109	863.800000
1323.400321	878.460000
1325.417930	873.490000
1327.433211	892.300000
1329.451751	894.840000
1331.466102	897.640000
1333.478127	908.550000
1335.493409	910.200000
1337.504506	911.290000
1339.517000	921.430000
1341.525311	922.230000
1343.536877	913.710000
1345.542405	919.030000
1347.551188	922.430000
1349.555793	910.290000
1351.563652	905.890000
1353.571049	905.470000
1355.572415	885.170000
1357.575177	885.910000
1359.577480	878.620000
1361.579323	858.570000
1363.580706	848.950000
1365.579776	840.220000
1367.578387	831.260000
1369.576540	824.810000
1371.574234	818.340000
1373.567766	809.370000
1375.562694	808.320000
1377.557164	798.710000
1379.551178	798.020000
1381.542885	794.230000
1383.534137	791.540000
1385.523083	791.990000
1387.513424	782.060000
1389.503310	780.760000
1391.490892	790.320000
1393.478021	786.600000
1395.462848	789.080000
1397.449070	785.540000
1399.432992	775.180000
1401.416461	785.900000
1403.399477	791.310000
1405.380196	783.900000
1407.362309	781.700000
1409.342126	776.500000
1411.321491	781.580000
1413.296718	778.800000
1415.275183	778.520000
1417.251355	776.910000
1419.227078	774.320000
1421.202351	775.290000
1423.175333	777.180000
1425.147867	784.060000
1427.119953	774.830000
1429.091592	785.730000
1431.059102	774.350000
1433.031686	777.340000
1434.996465	784.910000
1436.966315	781.520000
1438.932042	784.120000
1440.899161	778.900000
1442.863997	783.180000
1444.824713	777.900000
1446.790497	783.850000
1448.750326	786.920000
1450.711549	787.000000
1452.674164	786.490000
1454.632664	791.100000
1456.590721	791.980000
1458.548337	790.300000
1460.505510	787.110000
1462.460408	796.720000
1464.416699	786.650000
1466.370715	789.590000
1468.324290	792.740000
1470.275593	791.080000
1472.228289	789.170000
1474.178712	795.050000
1476.128697	792.730000
1478.078243	796.340000
1480.025520	801.610000
1481.970529	801.900000
1483.916931	803.110000
1485.862895	802.540000
1487.808422	806.300000
1489.751683	807.530000
1491.694509	805.760000
1493.635071	810.980000
1495.577024	814.040000
1497.516715	811.740000
1499.455972	818.310000
1501.394793	814.050000
1503.331355	822.750000
1505.269308	825.780000
1507.205002	823.210000
1509.140263	825.900000
1511.073268	835.020000
1513.005840	837.110000
1514.937980	841.400000
1516.869688	852.610000
1518.799142	856.330000
1520.729987	860.530000
1522.660400	864.000000
1524.586741	880.430000
1526.514473	889.250000
1528.439954	905.430000
1530.365006	913.540000
1532.289629	926.240000
1534.213823	946.440000
1536.135769	968.640000
1538.059106	991.250000
1539.980196	1040.480000
1541.899043	1086.620000
1543.819278	1141.130000
1545.737271	1198.770000
1547.654837	1283.320000
1549.570161	1396.360000
1551.486875	1508.530000
1553.399534	1637.480000
1555.315397	1780.100000
1557.229020	1910.900000
1559.140406	2032.370000
1561.053180	2114.960000
1562.961905	2183.110000
1564.872019	2187.470000
1566.781710	2132.180000
1568.690978	2079.320000
1570.598012	1987.230000
1572.502813	1906.570000
1574.409003	1843.690000
1576.312961	1763.110000
1578.216498	1679.580000
1580.119615	1573.190000
1582.020502	1474.900000
1583.922778	1374.940000
1585.822826	1277.920000
1587.724261	1204.530000
1589.621663	1143.720000
1591.518646	1094.010000
1593.415211	1054.080000
1595.313164	1032.940000
1597.205282	1009.720000
1599.100593	982.770000
1600.995487	970.930000
1602.888159	954.940000
1604.780414	936.970000
1606.670450	922.900000
1608.560070	916.460000
1610.449275	903.390000
1612.338065	891.460000
1614.224637	870.390000
1616.112597	861.950000
1617.996540	859.000000
1619.881870	853.330000
1621.766787	844.280000
1623.649490	837.410000
1625.533580	828.540000
1627.413658	822.650000
1629.295124	818.250000
1631.174379	817.080000
1633.055020	807.750000
1634.929857	806.790000
1636.809675	803.300000
1638.685489	797.710000
1640.560892	799.390000
1642.437681	800.170000
1644.308674	798.880000
1646.182848	797.500000
1648.053023	792.290000
1649.926380	794.500000
1651.797533	794.600000
1653.666484	788.740000
1655.536820	787.590000
1657.403164	788.180000
1659.270893	786.700000
1661.136423	779.720000
1663.003339	785.490000
1664.866266	784.250000
1666.730578	781.430000
1668.592694	785.690000
1670.454405	775.860000
1672.317502	776.640000
1674.178403	782.720000
1676.037112	779.020000
1677.895417	776.040000
1679.755107	774.960000
1681.609029	775.560000
1683.466125	775.510000
1685.322818	774.310000
1687.175534	773.470000
1689.031422	773.320000
1690.883336	776.360000
1692.734849	771.560000
1694.585961	771.010000
1696.436673	772.530000
1698.286984	768.960000
1700.135110	762.740000
1701.984621	771.070000
1703.828383	768.190000
1705.677094	771.250000
1707.520059	771.410000
1709.366191	777.100000
1711.208360	770.390000
1713.053695	775.850000
1714.893289	775.990000
1716.734267	769.480000
1718.576628	776.480000
1720.415033	772.880000
1722.254821	776.020000
1724.092434	772.610000
1725.929651	773.690000
1727.764695	772.590000
1729.601122	769.010000
1731.435377	768.870000
1733.269237	767.310000
1735.102703	776.190000
1736.932224	770.190000
1738.764903	766.780000
1740.593638	770.830000
1742.425530	764.890000
1744.253480	768.010000
1746.081039	765.950000
1747.908205	769.350000
1749.734980	766.950000
1751.561363	763.980000
1753.383810	763.040000
1755.209412	768.210000
1757.031079	764.090000
1758.854128	759.870000
1760.675015	764.230000
1762.495514	761.520000
1764.317394	769.430000
1766.133574	766.170000
1767.952906	763.350000
1769.768311	754.760000
1771.586866	759.500000
1773.401496	758.680000
1775.215739	766.500000
1777.029596	759.920000
1778.843066	760.290000
1780.654383	760.480000
1782.467080	762.070000
1784.279392	765.770000
1786.087786	761.400000
1787.897560	764.100000
1789.703420	763.800000
1791.512425	764.810000
1793.317517	762.480000
1795.123990	763.000000
1796.930079	762.890000
1798.732257	765.510000
1800.537580	761.500000
1802.338994	764.110000
1804.141788	764.320000
1805.940676	757.360000
1807.740945	757.970000
1809.540832	764.450000
1811.338577	766.370000
1813.135942	763.470000
1814.932927	768.340000
1816.729531	760.040000
1818.523996	764.970000
1820.319840	760.140000
1822.110029	763.350000
1823.905115	762.940000
1825.694549	760.200000
1827.487119	764.350000
1829.277554	759.490000
1831.065855	764.590000
1832.857291	768.680000
1834.643081	762.960000
1836.430251	760.680000
1838.215289	764.850000
1840.003461	767.040000
1841.787747	769.380000
1843.569903	760.710000
1845.353439	765.740000
1847.134846	768.140000
1848.917632	761.970000
1850.696537	765.770000
1852.476822	768.880000
1854.254980	766.790000
1856.034517	766.110000
1857.811929	762.060000
1859.587217	763.060000
1861.363883	756.930000
1863.138427	767.310000
1864.914349	762.800000
1866.684650	768.860000
1868.458079	766.530000
1870.229388	763.810000
1872.000326	760.910000
1873.772642	766.330000
1875.539344	767.030000
1877.309172	761.020000
1879.075136	768.040000
1880.844223	764.280000
1882.609449	761.500000
1884.374307	764.100000
1886.140542	761.360000
1887.902918	765.060000
1889.664927	764.130000
1891.426568	761.940000
1893.187843	763.760000
1894.948750	762.300000
1896.709291	766.800000
1898.467722	765.790000
1900.225787	763.480000
1901.981745	758.630000
1903.739079	762.980000
1905.496048	759.040000
1907.250910	761.340000
1909.003668	760.910000
1910.756061	760.270000
1912.509831	759.580000
1914.261497	763.130000
1916.011061	756.040000
1917.762000	758.330000
1919.512577	760.010000
1921.259314	762.550000
1923.007428	762.250000
1924.753442	766.930000
1926.500831	763.800000
1928.246123	761.040000
1929.989317	759.440000
1931.733886	762.820000
1933.476360	758.550000
1935.218473	763.420000
1936.960226	764.670000
1938.701619	759.770000
1940.440919	759.990000
1942.179860	760.330000
1943.918442	757.510000
1945.654933	767.230000
1947.391066	764.330000
1949.128573	761.430000
1950.862258	759.690000
1952.597318	760.080000
1954.330289	760.030000
1956.062904	766.050000
1957.795163	765.410000
1959.527065	766.730000
1961.256881	763.850000
1962.984612	764.750000
1964.713718	760.710000
1966.442469	758.090000
1968.169136	762.780000
1969.895449	761.820000
1971.623135	764.020000
1973.345285	759.800000
1975.070536	761.750000
1976.791980	764.810000
1978.516525	763.170000
1980.238989	761.640000
1981.957651	766.450000
1983.679411	771.080000
1985.397369	764.780000
1987.116700	774.090000
1988.832232	770.910000
1990.552584	767.340000
1992.269138	770.430000
1993.981895	763.430000
1995.697748	768.660000
1997.411529	769.820000
1999.124960	764.560000
2000.836320	773.420000
2002.549052	769.360000
2004.257994	765.620000
2005.970028	760.990000
2007.676554	767.910000
2009.386171	768.010000
2011.093722	771.220000
2012.800924	766.390000
2014.506061	774.110000
2016.210852	773.730000
2017.917014	769.690000
2019.619394	771.580000
2021.323145	763.390000
2023.024834	768.020000
2024.726178	767.980000
2026.427176	766.550000
2028.126113	762.000000
2029.826422	766.640000
2031.522956	764.580000
2033.220861	764.760000
2034.916707	763.050000
2036.615639	766.830000
2038.309085	766.720000
2040.003902	766.100000
2041.698377	767.320000
2043.389083	762.330000
2045.082873	770.390000
2046.772896	762.830000
2048.464290	762.250000
2050.153631	764.100000
2051.844342	764.480000
2053.531290	764.950000
2055.217899	763.200000
2056.905877	765.610000
2058.590096	767.600000
2060.275686	757.990000
2061.960936	762.480000
2063.644137	762.620000
2065.328709	761.920000
2067.007818	762.760000
2068.691712	764.750000
2070.370145	760.340000
2072.051656	759.890000
2073.729415	760.770000
2075.406838	767.140000
2077.085630	761.950000
2078.762380	763.180000
2080.437088	765.150000
2082.113165	764.470000
2083.787202	760.370000
2085.460903	762.140000
2087.134269	761.610000
2088.805596	760.870000
2090.476590	758.780000
2092.147248	762.540000
2093.817573	764.730000
2095.487564	761.450000
2097.155519	763.330000
2098.823141	766.730000
2100.488728	759.560000
2102.155684	760.430000
2103.820607	761.020000
2105.485198	762.790000
2107.147757	763.660000
2108.811684	763.070000
2110.473580	760.420000
2112.135146	770.940000
2113.796380	762.980000
2115.455586	767.040000
2117.114461	765.010000
2118.773007	766.940000
2120.431223	767.160000
2122.085715	755.850000
2123.743272	767.600000
2125.400500	763.920000
2127.054006	762.760000
2128.708880	760.810000
2130.360035	761.460000
2132.014253	762.070000
2133.664754	763.110000
2135.316621	759.560000
2136.963080	762.230000
2138.614294	764.000000
2140.261794	762.130000
2141.910661	762.970000
2143.557509	764.110000
2145.204032	765.330000
2146.850229	762.450000
2148.492718	765.680000
2150.138265	766.630000
2151.780105	763.080000
2153.425002	770.090000
2155.066194	767.620000
2156.707062	775.300000
2158.347606	764.660000
2159.986138	766.800000
2161.626036	765.600000
2163.262234	769.710000
2164.899798	763.530000
2166.537040	769.280000
2168.172272	764.930000
2169.807183	765.560000
2171.441771	765.040000
2173.076039	762.600000
2174.706613	767.590000
2176.340239	765.650000
2177.970173	767.080000
2179.601472	765.630000
2181.230766	764.100000
2182.859741	766.160000
2184.488396	770.090000
2186.116732	768.440000
2187.743066	765.390000
2189.369081	772.210000
2190.993094	770.810000
2192.618473	770.960000
2194.241851	765.770000
2195.866594	768.240000
2197.487656	765.380000
2199.108401	771.910000
2200.730511	765.310000
2202.350623	765.480000
2203.968738	767.400000
2205.586538	767.390000
2207.204023	764.820000
2208.821192	765.970000
2210.438046	761.950000
2212.054584	761.850000
2213.669130	765.860000
2215.281683	769.220000
2216.895600	765.850000
2218.507526	768.840000
2220.120815	765.020000
2221.732114	762.080000
2223.341423	757.010000
2224.952096	765.520000
2226.560780	761.190000
2228.169151	765.030000
2229.775536	765.310000
2231.383284	757.410000
2232.989045	768.350000
2234.594495	765.260000
2236.197960	765.550000
2237.802788	761.300000
2239.405632	766.290000
2241.006493	770.760000
2242.608717	768.500000
2244.208959	769.550000
2245.810563	772.120000
2247.408514	768.410000
2249.007828	765.390000
2250.605162	767.050000
2252.202188	770.140000
2253.800576	770.160000
2255.395315	770.500000
2256.988077	772.130000
2258.582202	767.970000
2260.177688	768.180000
2261.769529	768.050000
2263.361064	768.740000
2264.953961	770.720000
2266.541548	768.380000
2268.133831	768.110000
2269.720808	761.580000
2271.310812	761.640000
2272.895512	770.880000
2274.484906	772.230000
2276.068998	770.850000
2277.654450	767.840000
2279.237934	770.480000
2280.824443	766.270000
2282.407319	768.070000
2283.989892	767.900000
2285.572161	763.410000
2287.150800	765.690000
2288.732464	773.110000
2290.310499	762.610000
2291.891557	768.430000
2293.468988	764.515000
2295.044456	760.600000
2296.622946	759.880000
2298.197812	762.890000
2299.772377	758.910000
2301.346642	762.140000
2302.920606	760.990000
2304.494269	762.440000
2306.067633	759.490000
2307.637378	758.710000
2309.206824	761.450000
2310.779288	765.010000
2312.346478	763.320000
2313.916686	765.310000
2315.483279	759.650000
2317.051232	767.500000
2318.617229	768.170000
2320.182929	767.560000
2321.748331	769.260000
2323.311780	763.590000
2324.876588	772.860000
2326.437788	784.700000
2328.002002	791.840000
2329.560954	796.890000
2331.122921	791.010000
2332.682936	775.740000
2334.242657	769.290000
2335.800428	769.290000
2337.357904	768.700000
2338.915086	770.440000
2340.470320	763.730000
2342.025261	772.380000
2343.579907	771.010000
2345.134260	772.110000
2346.688320	777.750000
2348.242085	776.520000
2349.793907	767.960000
2351.343785	771.530000
2352.896671	772.470000
2354.444315	772.320000
2355.994966	773.270000
2357.542026	775.850000
2359.090444	771.850000
2360.638571	774.960000
2362.183109	778.470000
2363.729005	769.190000
2365.272963	772.690000
2366.818278	779.600000
2368.360008	777.930000
2369.903095	771.760000
2371.444246	775.880000
2372.985108	776.780000
2374.525681	774.780000
2376.065965	775.020000
2377.605960	774.430000
2379.142377	778.480000
2380.681795	778.470000
2382.217636	782.190000
2383.754833	779.490000
2385.288455	783.720000
2386.825077	778.990000
2388.359769	778.460000
2389.892531	783.420000
2391.425006	777.740000
2392.955553	782.870000
2394.489098	782.650000
2396.017432	782.580000
2397.547123	793.920000
2399.076527	786.030000
2400.605647	786.450000
2402.134482	791.960000
2403.658111	795.270000
2405.186376	789.020000
2406.709439	789.410000
2408.237135	795.180000
2409.757992	792.560000
2411.283482	796.630000
2412.805411	800.760000
2414.328696	801.310000
2415.850059	799.540000
2417.369503	799.790000
2418.890302	807.730000
2420.409183	805.200000
2421.927781	803.650000
2423.444462	800.060000
2424.962497	808.110000
2426.480251	804.850000
2427.994454	805.490000
2429.508376	803.800000
2431.022018	806.490000
2432.537015	807.740000
2434.048463	806.470000
2435.561266	814.020000
2437.072155	810.760000
2438.582766	810.770000
2440.091465	804.750000
2441.603150	811.410000
2443.111292	813.740000
2444.619156	808.080000
2446.126742	804.080000
2447.630787	806.810000
2449.137817	810.330000
2450.642940	807.230000
2452.147784	813.140000
2453.650722	806.380000
2455.153384	812.380000
2456.655769	806.690000
2458.156249	807.270000
2459.658082	805.740000
2461.158010	803.910000
2462.657663	800.270000
2464.157041	793.340000
2465.654516	799.030000
2467.150089	796.970000
2468.648642	797.090000
2470.143667	797.860000
2471.640044	797.160000
2473.132895	791.670000
2474.627099	795.930000
2476.121029	786.930000
2477.611435	795.070000
2479.104819	797.030000
2480.596305	793.790000
2482.085894	791.290000
2483.575211	797.310000
2485.062632	793.670000
2486.553029	791.510000
2488.039908	793.470000
2489.528138	793.490000
2491.012851	790.730000
2492.497295	785.820000
2493.983089	787.120000
2495.466992	787.280000
2496.952245	789.160000
2498.432365	785.000000
2499.915458	784.720000
2501.396660	790.090000
2502.877593	788.050000
2504.356637	792.430000
2505.835412	783.520000
2507.313919	787.330000
2508.792158	791.910000
2510.270128	790.300000
2511.744593	784.580000
2513.222028	787.720000
2514.695959	790.900000
2516.171240	786.740000
2517.646254	791.740000
2519.117768	786.880000
2520.590631	789.740000
2522.061612	787.600000
2523.533943	789.260000
2525.001160	793.390000
2526.471344	791.870000
2527.939647	788.850000
2529.407685	794.280000
2530.875458	793.340000
2532.342966	794.700000
2533.810209	800.790000
2535.273960	798.250000
2536.739061	800.430000
2538.202285	804.010000
2539.666859	800.580000
2541.127943	795.400000
2542.590377	800.620000
2544.052548	802.810000
2545.511233	805.710000
2546.974490	805.000000
2548.432650	798.620000
2549.892159	808.120000
2551.346574	801.260000
2552.805560	806.280000
2554.262674	804.360000
2555.717917	805.500000
2557.172898	807.110000
2558.626011	805.670000
2560.080472	804.210000
2561.533063	804.990000
2562.985395	811.230000
2564.435860	813.590000
2565.889280	810.170000
2567.337618	812.530000
2568.788912	816.850000
2570.238339	817.500000
2571.684294	818.690000
2573.133204	818.970000
2574.578644	823.270000
2576.025431	819.250000
2577.470356	827.730000
2578.915022	824.120000
2580.361036	829.250000
2581.803584	828.430000
2583.247479	830.040000
2584.687909	833.120000
2586.129686	830.100000
2587.569604	832.400000
2589.010869	832.190000
2590.448672	835.490000
2591.889425	834.530000
2593.325116	839.200000
2594.763756	836.680000
2596.200538	844.540000
2597.635465	840.500000
2599.073339	844.520000
2600.506156	854.760000
2601.940320	848.690000
2603.372630	856.980000
2604.806286	852.640000
2606.238089	858.730000
2607.669638	858.180000
2609.100935	867.760000
2610.530379	873.250000
2611.959571	878.600000
2613.386913	884.400000
2614.815600	881.080000
2616.244036	883.510000
2617.669024	895.810000
2619.095359	901.400000
2620.519845	897.070000
2621.945677	907.790000
2623.368065	911.130000
2624.791799	918.790000
2626.213686	919.930000
2627.635324	927.490000
2629.055116	925.240000
2630.476254	926.020000
2631.897142	941.620000
2633.314592	939.090000
2634.734981	953.840000
2636.151933	958.160000
2637.568636	963.380000
2638.985091	967.680000
2640.401298	973.240000
2641.817257	976.320000
2643.231375	989.000000
2644.645245	996.360000
2646.057277	1001.850000
2647.470652	1006.070000
2648.880598	1012.970000
2650.293480	1017.720000
2651.702933	1023.260000
2653.112140	1035.500000
2654.519511	1042.350000
2655.929816	1051.040000
2657.338286	1052.660000
2658.744920	1053.740000
2660.151309	1069.570000
2661.555864	1069.330000
2662.961763	1076.730000
2664.365829	1086.390000
2665.769650	1096.240000
2667.173227	1097.440000
2668.574973	1106.610000
2669.978062	1111.280000
2671.377733	1125.140000
2672.778748	1116.680000
2674.176347	1124.820000
2675.576876	1136.820000
2676.973989	1128.410000
2678.372446	1130.250000
2679.769076	1138.970000
2681.165463	1132.190000
2682.561608	1132.210000
2683.955928	1139.350000
2685.351589	1128.010000
2686.743842	1131.800000
2688.137437	1131.140000
2689.529208	1125.970000
2690.922322	1125.830000
2692.313612	1124.750000
2693.703079	1129.610000
2695.092306	1121.880000
2696.481294	1114.330000
2697.871623	1108.510000
2699.256969	1103.260000
2700.645238	1100.380000
2702.031687	1087.160000
2703.417897	1079.370000
2704.803868	1077.980000
2706.186441	1077.500000
2707.570356	1063.170000
2708.954033	1060.990000
2710.337471	1058.750000
2711.717515	1038.820000
2713.098899	1040.440000
2714.478469	1036.420000
2715.859379	1025.700000
2717.238475	1019.750000
2718.615757	1007.970000
2719.994380	998.840000
2721.371190	990.910000
2722.747763	973.870000
2724.124101	961.920000
2725.498628	957.990000
2726.874495	953.420000
2728.246975	938.220000
2729.622371	931.280000
2730.992807	925.190000
2732.364584	916.430000
2733.736126	908.130000
2735.105860	894.440000
2736.476935	889.420000
2737.846201	882.240000
2739.215234	880.290000
2740.582461	869.250000
2741.949455	867.250000
2743.316215	865.150000
2744.682744	856.290000
2746.047467	851.280000
2747.411958	848.910000
2748.776218	847.450000
2750.140245	841.360000
2751.504041	839.640000
2752.864463	834.000000
2754.227795	831.940000
2755.586185	825.580000
2756.947485	827.830000
2758.305415	821.300000
2759.666253	817.910000
2761.025292	818.610000
2762.380962	813.470000
2763.739540	816.090000
2765.094751	815.710000
2766.449733	810.390000
2767.802919	812.430000
2769.159011	810.090000
2770.511738	821.730000
2771.864238	810.090000
2773.216509	810.100000
2774.570119	808.500000
2775.920367	804.970000
2777.268821	809.580000
2778.620181	803.060000
2779.968181	801.120000
2781.317519	801.460000
2782.665066	804.980000
2784.012385	805.420000
2785.359478	799.840000
2786.704780	801.840000
2788.049855	798.800000
2789.394705	795.790000
2790.739329	790.140000
2792.080601	795.290000
2793.423211	796.960000
2794.765595	792.130000
2796.107754	799.310000
2797.446564	789.100000
2798.788274	787.690000
2800.126636	787.370000
2801.466334	790.350000
2802.804248	792.560000
2804.140377	790.710000
2805.476282	786.620000
2806.813525	790.020000
2808.148984	785.520000
2809.484220	794.480000
2810.817673	787.210000
2812.152463	791.370000
2813.483913	789.800000
2814.818258	786.530000
2816.147705	782.340000
2817.478489	788.940000
2818.809051	788.940000
2820.137834	788.080000
2821.467953	784.160000
2822.796294	775.550000
2824.124414	780.350000
2825.450756	779.980000
2826.778435	779.320000
2828.102780	786.560000
2829.428462	781.960000
2830.752368	776.690000
2832.076055	777.890000
2833.401077	780.040000
2834.722769	775.830000
2836.044243	778.320000
2837.365498	774.390000
2838.686534	782.160000
2840.005797	773.330000
2841.326396	777.810000
2842.645224	780.660000
2843.963833	778.760000
2845.280671	772.610000
2846.597292	776.080000
2847.913696	766.550000
2849.228330	777.740000
2850.544300	778.780000
2851.856949	785.480000
2853.170933	779.910000
2854.484701	781.540000
2855.798252	776.510000
2857.110037	784.170000
2858.420055	782.620000
2859.731408	784.590000
2861.039446	774.930000
2862.348818	780.340000
2863.657976	778.100000
2864.966918	783.330000
2866.274096	781.050000
2867.579512	783.030000
2868.886262	786.310000
2870.191249	784.900000
2871.496023	776.640000
2872.799035	781.730000
2874.104928	780.080000
2875.405967	784.340000
2876.708340	779.350000
2878.008953	780.440000
2879.310900	777.490000
2880.612633	783.100000
2881.911063	778.820000
2883.210826	780.840000
2884.508832	783.890000
2885.806626	785.690000
2887.102664	781.430000
2888.400035	775.890000
2889.695650	777.410000
2890.991054	776.360000
2892.286247	781.760000
2893.578143	778.770000
2894.872915	778.890000
2896.164390	780.410000
2897.457198	773.740000
2898.749796	784.500000
2900.039100	778.710000
2901.329736	779.870000
2902.618621	783.320000
2903.908838	779.670000
2905.195764	779.250000
2906.484022	782.080000
2907.770531	782.140000
2909.056832	781.240000
2910.342924	782.320000
2911.627268	778.660000
2912.914483	779.530000
2914.196872	780.810000
2915.480593	780.500000
2916.762568	786.220000
2918.044335	780.200000
2919.324358	786.110000
2920.607250	780.670000
2921.888397	782.080000
2923.166262	785.490000
2924.446996	782.970000
2925.724449	778.910000
2927.001696	781.010000
2928.277201	779.020000
2929.555574	778.080000
2930.829133	773.250000
2932.105559	775.090000
2933.380244	776.140000
2934.653188	776.890000
2935.927464	776.940000
2937.200000	773.830000
2938.472331	771.650000
2939.741390	775.120000
2941.013314	772.390000
2942.283500	775.310000
2943.553482	772.800000
2944.823261	771.800000
2946.091304	772.410000
2947.357610	763.460000
2948.623715	768.210000
2949.891149	773.920000
2951.156849	779.350000
2952.422346	761.850000
2953.687641	765.420000
2954.949671	766.030000
2956.213031	767.360000
2957.476190	763.180000
2958.737617	766.210000
2960.000373	761.630000
2961.261397	759.880000
2962.520691	764.000000
2963.779785	767.250000
2965.038678	762.130000
2966.297371	764.960000
2967.555864	760.080000
2968.812628	759.300000
2970.069192	763.720000
2971.324029	756.160000
2972.580194	765.550000
2973.833105	763.980000
2975.087345	757.800000
2976.341386	770.770000
2977.593701	762.490000
2978.845817	758.350000
2980.096209	755.000000
2981.349456	760.700000
2982.597926	765.000000
2983.849251	764.170000
2985.097326	760.160000
2986.345205	762.800000
2987.592886	761.370000
2988.840370	768.520000
2990.086133	767.030000
2991.331700	767.820000
2992.578594	762.750000
2993.822244	760.720000
2995.067222	762.470000
2996.308956	768.270000
2997.553542	767.820000
2998.796409	762.180000
3000.036035	761.630000
3001.278511	764.040000
3002.517747	759.740000
3003.758311	769.280000
3004.997159	766.490000
3006.235811	760.710000
3007.472749	756.350000
3008.711013	763.210000
3009.947562	768.550000
3011.183918	766.390000
3012.420080	768.480000
3013.654528	767.400000
3014.888784	773.380000
3016.122846	764.200000
3017.355196	769.700000
3018.585834	774.170000
3019.819318	765.930000
3021.051090	769.750000
3022.281152	774.330000
3023.511022	772.510000
3024.739182	768.100000
3025.968668	762.890000
3027.196445	765.440000
3028.424031	760.800000
3029.652944	768.680000
3030.877114	759.530000
3032.104127	758.750000
3033.327916	760.450000
3034.553032	769.470000
3035.776441	756.280000
3036.999660	749.620000
3038.221174	751.560000
3039.445529	757.050000
3040.665149	755.530000
3041.886095	753.770000
3043.106852	751.320000
3044.325905	759.910000
3045.546283	753.570000
3046.763445	756.390000
3047.981933	746.820000
3049.198718	756.520000
3050.415316	752.350000
3051.631725	749.790000
3052.844922	750.220000
3054.060956	747.360000
3055.273778	739.540000
3056.489437	755.070000
3057.700373	749.670000
3058.912634	746.090000
3060.124709	743.410000
3061.336596	737.940000
3062.546787	742.430000
3063.756791	744.070000
3064.966609	740.970000
3066.174731	745.470000
3067.382668	734.310000
3068.588909	737.910000
3069.796475	737.090000
3071.002346	742.025000
3072.208033	746.960000
3073.413534	748.070000
3074.617342	744.530000
3075.822474	744.070000
3077.025913	749.980000
3078.227661	747.850000
3079.429224	749.120000
3080.630604	745.170000
3081.831800	745.750000
3083.031306	746.730000
3084.230629	740.750000
3085.431275	750.470000
3086.630231	750.040000
3087.825993	745.530000
3089.024584	749.280000
3090.219981	749.880000
3091.416701	751.930000
3092.610229	744.720000
3093.806585	749.900000
3095.001255	747.980000
3096.192734	742.820000
3097.388544	747.510000
3098.579661	751.750000
3099.772100	750.760000
3100.961352	747.770000
3102.153429	744.990000
3103.343823	742.830000
3104.531031	753.320000
3105.719562	752.150000
3106.909414	746.950000
3108.096083	744.540000
3109.282571	747.530000
3110.468881	745.180000
3111.656512	740.700000
3112.840961	743.610000
3114.023731	741.480000
3115.209323	738.090000
3116.393236	740.580000
3117.575470	744.240000
3118.757525	738.840000
3119.939402	738.580000
3121.121101	737.790000
3122.301123	735.600000
3123.479468	735.290000
3124.660633	733.170000
3125.838624	728.160000
3127.016437	732.160000
3128.194073	732.140000
3129.370034	728.730000
3130.545818	729.610000
3131.722924	730.800000
3132.898355	729.820000
3134.072113	721.140000
3135.244198	735.440000
3136.417605	730.950000
3137.590835	730.580000
3138.762394	728.100000
3139.935273	736.580000
3141.104985	740.270000
3142.276018	734.870000
3143.445381	744.440000
3144.613073	736.870000
3145.783581	736.200000
3146.949431	739.950000
3148.119589	738.580000
3149.285091	738.890000
3150.450418	739.020000
3151.615572	738.340000
3152.780553	739.430000
3153.946853	738.210000
3155.108501	734.950000
3156.271468	733.010000
3157.434263	737.500000
3158.596885	742.490000
3159.757842	721.150000
3160.918626	730.480000
3162.079238	732.070000
3163.238186	730.380000
3164.396963	726.700000
3165.555568	727.950000
3166.714000	714.530000
3167.872262	726.810000
3169.028861	730.040000
3170.183799	722.000000
3171.340056	720.730000
3172.494652	718.650000
3173.649078	728.170000
3174.801844	723.770000
3175.954439	707.330000
3177.106865	719.080000
3178.259121	723.860000
3179.411206	725.370000
3180.560146	723.990000
3181.711892	729.420000
3182.861980	717.610000
3184.010412	724.260000
3185.158674	717.700000
3186.306768	726.040000
3187.454693	726.900000
3188.600962	733.770000
3189.747063	738.200000
3190.891510	734.920000
3192.035789	734.910000
3193.179900	734.050000
3194.325328	730.050000
3195.467618	731.810000
3196.609741	731.880000
3197.751696	739.190000
3198.893484	729.630000
3200.035105	732.500000
3201.173591	736.200000
3202.313394	734.410000
3203.454515	732.730000
3204.592501	735.840000
3205.728838	736.910000
3206.865009	736.920000
3208.002497	739.320000
3209.138337	739.730000
3210.275494	740.240000
3211.408038	732.250000
3212.544864	741.480000
3213.677078	731.710000
3214.810609	733.520000
3215.943976	727.000000
3217.074215	731.880000
3218.207252	718.590000
3219.337163	695.730000
3220.468390	713.840000
3221.596493	719.390000
3222.727392	721.160000
3223.856647	726.760000
3224.984259	717.420000
3226.108748	714.570000
3227.237513	720.480000
3228.363156	726.790000
3229.488637	729.680000
3230.612476	721.300000
3231.739109	724.150000
3232.861145	727.560000
3233.984497	721.880000
3235.107687	718.700000
3236.230715	715.990000
3237.352103	720.070000
3238.473329	719.730000
3239.592918	721.550000
3240.712345	718.460000
3241.830134	717.370000
3242.950715	718.290000
3244.068183	718.690000
3245.185490	721.880000
3246.302637	713.620000
3247.418148	713.170000
3248.534973	717.740000
3249.648689	716.530000
3250.765194	726.050000
3251.880065	716.700000
3252.991827	712.390000
3254.103429	720.690000
3255.216347	713.380000
3256.329105	710.300000
3257.438757	709.260000
3258.549724	708.060000
3259.660532	702.230000
3260.769708	701.930000
3261.877254	710.250000
3262.986113	705.650000
3264.094815	707.480000
3265.200414	704.090000
3266.307327	714.460000
3267.412611	705.640000
3268.519209	704.590000
3269.622707	703.630000
3270.727520	706.570000
3271.832175	701.620000
3272.933731	693.360000
3274.035131	699.130000
3275.137845	698.740000
3276.240403	700.480000
3277.339864	700.520000
3278.442109	692.480000
3279.541258	695.220000
3280.638783	693.510000
3281.736152	695.410000
3282.836303	685.200000
3283.933362	692.870000
3285.030265	689.430000
3286.127013	686.910000
3287.219203	688.160000
3288.315641	684.210000
3289.410457	684.100000
3290.505119	686.490000
3291.598159	678.780000
3292.691044	679.800000
3293.782310	686.970000
3294.874887	680.870000
3295.965845	682.410000
3297.055183	679.950000
3298.144368	676.120000
3299.234866	673.080000
3300.322279	682.120000
3301.409539	687.150000
3302.498112	681.240000
3303.586533	678.240000
3304.670406	679.630000
3305.758521	682.390000
3306.843554	681.020000
3307.926972	678.360000
3309.011702	672.780000
3310.094817	674.630000
3311.179243	675.450000
3312.260591	679.400000
3313.343251	682.790000
3314.424297	674.950000
3315.505192	679.850000
3316.584473	680.080000
3317.663604	682.400000
3318.744047	680.090000
3319.821415	683.510000
3320.900095	686.780000
3321.977163	692.410000
3323.054082	693.610000
3324.129389	685.070000
3325.204547	689.810000
3326.281016	694.960000
3327.354415	681.220000
3328.427665	696.280000
3329.502225	684.810000
3330.575177	683.400000
3331.646520	681.970000
3332.719174	680.830000
3333.788762	677.270000
3334.859660	677.410000
3335.928951	676.500000
3336.999553	678.700000
3338.068548	675.580000
3339.135937	669.990000
3340.201721	671.890000
3341.271731	668.230000
3342.338678	670.960000
3343.402563	665.410000
3344.469216	669.760000
3345.534264	668.660000
3346.597709	671.360000
3347.661008	677.130000
3348.724160	670.940000
3349.787166	680.430000
3350.850026	670.850000
3351.911284	673.550000
3352.969485	668.590000
3354.031906	675.100000
3355.091272	670.310000
3356.150492	672.560000
3357.211022	664.550000
3358.267042	665.540000
3359.325826	668.050000
3360.380103	666.910000
3361.437144	679.370000
3362.492586	682.250000
3363.549338	675.690000
3364.604491	670.130000
3365.658047	678.410000
3366.710007	668.560000
3367.764728	670.750000
3368.816400	666.280000
3369.867929	658.990000
3370.920766	661.250000
3371.970556	665.780000
3373.021655	663.010000
3374.069708	667.240000
3375.120520	659.710000
3376.168288	661.740000
3377.215913	664.790000
3378.263395	660.020000
3379.309285	660.970000
3380.356483	658.090000
3381.400639	665.490000
3382.447553	658.450000
3383.492875	663.360000
3384.535156	661.370000
3385.577297	664.640000
3386.620745	666.260000
3387.664052	654.520000
3388.705770	659.640000
3389.747346	662.110000
3390.788781	660.580000
3391.828628	661.570000
3392.866886	656.210000
3393.906452	666.220000
3394.945878	660.260000
3395.983716	665.520000
3397.019967	657.470000
3398.056079	654.690000
3399.093498	663.010000
3400.127884	657.570000
3401.163577	655.810000
3402.199131	664.350000
3403.231654	652.080000
3404.266930	649.470000
3405.299175	646.400000
3406.331282	648.150000
3407.361805	650.020000
3408.393635	651.530000
3409.425327	650.120000
3410.453991	650.770000
3411.482518	650.360000
3412.512351	649.390000
3413.542047	654.040000
3414.568717	649.070000
3415.596694	653.160000
3416.621646	644.780000
3417.649348	652.950000
3418.674027	653.050000
3419.700012	649.650000
3420.724417	655.010000
3421.748686	645.170000
3422.771376	650.920000
3423.793930	643.220000
3424.817790	648.980000
3425.838630	653.330000
3426.859334	637.100000
3427.881345	649.170000
3428.900337	638.570000
3429.919193	641.570000
3430.939356	643.490000
3431.956502	648.190000
