-116.264276	2.000000
-113.594676	11.000000
-110.928011	-7.650000
-108.262098	29.300000
-105.599117	-15.050000
-102.934707	7.200000
-100.273227	4.800000
-97.610317	-0.100000
-94.952515	-8.550000
-92.293282	-2.900000
-89.634798	18.300000
-86.979239	16.400000
-84.322251	1.150000
-81.670360	2.000000
-79.017040	2.450000
-76.366640	22.200000
-73.714810	0.850000
-71.068071	13.000000
-68.419902	6.600000
-65.772477	-1.700000
-63.127965	3.400000
-60.482025	15.250000
-57.841166	14.250000
-55.198878	0.950000
-52.559498	9.650000
-49.918690	26.600000
-47.278622	17.800000
-44.643626	18.950000
-42.007201	11.250000
-39.373680	17.950000
-36.738730	39.400000
-34.108845	35.000000
-31.475368	19.850000
-28.846953	33.550000
-26.219271	38.500000
-23.590162	50.500000
-20.966109	58.100000
-18.338467	77.150000
-15.715878	107.900000
-13.094020	185.850000
-10.472894	301.150000
-7.852497	848.350000
-5.234988	3093.050000
-2.616051	10043.150000
0.000000	18717.500000
2.615323	19721.250000
5.229919	9061.550000
7.841632	900.850000
10.454774	162.100000
13.062882	86.900000
15.674572	57.100000
18.281231	60.950000
20.889318	31.400000
23.496681	51.150000
26.099019	32.950000
28.704935	31.150000
31.305829	15.150000
33.908152	12.650000
36.505456	21.400000
39.106336	26.850000
41.702202	13.650000
44.299495	12.550000
46.896069	20.950000
49.487634	11.650000
52.080627	9.850000
54.670759	16.000000
57.262319	14.800000
59.851019	13.400000
62.441146	5.350000
65.026275	23.050000
67.612831	6.100000
70.198672	12.450000
72.781660	20.500000
75.366075	21.050000
77.943360	6.350000
80.524212	37.650000
83.102215	12.150000
85.679508	16.050000
88.258227	12.350000
90.831965	16.500000
93.407129	-6.300000
95.979450	15.400000
98.551063	6.250000
101.119837	22.750000
103.690036	13.850000
106.257398	15.600000
108.826186	20.750000
111.392136	27.650000
113.955252	23.300000
116.521924	43.650000
119.079375	44.800000
121.642511	57.350000
124.200688	95.550000
126.762418	138.100000
129.319193	202.000000
131.877393	309.350000
134.430641	446.550000
136.983190	649.250000
139.539290	904.350000
142.090443	1133.300000
144.640897	1316.750000
147.190655	1426.350000
149.737593	1587.400000
152.283835	1683.750000
154.831503	1702.800000
157.378476	1767.050000
159.920512	1684.800000
162.461855	1653.650000
165.002505	1685.650000
167.544581	1651.700000
170.083846	1633.850000
172.620301	1694.600000
175.156066	1656.100000
177.693256	1647.350000
180.229754	1628.150000
182.763447	1604.800000
185.294337	1602.300000
187.824538	1643.000000
190.356164	1598.600000
192.884989	1584.550000
195.411015	1586.350000
197.936356	1598.450000
200.463121	1601.150000
202.987089	1614.100000
205.510373	1596.050000
208.032972	1600.100000
210.552778	1560.500000
213.071901	1566.050000
215.590341	1568.200000
218.110205	1582.550000
220.623068	1585.150000
223.139462	1595.000000
225.655174	1595.150000
228.165997	1586.550000
230.678244	1603.150000
233.187708	1607.300000
235.696494	1637.700000
238.204602	1616.400000
240.714133	1620.600000
243.218785	1663.650000
245.722760	1620.150000
248.228159	1645.450000
250.728683	1651.300000
253.232730	1677.550000
255.729807	1669.650000
258.230406	1694.350000
260.728234	1706.150000
263.225389	1712.550000
265.721871	1696.750000
268.213490	1715.500000
270.708629	1707.350000
273.201002	1728.050000
275.692704	1733.850000
278.181643	1751.100000
280.672005	1742.950000
283.159606	1726.300000
285.644447	1747.400000
288.132802	1756.550000
290.614218	1768.200000
293.099148	1779.650000
295.579233	1771.650000
298.062830	1764.550000
300.541584	1797.100000
303.021762	1801.150000
305.499187	1809.300000
307.975949	1808.000000
310.452048	1866.850000
312.925398	1897.250000
315.398086	2001.250000
317.870113	2125.000000
320.341479	2368.950000
322.810101	2489.150000
325.278063	2442.050000
327.747448	2260.100000
330.212010	2065.700000
332.680075	2025.750000
335.143321	1953.050000
337.605910	1963.550000
340.067841	1923.450000
342.529116	1924.700000
344.987657	1914.550000
347.447620	1913.050000
349.904850	1928.250000
352.361426	1921.450000
354.817348	1920.600000
357.270541	1915.200000
359.725155	1902.200000
362.174968	1917.000000
364.628278	1917.050000
367.076788	1894.550000
369.524648	1896.800000
371.973929	1928.850000
374.418417	1904.350000
376.864327	1908.500000
379.309588	1907.900000
381.752130	1938.650000
384.194024	1908.600000
386.635270	1895.900000
389.073801	1885.800000
391.513754	1888.450000
393.950993	1915.050000
396.385520	1902.450000
398.823535	1900.250000
401.256773	1898.000000
403.691433	1871.700000
406.121319	1906.300000
408.554691	1893.700000
410.983293	1895.150000
413.411254	1900.900000
415.840635	1891.100000
418.265251	1927.700000
420.691289	1928.850000
423.116686	1930.950000
425.541443	1944.200000
427.961442	1926.150000
430.382862	1941.700000
432.801585	1936.700000
435.221729	1962.600000
437.639178	1971.450000
440.058047	1943.700000
442.474223	1943.700000
444.885652	1970.150000
447.300557	1937.000000
449.712772	1938.650000
452.124353	1921.350000
454.535300	1941.350000
456.943561	1931.700000
459.351189	1919.650000
461.758186	1893.150000
464.164550	1893.550000
466.568232	1860.750000
468.971284	1853.300000
471.373706	1831.400000
473.775499	1833.450000
476.174613	1816.300000
478.575147	1830.600000
480.975052	1804.650000
483.370234	1838.050000
485.768883	1862.250000
488.162812	1853.950000
490.556115	1834.600000
492.948792	1806.500000
495.340844	1761.050000
497.734315	1724.400000
500.123073	1619.950000
502.509165	1577.450000
504.896677	1511.450000
507.283565	1457.850000
509.667790	1398.300000
512.053434	1350.700000
514.436415	1331.350000
516.816736	1287.150000
519.198476	1250.850000
521.577557	1206.450000
523.958057	1181.900000
526.335899	1204.000000
528.711086	1177.450000
531.085655	1150.700000
533.461643	1136.550000
535.834977	1140.050000
538.209729	1115.700000
540.579796	1104.700000
542.949247	1097.100000
545.320116	1093.450000
547.686305	1100.750000
550.053912	1081.800000
552.418873	1061.800000
554.783221	1063.400000
557.146957	1061.400000
559.512110	1036.100000
561.872590	1037.400000
564.234489	1045.150000
566.593748	1024.250000
568.950368	1027.450000
571.310433	1016.500000
573.663808	1022.000000
576.020627	1010.000000
578.374810	978.350000
580.728386	990.550000
583.081353	971.700000
585.431689	959.400000
587.783441	983.000000
590.128517	980.850000
592.479057	963.450000
594.822924	952.900000
597.172251	977.350000
599.516931	962.600000
601.858985	974.300000
604.202457	942.100000
606.543306	948.750000
608.883553	940.050000
611.221179	948.400000
613.562240	933.250000
615.898664	935.950000
618.236504	887.500000
620.571726	891.050000
622.904333	874.700000
625.238356	891.250000
627.569766	885.300000
629.900577	891.450000
632.230790	860.400000
634.560405	865.600000
636.885398	861.900000
639.215832	864.850000
641.541644	870.400000
643.864850	865.350000
646.189471	848.650000
648.511488	862.800000
650.832910	844.300000
653.151729	845.700000
655.471964	830.600000
657.791606	831.450000
660.108647	828.900000
662.425096	810.800000
664.738948	801.250000
667.054214	801.800000
669.366884	805.050000
671.680969	794.500000
673.990454	793.200000
676.301355	794.150000
678.609663	788.700000
680.917383	779.450000
683.226518	798.700000
685.531060	774.300000
687.835015	771.800000
690.138385	758.650000
692.443169	761.750000
694.743367	753.950000
697.044979	748.750000
699.346007	746.900000
701.642452	741.000000
703.940313	736.750000
706.237590	720.850000
708.534284	726.450000
710.826402	720.450000
713.121931	713.300000
715.412887	722.650000
717.705257	722.000000
719.995051	703.300000
722.284266	743.550000
724.572900	712.250000
726.858963	730.700000
729.146439	738.550000
731.431345	727.350000
733.715672	731.100000
735.997431	735.800000
738.280604	729.000000
740.563200	759.750000
742.841241	746.900000
745.120695	748.950000
747.399574	749.450000
749.677877	759.450000
751.951631	769.700000
754.226799	744.500000
756.501393	760.400000
758.773428	773.550000
761.046875	759.850000
763.317765	767.850000
765.586099	746.450000
767.855846	770.850000
770.123039	756.850000
772.389661	778.000000
774.655714	776.400000
776.919214	802.200000
779.184128	811.250000
781.448472	816.100000
783.708287	834.150000
785.969515	794.650000
788.230175	820.500000
790.488288	834.050000
792.743857	803.450000
795.002817	816.150000
797.255278	791.650000
799.513106	809.150000
801.766414	800.900000
804.017183	769.550000
806.269364	794.600000
808.519007	788.550000
810.770061	766.000000
813.016604	771.150000
815.264559	764.450000
817.509980	764.600000
819.756812	749.250000
822.003083	736.650000
824.244850	756.200000
826.489999	726.450000
828.728676	727.200000
830.970736	707.500000
833.208297	720.800000
835.447269	707.600000
837.683715	705.750000
839.921572	708.100000
842.156905	695.750000
844.389713	687.850000
846.623933	693.950000
848.855631	710.600000
851.086774	697.900000
853.317362	697.000000
855.547396	670.700000
857.776875	687.450000
860.001873	677.400000
862.230246	671.850000
864.454140	680.450000
866.679444	689.900000
868.900273	682.250000
871.124474	687.200000
873.344202	681.350000
875.565341	682.600000
877.785929	702.300000
880.004007	717.000000
882.223496	706.000000
884.438518	701.400000
886.652992	697.200000
888.866919	716.100000
891.080298	680.700000
893.293130	698.300000
895.505416	699.100000
897.715199	688.350000
899.924437	693.300000
902.133130	706.450000
904.339324	684.750000
906.546927	710.550000
908.752033	672.050000
910.956595	677.350000
913.158661	691.950000
915.362137	681.300000
917.563119	682.450000
919.763560	683.450000
921.965409	692.900000
924.160866	689.150000
926.359683	678.050000
928.554062	690.650000
930.751797	692.850000
932.945097	680.300000
935.139806	687.350000
937.332029	699.400000
939.523714	688.350000
941.714861	718.100000
943.903525	710.650000
946.091652	733.250000
948.277299	728.950000
950.466298	744.450000
952.650874	738.850000
954.834915	759.950000
957.022306	759.650000
959.201393	775.700000
961.383831	791.850000
963.565735	797.250000
965.745165	833.950000
967.922122	843.000000
970.100486	848.150000
972.280258	862.500000
974.453681	865.350000
976.630450	876.250000
978.802813	894.050000
980.976582	902.650000
983.145948	902.250000
985.318659	897.350000
987.488903	921.900000
989.658619	935.250000
991.827806	960.200000
993.992596	956.700000
996.160727	963.900000
998.324464	946.800000
1000.489607	966.150000
1002.652292	1012.300000
1004.814450	1003.450000
1006.974152	1020.150000
1009.133330	1023.150000
1011.293914	1033.800000
1013.452043	1028.300000
1015.609648	1050.950000
1017.766730	1033.850000
1019.923289	1044.450000
1022.075468	1054.900000
1024.229053	1063.900000
1026.382117	1069.500000
1028.532733	1107.600000
1030.684754	1102.150000
1032.832402	1110.700000
1034.983382	1105.900000
1037.129991	1129.800000
1039.276082	1142.600000
1041.421653	1196.700000
1043.568630	1163.400000
1045.709319	1205.000000
1047.853336	1156.600000
1049.994913	1202.300000
1052.135974	1172.800000
1054.278439	1215.400000
1056.414625	1228.700000
1058.554137	1220.750000
1060.689293	1210.000000
1062.827774	1215.600000
1064.961901	1188.500000
1067.095515	1209.450000
1069.230534	1190.500000
1071.361203	1193.750000
1073.493277	1190.200000
1075.622922	1178.300000
1077.752055	1167.200000
1079.880676	1133.500000
1082.008786	1124.750000
1084.134470	1117.950000
1086.259644	1125.150000
1088.386222	1100.800000
1090.508463	1089.850000
1092.632107	1068.800000
1094.751418	1066.350000
1096.875957	1044.000000
1098.994251	1026.450000
1101.113950	1020.300000
1103.231230	1015.450000
1105.348004	1023.150000
1107.464271	982.050000
1109.578123	976.600000
1111.693378	984.600000
1113.804311	966.150000
1115.918555	945.050000
1118.028479	975.450000
1120.139807	939.000000
1122.250630	951.900000
1124.357138	935.000000
1126.466954	923.200000
1128.572456	928.400000
1130.679361	932.750000
1132.780051	914.800000
1134.885953	909.250000
1136.987546	901.750000
1139.090542	922.250000
1141.193037	892.100000
1143.289325	902.350000
1145.390821	877.100000
1147.488014	896.450000
1149.584708	871.600000
1151.680904	882.200000
1153.776603	867.400000
1155.871804	878.250000
1157.964608	859.800000
1160.058814	872.200000
1162.146829	859.300000
1164.240042	857.750000
1166.327067	846.700000
1168.417391	849.250000
1170.503428	863.700000
1172.592762	868.200000
1174.675915	862.850000
1176.760471	868.450000
1178.846427	835.050000
1180.928102	863.950000
1183.011179	861.350000
1185.091870	854.350000
1187.172069	861.500000
1189.251777	854.800000
1191.330994	852.200000
1193.407829	864.750000
1195.482283	844.300000
1197.560029	861.500000
1199.633504	847.300000
1201.708380	861.350000
1203.778989	853.050000
1205.851000	859.200000
1207.920634	843.400000
1209.991669	843.350000
1212.062216	838.250000
1214.128502	845.850000
1216.196189	831.600000
1218.261504	830.900000
1220.328219	832.350000
1222.390678	823.050000
1224.456422	836.100000
1226.517913	844.000000
1228.580803	834.350000
1230.641326	852.900000
1232.701365	819.700000
1234.760922	841.950000
1236.818113	839.000000
1238.874823	848.150000
1240.929170	825.350000
1242.986797	831.100000
1245.042062	857.600000
1247.093086	839.450000
1249.145510	840.500000
1251.197454	851.100000
1253.247040	825.600000
1255.296147	833.100000
1257.344776	855.500000
1259.392926	853.350000
1261.440598	867.900000
1263.484039	877.550000
1265.530755	845.050000
1267.575118	882.350000
1269.619005	882.250000
1271.660541	894.850000
1273.699727	813.650000
1275.742185	896.700000
1277.780421	901.250000
1279.820056	931.200000
1281.859216	948.950000
1283.894157	953.950000
1285.930498	931.350000
1287.964493	985.600000
1289.999887	995.500000
1292.031067	1010.300000
1294.063646	1038.950000
1296.095752	1067.800000
1298.125518	1096.100000
1300.156682	1119.400000
1302.183638	1131.950000
1304.211992	1168.250000
1306.236142	1183.450000
1308.263556	1259.450000
1310.286768	1302.050000
1312.311378	1314.650000
1314.333654	1356.050000
1316.357327	1424.200000
1318.378667	1425.950000
1320.399539	1520.750000
1322.419945	1566.250000
1324.436156	1639.750000
1326.453766	1654.000000
1328.469047	1714.800000
1330.487586	1796.600000
1332.501937	1854.350000
1334.513962	1862.900000
1336.529244	1914.250000
1338.540341	1951.100000
1340.552835	1924.600000
1342.561146	1944.950000
1344.572713	1926.250000
1346.578240	1861.300000
1348.587023	1843.150000
1350.591628	1780.200000
1352.599487	1741.000000
1354.606884	1702.750000
1356.608250	1603.000000
1358.611013	1568.150000
1360.613315	1501.550000
1362.615158	1436.450000
1364.616541	1368.800000
1366.615611	1334.500000
1368.614222	1277.300000
1370.612375	1224.100000
1372.610070	1196.850000
1374.603601	1155.200000
1376.598529	1107.650000
1378.593000	1087.450000
1380.587014	1064.750000
1382.578721	1046.300000
1384.569972	1041.300000
1386.558918	1002.550000
1388.549259	975.450000
1390.539145	955.750000
1392.526728	962.800000
1394.513856	926.000000
1396.498684	942.400000
1398.484905	915.450000
1400.468827	924.100000
1402.452296	896.800000
1404.435313	887.100000
1406.416031	904.400000
1408.398145	878.350000
1410.377961	876.900000
1412.357327	862.850000
1414.332553	868.150000
1416.311019	857.650000
1418.287190	857.450000
1420.262913	878.850000
1422.238186	850.150000
1424.211168	859.650000
1426.183702	833.200000
1428.155789	851.750000
1430.127427	841.450000
1432.094937	828.050000
1434.067522	837.800000
1436.032300	851.650000
1438.002151	816.400000
1439.967877	841.450000
1441.934996	812.600000
1443.899832	849.500000
1445.860549	817.550000
1447.826333	820.150000
1449.786162	814.750000
1451.747384	822.050000
1453.709999	813.650000
1455.668499	821.250000
1457.626557	802.550000
1459.584172	823.250000
1461.541346	817.250000
1463.496244	840.600000
1465.452534	797.650000
1467.406550	819.000000
1469.360126	804.500000
1471.311429	812.400000
1473.264124	824.050000
1475.214548	806.250000
1477.164533	810.200000
1479.114078	840.700000
1481.061355	794.800000
1483.006365	828.250000
1484.952766	817.100000
1486.898731	827.600000
1488.844257	837.350000
1490.787519	838.050000
1492.730344	823.300000
1494.670906	827.400000
1496.612859	833.750000
1498.552551	845.000000
1500.491807	815.750000
1502.430628	859.000000
1504.367190	835.250000
1506.305143	861.450000
1508.240838	858.450000
1510.176099	856.450000
1512.109103	856.350000
1514.041675	883.650000
1515.973815	872.300000
1517.905523	877.650000
1519.834977	886.950000
1521.765822	905.350000
1523.696236	894.100000
1525.622576	926.950000
1527.550308	937.150000
1529.475789	952.700000
1531.400841	963.750000
1533.325464	994.950000
1535.249658	993.750000
1537.171605	1028.650000
1539.094941	1030.850000
1541.016032	1084.800000
1542.934878	1112.900000
1544.855114	1150.250000
1546.773106	1167.900000
1548.690672	1217.000000
1550.605996	1304.800000
1552.522710	1344.900000
1554.435369	1395.350000
1556.351232	1499.100000
1558.264855	1522.600000
1560.176241	1570.500000
1562.089015	1603.650000
1563.997740	1675.150000
1565.907855	1730.400000
1567.817546	1735.500000
1569.726813	1771.550000
1571.633847	1775.500000
1573.538648	1756.350000
1575.444838	1738.900000
1577.348796	1671.600000
1579.252334	1644.100000
1581.155450	1598.150000
1583.056338	1595.050000
1584.958613	1509.200000
1586.858661	1478.600000
1588.760096	1419.750000
1590.657498	1374.300000
1592.554481	1367.500000
1594.451046	1339.500000
1596.348999	1346.500000
1598.241117	1304.500000
1600.136428	1294.250000
1602.031322	1290.050000
1603.923994	1266.200000
1605.816250	1288.050000
1607.706286	1222.450000
1609.595906	1200.950000
1611.485110	1158.150000
1613.373900	1121.000000
1615.260473	1074.400000
1617.148432	1055.150000
1619.032375	998.650000
1620.917706	995.350000
1622.802622	942.200000
1624.685326	909.150000
1626.569415	876.750000
1628.449494	865.950000
1630.330959	836.750000
1632.210214	820.400000
1634.090855	814.750000
1635.965692	804.350000
1637.845511	777.750000
1639.721324	784.000000
1641.596727	741.000000
1643.473517	748.450000
1645.344509	744.450000
1647.218683	751.300000
1649.088859	726.750000
1650.962215	722.450000
1652.833368	712.450000
1654.702319	713.550000
1656.572656	705.800000
1658.438999	705.200000
1660.306728	692.500000
1662.172259	706.850000
1664.039174	673.700000
1665.902101	692.200000
1667.766413	670.450000
1669.628529	653.850000
1671.490241	657.250000
1673.353337	666.850000
1675.214239	664.750000
1677.072947	664.100000
1678.931252	655.700000
1680.790942	665.950000
1682.644865	638.000000
1684.501960	665.200000
1686.358653	644.000000
1688.211370	653.000000
1690.067258	663.050000
1691.919171	655.600000
1693.770684	624.900000
1695.621796	655.300000
1697.472508	648.800000
1699.322819	648.950000
1701.170946	638.500000
1703.020456	636.250000
1704.864218	622.050000
1706.712929	656.800000
1708.555895	620.050000
1710.402026	661.150000
1712.244196	641.500000
1714.089530	660.400000
1715.929124	627.650000
1717.770102	628.050000
1719.612463	640.100000
1721.450868	627.900000
1723.290656	629.150000
1725.128269	646.100000
1726.965486	621.400000
1728.800530	636.300000
1730.636957	614.900000
1732.471212	642.200000
1734.305072	623.350000
1736.138539	626.650000
1737.968059	613.350000
1739.800738	598.950000
1741.629473	621.850000
1743.461366	612.250000
1745.289316	617.550000
1747.116874	618.500000
1748.944040	603.350000
1750.770815	620.700000
1752.597199	623.150000
1754.419646	608.450000
1756.245247	591.350000
1758.066914	617.550000
1759.889963	602.850000
1761.710851	611.650000
1763.531349	606.450000
1765.353229	610.800000
1767.169409	610.450000
1768.988741	612.750000
1770.804146	602.750000
1772.622701	613.200000
1774.437331	619.200000
1776.251575	607.450000
1778.065431	588.800000
1779.878901	624.200000
1781.690218	593.850000
1783.502916	607.500000
1785.315227	608.950000
1787.123621	627.250000
1788.933396	603.750000
1790.739255	594.350000
1792.548260	615.900000
1794.353352	609.800000
1796.159825	612.700000
1797.965914	606.600000
1799.768093	606.050000
1801.573415	614.900000
1803.374829	598.850000
1805.177623	614.750000
1806.976511	587.350000
1808.776780	604.800000
1810.576667	600.100000
1812.374413	620.450000
1814.171777	593.900000
1815.968762	610.400000
1817.765366	582.050000
1819.559831	619.400000
1821.355675	601.650000
1823.145865	606.000000
1824.940951	607.900000
1826.730384	592.800000
1828.522954	616.900000
1830.313389	601.300000
1832.101690	603.200000
1833.893126	610.750000
1835.678916	615.800000
1837.466086	589.000000
1839.251124	621.100000
1841.039296	594.700000
1842.823582	615.700000
1844.605739	595.600000
1846.389274	627.200000
1848.170681	599.350000
1849.953467	602.100000
1851.732373	597.800000
1853.512657	570.150000
1855.290815	617.500000
1857.070352	591.250000
1858.847764	610.500000
1860.623052	578.600000
1862.399719	604.650000
1864.174262	603.650000
1865.950184	606.550000
1867.720486	611.150000
1869.493914	601.900000
1871.265223	611.350000
1873.036162	597.750000
1874.808477	597.050000
1876.575180	601.300000
1878.345007	595.200000
1880.110971	597.200000
1881.880059	582.650000
1883.645285	598.800000
1885.410142	595.250000
1887.176377	606.750000
1888.938753	600.550000
1890.700762	612.600000
1892.462403	599.750000
1894.223678	606.000000
1895.984585	587.500000
1897.745126	590.650000
1899.503557	599.150000
1901.261623	592.000000
1903.017580	593.500000
1904.774915	597.950000
1906.531883	600.850000
1908.286746	587.650000
1910.039503	591.250000
1911.791897	608.600000
1913.545666	578.600000
1915.297332	618.850000
1917.046896	570.100000
1918.797836	575.850000
1920.548412	602.400000
1922.295149	617.000000
1924.043263	593.400000
1925.789277	606.900000
1927.536667	588.600000
1929.281958	593.350000
1931.025152	586.250000
1932.769722	585.050000
1934.512195	592.050000
1936.254308	607.500000
1937.996061	588.600000
1939.737455	580.500000
1941.476755	590.200000
1943.215695	596.700000
1944.954278	584.200000
1946.690768	606.950000
1948.426901	603.900000
1950.164408	600.850000
1951.898093	605.000000
1953.633153	593.700000
1955.366125	588.450000
1957.098740	599.050000
1958.830998	600.800000
1960.562900	619.700000
1962.292716	606.600000
1964.020448	597.500000
1965.749553	602.550000
1967.478304	610.250000
1969.204971	602.400000
1970.931284	607.850000
1972.658970	597.250000
1974.381120	608.250000
1976.106371	605.300000
1977.827816	612.350000
1979.552360	614.350000
1981.274825	607.900000
1982.993486	599.150000
1984.715246	616.550000
1986.433204	594.200000
1988.152535	603.250000
1989.868067	598.500000
1991.588420	639.150000
1993.304973	618.250000
1995.017731	624.050000
1996.733584	600.150000
1998.447364	598.050000
2000.160795	615.400000
2001.872155	618.100000
2003.584888	626.700000
2005.293829	594.750000
2007.005864	619.950000
2008.712389	619.300000
2010.422007	597.250000
2012.129557	620.250000
2013.836760	610.900000
2015.541897	614.900000
2017.246687	616.450000
2018.952849	616.300000
2020.655229	623.150000
2022.358981	618.300000
2024.060669	609.950000
2025.762013	613.200000
2027.463011	628.900000
2029.161949	609.750000
2030.862257	605.750000
2032.558791	603.850000
2034.256696	612.550000
2035.952542	621.400000
2037.651474	604.700000
2039.344920	618.250000
2041.039738	624.100000
2042.734212	630.550000
2044.424918	625.600000
2046.118708	630.800000
2047.808731	617.350000
2049.500125	633.700000
2051.189466	621.250000
2052.880177	610.950000
2054.567126	613.550000
2056.253734	605.200000
2057.941713	611.100000
2059.625932	595.350000
2061.311521	627.100000
2062.996771	620.750000
2064.679973	592.950000
2066.364544	614.300000
2068.043653	588.500000
2069.727547	618.650000
2071.405981	597.050000
2073.087491	611.450000
2074.765251	597.800000
2076.442673	602.100000
2078.121466	607.550000
2079.798215	615.950000
2081.472923	600.500000
2083.149000	614.000000
2084.823037	612.550000
2086.496738	614.700000
2088.170104	599.500000
2089.841432	603.000000
2091.512425	612.300000
2093.183084	622.150000
2094.853408	609.300000
2096.523399	612.800000
2098.191354	601.050000
2099.858976	625.950000
2101.524564	600.750000
2103.191520	622.000000
2104.856442	602.900000
2106.521033	621.100000
2108.183592	621.900000
2109.847519	628.250000
2111.509416	620.000000
2113.170981	612.350000
2114.832215	608.750000
2116.491421	611.150000
2118.150297	613.650000
2119.808842	634.250000
2121.467058	616.750000
2123.121550	622.400000
2124.779107	615.150000
2126.436335	625.250000
2128.089841	604.450000
2129.744715	618.250000
2131.395871	620.850000
2133.050088	633.200000
2134.700589	614.350000
2136.352456	621.650000
2137.998915	624.800000
2139.650129	617.850000
2141.297629	632.100000
2142.946496	634.750000
2144.593345	616.250000
2146.239867	643.550000
2147.886064	628.950000
2149.528553	635.750000
2151.174100	631.950000
2152.815940	616.950000
2154.460837	626.650000
2156.102029	643.100000
2157.742897	611.050000
2159.383441	623.150000
2161.021974	611.550000
2162.661872	627.000000
2164.298070	619.200000
2165.935634	625.600000
2167.572875	630.050000
2169.208107	610.550000
2170.843018	617.150000
2172.477607	623.900000
2174.111874	615.550000
2175.742449	633.400000
2177.376074	614.200000
2179.006008	613.350000
2180.637307	598.750000
2182.266602	614.550000
2183.895576	610.550000
2185.524232	632.600000
2187.152568	605.050000
2188.778901	614.800000
2190.404916	606.250000
2192.028930	635.750000
2193.654308	626.450000
2195.277687	594.000000
2196.902429	592.500000
2198.523491	608.550000
2200.144236	623.700000
2201.766346	601.450000
2203.386458	623.900000
2205.004573	628.550000
2206.622373	609.700000
2208.239858	611.150000
2209.857027	596.850000
2211.473881	621.850000
2213.090420	625.450000
2214.704965	626.800000
2216.317518	627.400000
2217.931435	629.250000
2219.543361	604.350000
2221.156650	613.550000
2222.767949	620.750000
2224.377258	625.250000
2225.987931	611.500000
2227.596615	614.200000
2229.204987	601.500000
2230.811371	616.850000
2232.419119	611.000000
2234.024880	606.100000
2235.630330	604.050000
2237.233795	617.850000
2238.838624	620.700000
2240.441468	622.850000
2242.042329	626.300000
2243.644553	616.950000
2245.244794	610.350000
2246.846398	610.750000
2248.444350	613.750000
2250.043664	639.750000
2251.640998	625.000000
2253.238023	605.800000
2254.836411	592.600000
2256.431150	639.850000
2258.023912	606.850000
2259.618037	606.700000
2261.213523	623.900000
2262.805365	618.150000
2264.396900	630.000000
2265.989796	596.650000
2267.577383	610.150000
2269.169667	611.900000
2270.756643	600.650000
2272.346648	602.450000
2273.931348	618.250000
2275.520742	616.700000
2277.104833	611.400000
2278.690286	609.650000
2280.273769	595.050000
2281.860279	623.650000
2283.443155	611.150000
2285.025727	622.300000
2286.607996	614.900000
2288.186636	623.750000
2289.768299	600.600000
2291.346334	620.750000
2292.927392	633.600000
2294.504824	614.850000
2296.080291	596.100000
2297.658781	627.700000
2299.233647	598.850000
2300.808212	629.450000
2302.382477	601.150000
2303.956441	618.700000
2305.530105	607.850000
2307.103468	626.000000
2308.673213	609.300000
2310.242659	626.750000
2311.815124	614.700000
2313.382313	612.000000
2314.952521	619.100000
2316.519114	619.150000
2318.087067	600.750000
2319.653065	620.250000
2321.218764	620.300000
2322.784167	630.700000
2324.347616	629.850000
2325.912423	651.950000
2327.473623	703.400000
2329.037837	771.200000
2330.596790	760.400000
2332.158756	724.300000
2333.718772	669.900000
2335.278492	630.650000
2336.836263	628.600000
2338.393740	630.050000
2339.950921	627.150000
2341.506156	623.550000
2343.061096	623.150000
2344.615743	633.300000
2346.170096	626.650000
2347.724155	630.500000
2349.277920	616.300000
2350.829742	624.450000
2352.379620	620.900000
2353.932506	643.450000
2355.480150	622.100000
2357.030801	632.250000
2358.577862	612.250000
2360.126280	630.350000
2361.674406	622.350000
2363.218944	635.050000
2364.764841	616.000000
2366.308798	641.000000
2367.854113	622.350000
2369.395843	628.650000
2370.938930	623.150000
2372.480082	626.150000
2374.020944	624.950000
2375.561517	629.250000
2377.101801	621.750000
2378.641796	634.050000
2380.178212	614.150000
2381.717630	645.050000
2383.253471	635.050000
2384.790668	625.500000
2386.324290	621.450000
2387.860913	637.050000
2389.395604	621.200000
2390.928366	631.950000
2392.460842	642.450000
2393.991389	638.950000
2395.524934	629.450000
2397.053268	658.500000
2398.582958	628.100000
2400.112363	644.250000
2401.641482	637.350000
2403.170317	650.750000
2404.693946	632.500000
2406.222212	663.800000
2407.745274	636.850000
2409.272970	660.100000
2410.793827	649.850000
2412.319317	669.700000
2413.841246	653.650000
2415.364531	664.300000
2416.885895	657.550000
2418.405339	671.550000
2419.926138	663.750000
2421.445018	649.700000
2422.963616	649.750000
2424.480297	673.600000
2425.998332	642.550000
2427.516086	655.050000
2429.030289	655.950000
2430.544211	637.550000
2432.057853	651.400000
2433.572850	669.500000
2435.084298	670.000000
2436.597101	669.750000
2438.107991	651.100000
2439.618601	651.750000
2441.127300	636.250000
2442.638986	672.000000
2444.147127	649.700000
2445.654991	652.950000
2447.162577	650.700000
2448.666622	667.950000
2450.173653	641.100000
2451.678775	651.800000
2453.183620	658.100000
2454.686558	653.750000
2456.189219	665.750000
2457.691604	662.550000
2459.192084	639.800000
2460.693917	643.400000
2462.193846	645.100000
2463.693499	640.300000
2465.192876	636.700000
2466.690351	648.150000
2468.185925	644.200000
2469.684478	666.450000
2471.179502	631.550000
2472.675880	656.050000
2474.168731	638.750000
2475.662934	632.400000
2477.156864	641.000000
2478.647271	638.700000
2480.140654	654.450000
2481.632140	642.450000
2483.121729	627.000000
2484.611046	641.100000
2486.098468	633.600000
2487.588865	643.950000
2489.075743	639.000000
2490.563973	647.550000
2492.048687	670.900000
2493.533130	646.150000
2495.018925	651.000000
2496.502827	631.900000
2497.988081	657.150000
2499.468201	642.250000
2500.951293	645.950000
2502.432495	645.750000
2503.913428	650.450000
2505.392472	646.250000
2506.871247	626.150000
2508.349754	651.450000
2509.827993	654.200000
2511.305963	654.050000
2512.780429	663.800000
2514.257863	647.150000
2515.731794	658.750000
2517.207076	654.150000
2518.682090	646.300000
2520.153603	653.450000
2521.626466	651.350000
2523.097447	662.250000
2524.569778	657.900000
2526.036996	663.850000
2527.507179	644.400000
2528.975482	677.800000
2530.443520	667.350000
2531.911293	664.550000
2533.378801	656.700000
2534.846044	671.800000
2536.309795	667.950000
2537.774896	667.900000
2539.238120	651.750000
2540.702694	664.800000
2542.163778	660.300000
2543.626212	669.600000
2545.088383	638.000000
2546.547068	685.250000
2548.010325	666.950000
2549.468485	672.250000
2550.927994	656.300000
2552.382410	653.900000
2553.841395	689.250000
2555.298509	654.850000
2556.753752	661.900000
2558.208734	669.000000
2559.661846	658.300000
2561.116307	651.900000
2562.568899	664.350000
2564.021231	667.250000
2565.471695	659.250000
2566.925115	670.250000
2568.373453	667.850000
2569.824747	674.500000
2571.274174	669.200000
2572.720130	689.950000
2574.169040	672.950000
2575.614479	676.050000
2577.061267	684.150000
2578.506191	675.950000
2579.950858	667.100000
2581.396872	666.250000
2582.839419	679.200000
2584.283314	678.250000
2585.723744	670.550000
2587.165522	694.550000
2588.605439	672.750000
2590.046704	697.150000
2591.484508	674.000000
2592.925261	698.900000
2594.360951	699.300000
2595.799591	684.450000
2597.236374	678.400000
2598.671300	716.100000
2600.109175	709.950000
2601.541991	723.250000
2602.976155	716.000000
2604.408465	704.100000
2605.842121	716.000000
2607.273924	706.850000
2608.705474	714.250000
2610.136770	696.400000
2611.566214	727.300000
2612.995407	727.600000
2614.422748	712.300000
2615.851436	717.350000
2617.279871	718.250000
2618.704859	718.550000
2620.131194	724.750000
2621.555680	751.500000
2622.981512	744.300000
2624.403900	756.250000
2625.827634	744.600000
2627.249521	754.250000
2628.671159	771.950000
2630.090951	781.600000
2631.512089	775.050000
2632.932977	782.750000
2634.350427	778.350000
2635.770816	797.450000
2637.187768	788.400000
2638.604472	802.050000
2640.020927	813.600000
2641.437134	812.000000
2642.853092	810.300000
2644.267210	848.550000
2645.681081	823.150000
2647.093112	829.150000
2648.506488	833.300000
2649.916434	853.650000
2651.329315	849.750000
2652.738769	882.450000
2654.147976	859.300000
2655.555347	891.300000
2656.965652	887.750000
2658.374121	902.450000
2659.780755	898.450000
2661.187144	912.500000
2662.591699	911.050000
2663.997598	918.400000
2665.401664	930.200000
2666.805486	931.600000
2668.209063	908.100000
2669.610808	952.500000
2671.013897	938.200000
2672.413569	929.100000
2673.814583	946.000000
2675.212182	934.050000
2676.612711	914.300000
2678.009825	934.450000
2679.408282	925.500000
2680.804911	903.000000
2682.201298	925.050000
2683.597444	926.950000
2684.991763	897.000000
2686.387425	922.450000
2687.779677	898.850000
2689.173273	910.050000
2690.565044	882.800000
2691.958157	889.650000
2693.349447	864.750000
2694.738914	873.250000
2696.128141	857.850000
2697.517129	844.850000
2698.907459	852.750000
2700.292804	851.800000
2701.681073	833.050000
2703.067522	822.700000
2704.453732	808.950000
2705.839704	820.950000
2707.222276	804.250000
2708.606191	804.350000
2709.989868	794.800000
2711.373307	792.400000
2712.753350	775.550000
2714.134735	783.150000
2715.514304	768.050000
2716.895215	777.800000
2718.274311	754.350000
2719.651592	767.150000
2721.030215	775.300000
2722.407025	757.400000
2723.783599	746.550000
2725.159937	749.450000
2726.534463	712.050000
2727.910330	762.300000
2729.282810	721.350000
2730.658206	735.950000
2732.028642	717.250000
2733.400419	724.950000
2734.771961	719.500000
2736.141695	704.600000
2737.512770	700.600000
2738.882037	707.000000
2740.251070	688.000000
2741.618296	703.950000
2742.985290	700.250000
2744.352051	697.050000
2745.718579	685.300000
2747.083302	703.150000
2748.447794	697.350000
2749.812053	694.100000
2751.176080	682.350000
2752.539876	691.850000
2753.900298	663.950000
2755.263631	683.950000
2756.622021	680.700000
2757.983321	663.550000
2759.341250	681.950000
2760.702089	674.800000
2762.061127	654.900000
2763.416797	661.700000
2764.775375	649.700000
2766.130587	671.750000
2767.485569	638.600000
2768.838754	651.900000
2770.194846	640.550000
2771.547574	649.750000
2772.900073	644.100000
2774.252344	638.250000
2775.605954	634.900000
2776.956202	655.200000
2778.304657	626.350000
2779.656016	637.200000
2781.004016	615.850000
2782.353355	640.400000
2783.700901	603.100000
2785.048220	630.200000
2786.395313	613.300000
2787.740615	623.100000
2789.085691	614.350000
2790.430541	641.700000
2791.775164	627.600000
2793.116436	637.150000
2794.459046	619.050000
2795.801430	627.250000
2797.143590	608.450000
2798.482400	614.500000
2799.824109	620.050000
2801.162471	622.250000
2802.502170	630.050000
2803.840083	626.900000
2805.176212	606.400000
2806.512117	644.000000
2807.849360	612.950000
2809.184819	643.600000
2810.520055	611.600000
2811.853508	622.150000
2813.188299	626.150000
2814.519748	633.650000
2815.854093	614.950000
2817.183540	621.600000
2818.514324	618.000000
2819.844886	625.400000
2821.173669	609.350000
2822.503788	633.300000
2823.832129	634.900000
2825.160249	624.750000
2826.486592	621.050000
2827.814270	625.550000
2829.138616	613.450000
2830.464297	601.800000
2831.788203	624.700000
2833.111890	626.250000
2834.436912	625.400000
2835.758604	633.750000
2837.080078	635.800000
2838.401333	634.100000
2839.722369	637.050000
2841.041633	633.500000
2842.362232	625.200000
2843.681059	633.050000
2844.999668	620.250000
2846.316506	603.350000
2847.633128	611.900000
2848.949531	629.550000
2850.264166	606.700000
2851.580135	625.500000
2852.892784	613.450000
2854.206769	613.800000
2855.520536	624.600000
2856.834088	628.850000
2858.145872	615.350000
2859.455890	634.250000
2860.767243	614.200000
2862.075281	640.200000
2863.384654	618.450000
2864.693811	629.150000
2866.002753	617.100000
2867.309932	632.200000
2868.615347	634.150000
2869.922097	622.800000
2871.227084	624.750000
2872.531858	619.900000
2873.834870	632.200000
2875.140764	630.750000
2876.441802	636.000000
2877.744175	629.800000
2879.044788	635.100000
2880.346735	633.500000
2881.648469	648.550000
2882.946898	653.800000
2884.246662	633.450000
2885.544667	640.500000
2886.842461	629.600000
2888.138499	636.450000
2889.435870	630.000000
2890.731485	635.850000
2892.026889	634.950000
2893.322083	640.250000
2894.613978	629.750000
2895.908750	653.750000
2897.200225	624.750000
2898.493033	635.300000
2899.785631	627.300000
2901.074935	641.050000
2902.365571	632.450000
2903.654456	648.600000
2904.944674	617.550000
2906.231600	638.300000
2907.519858	641.400000
2908.806366	639.700000
2910.092667	630.400000
2911.378759	657.100000
2912.663103	617.400000
2913.950319	645.350000
2915.232707	645.350000
2916.516428	636.200000
2917.798403	620.950000
2919.080171	646.450000
2920.360193	633.850000
2921.643085	642.950000
2922.924232	624.750000
2924.202097	641.600000
2925.482831	629.050000
2926.760284	615.950000
2928.037531	625.200000
2929.313037	636.000000
2930.591410	623.700000
2931.864968	635.100000
2933.141394	626.950000
2934.416079	601.550000
2935.689024	628.150000
2936.963299	621.050000
2938.235835	627.950000
2939.508167	633.600000
2940.777225	622.050000
2942.049149	620.950000
2943.319335	608.300000
2944.589318	615.900000
2945.859097	619.850000
2947.127139	612.400000
2948.393446	611.300000
2949.659550	625.400000
2950.926984	607.150000
2952.192684	625.350000
2953.458181	602.550000
2954.723476	607.200000
2955.985506	601.150000
2957.248867	628.350000
2958.512025	612.000000
2959.773452	609.700000
2961.036208	580.600000
2962.297233	595.150000
2963.556526	590.400000
2964.815620	610.000000
2966.074513	598.150000
2967.333206	600.050000
2968.591699	582.450000
2969.848463	613.400000
2971.105027	596.250000
2972.359864	609.550000
2973.616030	596.650000
2974.868940	583.200000
2976.123180	586.950000
2977.377221	584.750000
2978.629536	567.300000
2979.881653	587.950000
2981.132045	585.900000
2982.385292	587.050000
2983.633762	570.250000
2984.885086	591.800000
2986.133162	569.150000
2987.381040	581.750000
2988.628721	559.400000
2989.876206	579.850000
2991.121969	578.850000
2992.367535	576.400000
2993.614429	578.050000
2994.858079	561.750000
2996.103057	570.600000
2997.344792	570.950000
2998.589378	570.050000
2999.832244	568.400000
3001.071870	582.400000
3002.314346	586.850000
3003.553583	569.050000
3004.794147	582.100000
3006.032994	562.750000
3007.271647	581.600000
3008.508584	568.000000
3009.746848	571.450000
3010.983398	587.450000
3012.219753	574.500000
3013.455915	568.550000
3014.690364	579.400000
3015.924619	553.250000
3017.158681	582.800000
3018.391031	569.150000
3019.621669	592.300000
3020.855153	563.750000
3022.086925	580.900000
3023.316987	565.150000
3024.546857	564.900000
3025.775017	553.750000
3027.004503	572.100000
3028.232281	573.000000
3029.459867	581.400000
3030.688779	545.300000
3031.912949	560.900000
3033.139962	543.450000
3034.363751	555.550000
3035.588867	557.850000
3036.812276	563.400000
3038.035496	560.500000
3039.257010	553.600000
3040.481365	561.350000
3041.700985	560.550000
3042.921930	547.300000
3044.142687	553.950000
3045.361740	558.500000
3046.582119	544.250000
3047.799281	540.800000
3049.017768	554.250000
3050.234554	552.000000
3051.451151	542.350000
3052.667560	547.400000
3053.880757	557.350000
3055.096791	569.750000
3056.309613	527.250000
3057.525272	539.750000
3058.736208	568.900000
3059.948469	529.700000
3061.160544	555.850000
3062.372432	551.200000
3063.582622	532.850000
3064.792626	553.400000
3066.002445	542.450000
3067.210567	544.000000
3068.418503	534.150000
3069.624745	542.350000
3070.832310	553.200000
3072.038182	558.075000
3073.243868	562.950000
3074.449369	542.200000
3075.653177	555.350000
3076.858309	532.800000
3078.061749	552.450000
3079.263496	547.800000
3080.465060	561.450000
3081.666440	543.350000
3082.867636	556.950000
3084.067142	550.550000
3085.266464	544.050000
3086.467110	540.900000
3087.666066	550.000000
3088.861828	549.350000
3090.060419	563.150000
3091.255816	534.500000
3092.452536	541.350000
3093.646064	552.200000
3094.842421	546.450000
3096.037090	532.550000
3097.228569	552.200000
3098.424379	537.300000
3099.615496	563.100000
3100.807935	523.350000
3101.997187	539.450000
3103.189265	523.000000
3104.379658	538.450000
3105.566866	538.400000
3106.755397	545.850000
3107.945250	537.050000
3109.131918	532.950000
3110.318407	543.250000
3111.504716	539.200000
3112.692347	517.800000
3113.876797	520.950000
3115.059566	526.150000
3116.245159	525.350000
3117.429071	516.550000
3118.611305	510.800000
3119.793360	522.800000
3120.975238	520.950000
3122.156937	505.750000
3123.336958	545.700000
3124.515303	525.700000
3125.696469	543.450000
3126.874459	528.400000
3128.052272	534.450000
3129.229908	523.050000
3130.405869	512.100000
3131.581653	528.300000
3132.758759	531.550000
3133.934190	522.150000
3135.107948	539.950000
3136.280034	522.750000
3137.453440	531.550000
3138.626671	525.000000
3139.798229	543.200000
3140.971109	541.300000
3142.140821	509.850000
3143.311854	529.150000
3144.481216	540.550000
3145.648909	524.800000
3146.819417	543.700000
3147.985266	528.800000
3149.155425	522.100000
3150.320926	532.800000
3151.486254	528.600000
3152.651408	518.150000
3153.816388	528.550000
3154.982689	535.350000
3156.144336	523.900000
3157.307304	512.700000
3158.470098	536.000000
3159.632720	519.800000
3160.793677	531.250000
3161.954461	500.850000
3163.115073	497.600000
3164.274022	512.100000
3165.432798	512.850000
3166.591403	518.400000
3167.749836	496.350000
3168.908097	491.600000
3170.064696	512.450000
3171.219634	496.500000
3172.375891	508.850000
3173.530488	496.400000
3174.684913	501.100000
3175.837679	513.750000
3176.990275	510.400000
3178.142700	491.800000
3179.294956	508.050000
3180.447042	500.900000
3181.595981	504.650000
3182.747727	506.900000
3183.897815	506.750000
3185.046247	510.750000
3186.194510	528.050000
3187.342603	505.500000
3188.490528	524.700000
3189.636798	509.900000
3190.782899	523.800000
3191.927345	510.350000
3193.071624	528.550000
3194.215735	509.800000
3195.361164	528.350000
3196.503453	514.000000
3197.645576	526.250000
3198.787531	522.500000
3199.929320	514.800000
3201.070941	524.150000
3202.209426	515.000000
3203.349229	521.750000
3204.490350	503.900000
3205.628336	524.850000
3206.764673	548.650000
3207.900844	527.600000
3209.038333	516.650000
3210.174173	536.350000
3211.311329	516.150000
3212.443873	513.600000
3213.580699	526.250000
3214.712913	514.500000
3215.846445	513.500000
3216.979811	518.800000
3218.110050	525.550000
3219.243087	520.650000
3220.372998	518.700000
3221.504226	491.900000
3222.632328	520.850000
3223.763227	491.100000
3224.892483	500.500000
3226.020094	492.550000
3227.144584	494.800000
3228.273349	482.400000
3229.398992	480.950000
3230.524472	477.800000
3231.648311	506.200000
3232.774944	469.950000
3233.896980	506.600000
3235.020332	481.550000
3236.143522	488.250000
3237.266550	488.000000
3238.387938	483.900000
3239.509165	480.700000
3240.628753	502.100000
3241.748180	492.500000
3242.865969	477.850000
3243.986551	481.400000
3245.104018	486.200000
3246.221326	492.800000
3247.338472	516.300000
3248.453983	484.650000
3249.570809	516.200000
3250.684524	498.250000
3251.801030	502.400000
3252.915900	485.750000
3254.027662	490.100000
3255.139265	498.750000
3256.252182	490.400000
3257.364941	494.250000
3258.474593	515.600000
3259.585560	501.700000
3260.696367	503.600000
3261.805544	489.650000
3262.913089	508.750000
3264.021949	490.700000
3265.130650	507.800000
3266.236249	500.150000
3267.343162	500.850000
3268.448447	473.950000
3269.555045	506.200000
3270.658543	489.000000
3271.763355	511.200000
3272.868010	476.200000
3273.969566	502.000000
3275.070967	509.500000
3276.173681	481.250000
3277.276238	490.400000
3278.375700	518.950000
3279.477944	494.000000
3280.577094	499.350000
3281.674618	480.700000
3282.771987	508.250000
3283.872139	487.650000
3284.969197	490.050000
3286.066100	494.100000
3287.162849	498.750000
3288.255038	478.250000
3289.351476	483.850000
3290.446293	494.650000
3291.540954	488.350000
3292.633994	471.000000
3293.726880	498.950000
3294.818145	479.500000
3295.910723	491.450000
3297.001680	493.750000
3298.091018	465.600000
3299.180203	490.950000
3300.270701	480.650000
3301.358114	478.350000
3302.445375	477.050000
3303.533948	478.100000
3304.622368	483.350000
3305.706241	473.500000
3306.794356	489.550000
3307.879390	482.750000
3308.962807	473.850000
3310.047537	463.100000
3311.130652	480.600000
3312.215078	484.350000
3313.296426	487.650000
3314.379086	480.950000
3315.460132	485.700000
3316.541027	480.100000
3317.620309	461.300000
3318.699440	466.000000
3319.779882	465.550000
3320.857251	470.750000
3321.935931	450.700000
3323.012999	470.450000
3324.089917	478.100000
3325.165224	454.600000
3326.240382	483.000000
3327.316851	468.600000
3328.390250	478.200000
3329.463500	471.400000
3330.538061	482.850000
3331.611012	460.750000
3332.682356	462.850000
3333.755010	461.400000
3334.824597	463.350000
3335.895495	447.050000
3336.964786	485.450000
3338.035388	471.800000
3339.104383	464.850000
3340.171772	459.300000
3341.237556	468.550000
3342.307566	451.750000
3343.374513	473.050000
3344.438398	463.500000
3345.505051	461.200000
3346.570099	431.050000
3347.633545	470.050000
3348.696843	458.150000
3349.759996	474.050000
3350.823002	461.950000
3351.885861	453.800000
3352.947119	439.150000
3354.005320	484.750000
3355.067742	467.600000
3356.127107	486.150000
3357.186327	454.200000
3358.246857	484.500000
3359.302877	441.350000
3360.361662	479.350000
3361.415939	458.200000
3362.472979	463.200000
3363.528422	457.400000
3364.585173	474.850000
3365.640327	470.350000
3366.693883	479.750000
3367.745842	466.900000
3368.800563	459.850000
3369.852235	437.650000
3370.903764	473.550000
3371.956602	461.400000
3373.006392	482.400000
3374.057490	459.650000
3375.105543	468.050000
3376.156356	460.750000
3377.204123	475.800000
3378.251748	459.150000
3379.299230	478.700000
3380.345120	461.500000
3381.392318	465.400000
3382.436474	448.350000
3383.483388	456.650000
3384.528710	458.650000
3385.570992	474.150000
3386.613132	452.500000
3387.656580	476.450000
3388.699888	467.800000
3389.741605	478.750000
3390.783181	444.100000
3391.824617	465.600000
3392.864463	449.250000
3393.902722	462.250000
3394.942288	464.300000
3395.981713	479.650000
3397.019551	461.650000
3398.055803	467.850000
3399.091914	439.900000
3400.129333	460.250000
3401.163719	451.050000
3402.199412	472.950000
3403.234966	445.150000
3404.267489	470.350000
3405.302765	471.700000
3406.335010	469.650000
3407.367117	461.900000
3408.397640	469.300000
3409.429471	448.500000
3410.461162	463.300000
3411.489827	474.300000
3412.518353	469.850000
3413.548187	456.800000
3414.577882	468.300000
3415.604552	440.450000
3416.632529	461.350000
3417.657481	472.750000
3418.685183	461.400000
3419.709862	474.950000
3420.735847	467.150000
3421.760252	461.500000
3422.784521	468.900000
3423.807211	451.650000
3424.829765	453.150000
3425.853625	459.650000
3426.874465	464.500000
3427.895170	452.500000
3428.917180	455.200000
3429.936172	457.700000
3430.955029	454.900000
3431.975191	452.700000
3432.992337	473.000000
