-116.264276	244.000000
-113.594676	247.850000
-110.928011	259.350000
-108.262098	236.250000
-105.599117	239.600000
-102.934707	238.500000
-100.273227	267.000000
-97.610317	244.750000
-94.952515	248.750000
-92.293282	247.200000
-89.634798	269.000000
-86.979239	250.950000
-84.322251	248.700000
-81.670360	238.950000
-79.017040	272.450000
-76.366640	239.000000
-73.714810	267.800000
-71.068071	251.050000
-68.419902	275.000000
-65.772477	263.750000
-63.127965	269.800000
-60.482025	248.200000
-57.841166	263.750000
-55.198878	250.950000
-52.559498	277.150000
-49.918690	248.550000
-47.278622	287.900000
-44.643626	269.550000
-42.007201	286.700000
-39.373680	273.650000
-36.738730	273.900000
-34.108845	289.200000
-31.475368	291.500000
-28.846953	293.300000
-26.219271	337.250000
-23.590162	308.050000
-20.966109	345.950000
-18.338467	349.100000
-15.715878	392.300000
-13.094020	432.900000
-10.472894	599.950000
-7.852497	1072.250000
-5.234988	3210.600000
-2.616051	9341.800000
0.000000	19742.750000
2.615323	19604.250000
5.229919	8946.800000
7.841632	994.600000
10.454774	470.300000
13.062882	383.900000
15.674572	361.100000
18.281231	345.150000
20.889318	377.600000
23.496681	343.400000
26.099019	340.900000
28.704935	338.900000
31.305829	349.400000
33.908152	335.350000
36.505456	341.400000
39.106336	343.450000
41.702202	367.000000
44.299495	352.350000
46.896069	389.700000
49.487634	349.150000
52.080627	394.850000
54.670759	366.950000
57.262319	368.150000
59.851019	370.350000
62.441146	403.650000
65.026275	379.850000
67.612831	417.000000
70.198672	411.300000
72.781660	434.950000
75.366075	419.350000
77.943360	428.550000
80.524212	428.500000
83.102215	452.400000
85.679508	460.800000
88.258227	468.050000
90.831965	484.050000
93.407129	503.350000
95.979450	506.850000
98.551063	554.100000
101.119837	572.850000
103.690036	630.200000
106.257398	650.750000
108.826186	705.650000
111.392136	808.450000
113.955252	959.450000
116.521924	1130.800000
119.079375	1450.250000
121.642511	1836.100000
124.200688	2528.400000
126.762418	3142.050000
129.319193	3410.100000
131.877393	3498.400000
134.430641	3622.500000
136.983190	3766.200000
139.539290	4025.100000
142.090443	4228.500000
144.640897	4380.950000
147.190655	4471.000000
149.737593	4583.250000
152.283835	4618.550000
154.831503	4733.450000
157.378476	4706.150000
159.920512	4647.150000
162.461855	4637.950000
165.002505	4686.350000
167.544581	4624.100000
170.083846	4654.450000
172.620301	4645.150000
175.156066	4658.550000
177.693256	4600.350000
180.229754	4624.550000
182.763447	4600.700000
185.294337	4625.600000
187.824538	4603.900000
190.356164	4620.650000
192.884989	4598.400000
195.411015	4597.050000
197.936356	4589.400000
200.463121	4594.900000
202.987089	4591.600000
205.510373	4612.400000
208.032972	4585.700000
210.552778	4593.400000
213.071901	4550.000000
215.590341	4573.150000
218.110205	4593.500000
220.623068	4589.150000
223.139462	4593.350000
225.655174	4581.650000
228.165997	4582.400000
230.678244	4613.300000
233.187708	4611.200000
235.696494	4619.550000
238.204602	4626.450000
240.714133	4653.500000
243.218785	4652.050000
245.722760	4643.800000
248.228159	4662.800000
250.728683	4677.800000
253.232730	4645.250000
255.729807	4695.050000
258.230406	4663.850000
260.728234	4693.650000
263.225389	4648.500000
265.721871	4697.450000
268.213490	4713.100000
270.708629	4719.500000
273.201002	4725.000000
275.692704	4736.200000
278.181643	4741.100000
280.672005	4779.900000
283.159606	4752.850000
285.644447	4770.800000
288.132802	4752.050000
290.614218	4753.600000
293.099148	4745.350000
295.579233	4785.150000
298.062830	4744.300000
300.541584	4816.200000
303.021762	4791.000000
305.499187	4844.000000
307.975949	4807.850000
310.452048	4859.200000
312.925398	4888.250000
315.398086	4988.650000
317.870113	5083.050000
320.341479	5332.550000
322.810101	5455.350000
325.278063	5434.550000
327.747448	5226.150000
330.212010	5072.250000
332.680075	4989.100000
335.143321	4947.850000
337.605910	4935.550000
340.067841	4913.450000
342.529116	4905.750000
344.987657	4913.900000
347.447620	4904.950000
349.904850	4931.150000
352.361426	4886.500000
354.817348	4943.800000
357.270541	4861.650000
359.725155	4924.650000
362.174968	4917.950000
364.628278	4913.150000
367.076788	4886.450000
369.524648	4906.750000
371.973929	4923.450000
374.418417	4922.850000
376.864327	4880.900000
379.309588	4932.950000
381.752130	4888.100000
384.194024	4921.550000
386.635270	4869.450000
389.073801	4901.650000
391.513754	4915.900000
393.950993	4899.600000
396.385520	4886.300000
398.823535	4924.500000
401.256773	4920.800000
403.691433	4894.250000
406.121319	4890.900000
408.554691	4928.300000
410.983293	4872.500000
413.411254	4909.900000
415.840635	4899.150000
418.265251	4961.750000
420.691289	4905.100000
423.116686	4932.450000
425.541443	4904.600000
427.961442	4934.450000
430.382862	4947.250000
432.801585	4947.250000
435.221729	4953.150000
437.639178	4951.500000
440.058047	4943.400000
442.474223	4934.800000
444.885652	4921.750000
447.300557	4969.000000
449.712772	4937.750000
452.124353	4944.650000
454.535300	4931.500000
456.943561	4925.200000
459.351189	4890.800000
461.758186	4909.750000
464.164550	4881.550000
466.568232	4879.950000
468.971284	4834.150000
471.373706	4852.600000
473.775499	4845.800000
476.174613	4824.550000
478.575147	4813.450000
480.975052	4834.500000
483.370234	4776.400000
485.768883	4873.100000
488.162812	4818.100000
490.556115	4829.300000
492.948792	4795.450000
495.340844	4767.100000
497.734315	4698.450000
500.123073	4674.650000
502.509165	4575.850000
504.896677	4515.850000
507.283565	4454.400000
509.667790	4438.700000
512.053434	4362.550000
514.436415	4334.500000
516.816736	4276.050000
519.198476	4268.700000
521.577557	4211.100000
523.958057	4237.500000
526.335899	4188.750000
528.711086	4192.250000
531.085655	4151.650000
533.461643	4166.550000
535.834977	4144.650000
538.209729	4129.500000
540.579796	4127.900000
542.949247	4130.250000
545.320116	4094.050000
547.686305	4103.650000
550.053912	4103.850000
552.418873	4107.550000
554.783221	4073.850000
557.146957	4086.950000
559.512110	4085.550000
561.872590	4072.300000
564.234489	4039.100000
566.593748	4090.650000
568.950368	4042.250000
571.310433	4039.400000
573.663808	4009.600000
576.020627	4029.200000
578.374810	4007.950000
580.728386	4009.200000
583.081353	4009.750000
585.431689	3994.250000
587.783441	3975.600000
590.128517	4006.500000
592.479057	3974.050000
594.822924	4002.250000
597.172251	3994.350000
599.516931	4010.300000
601.858985	3973.500000
604.202457	3983.650000
606.543306	3975.400000
608.883553	3987.050000
611.221179	3972.900000
613.562240	3972.500000
615.898664	3961.350000
618.236504	3983.850000
620.571726	3935.750000
622.904333	3938.550000
625.238356	3931.750000
627.569766	3940.800000
629.900577	3900.550000
632.230790	3907.750000
634.560405	3893.950000
636.885398	3902.550000
639.215832	3888.000000
641.541644	3885.400000
643.864850	3898.600000
646.189471	3898.700000
648.511488	3885.150000
650.832910	3902.900000
653.151729	3877.750000
655.471964	3883.250000
657.791606	3856.600000
660.108647	3871.200000
662.425096	3814.450000
664.738948	3860.450000
667.054214	3846.000000
669.366884	3855.400000
671.680969	3831.850000
673.990454	3846.950000
676.301355	3837.300000
678.609663	3841.000000
680.917383	3805.300000
683.226518	3831.050000
685.531060	3795.750000
687.835015	3812.450000
690.138385	3831.050000
692.443169	3801.100000
694.743367	3796.050000
697.044979	3809.250000
699.346007	3790.150000
701.642452	3798.750000
703.940313	3786.850000
706.237590	3796.550000
708.534284	3789.400000
710.826402	3788.000000
713.121931	3783.500000
715.412887	3791.800000
717.705257	3779.400000
719.995051	3793.100000
722.284266	3770.600000
724.572900	3784.500000
726.858963	3774.000000
729.146439	3800.200000
731.431345	3797.050000
733.715672	3809.900000
735.997431	3789.350000
738.280604	3803.400000
740.563200	3802.900000
742.841241	3800.600000
745.120695	3819.400000
747.399574	3814.150000
749.677877	3826.850000
751.951631	3816.850000
754.226799	3800.900000
756.501393	3842.650000
758.773428	3803.750000
761.046875	3828.000000
763.317765	3846.050000
765.586099	3825.250000
767.855846	3809.900000
770.123039	3863.550000
772.389661	3834.800000
774.655714	3879.850000
776.919214	3865.700000
779.184128	3876.650000
781.448472	3861.850000
783.708287	3877.950000
785.969515	3880.250000
788.230175	3896.500000
790.488288	3884.600000
792.743857	3890.000000
795.002817	3867.900000
797.255278	3893.300000
799.513106	3854.650000
801.766414	3878.800000
804.017183	3840.550000
806.269364	3862.150000
808.519007	3839.600000
810.770061	3855.950000
813.016604	3833.600000
815.264559	3849.450000
817.509980	3828.500000
819.756812	3816.550000
822.003083	3808.650000
824.244850	3825.900000
826.489999	3773.250000
828.728676	3823.500000
830.970736	3801.200000
833.208297	3802.700000
835.447269	3777.300000
837.683715	3787.900000
839.921572	3772.550000
842.156905	3775.900000
844.389713	3759.400000
846.623933	3764.450000
848.855631	3748.150000
851.086774	3770.950000
853.317362	3751.750000
855.547396	3754.650000
857.776875	3739.800000
860.001873	3777.850000
862.230246	3742.750000
864.454140	3751.800000
866.679444	3730.850000
868.900273	3743.800000
871.124474	3763.600000
873.344202	3749.650000
875.565341	3751.200000
877.785929	3781.700000
880.004007	3774.700000
882.223496	3778.800000
884.438518	3766.500000
886.652992	3771.150000
888.866919	3754.550000
891.080298	3774.450000
893.293130	3740.400000
895.505416	3764.450000
897.715199	3765.850000
899.924437	3754.100000
902.133130	3781.000000
904.339324	3779.950000
906.546927	3768.850000
908.752033	3754.350000
910.956595	3742.700000
913.158661	3774.450000
915.362137	3735.100000
917.563119	3778.200000
919.763560	3726.100000
921.965409	3760.650000
924.160866	3755.500000
926.359683	3762.850000
928.554062	3764.350000
930.751797	3754.350000
932.945097	3743.500000
935.139806	3754.300000
937.332029	3758.050000
939.523714	3748.500000
941.714861	3753.850000
943.903525	3777.250000
946.091652	3776.400000
948.277299	3802.650000
950.466298	3796.650000
952.650874	3837.950000
954.834915	3807.750000
957.022306	3853.100000
959.201393	3831.950000
961.383831	3858.750000
963.565735	3868.950000
965.745165	3880.150000
967.922122	3894.750000
970.100486	3917.900000
972.280258	3895.500000
974.453681	3936.900000
976.630450	3920.600000
978.802813	3974.800000
980.976582	3953.850000
983.145948	3969.300000
985.318659	3972.200000
987.488903	3985.550000
989.658619	3963.650000
991.827806	4000.250000
993.992596	3989.800000
996.160727	4017.750000
998.324464	3993.500000
1000.489607	4035.500000
1002.652292	4037.600000
1004.814450	4035.600000
1006.974152	4062.800000
1009.133330	4076.650000
1011.293914	4056.750000
1013.452043	4063.850000
1015.609648	4083.600000
1017.766730	4076.600000
1019.923289	4084.150000
1022.075468	4122.400000
1024.229053	4104.900000
1026.382117	4118.250000
1028.532733	4142.550000
1030.684754	4172.150000
1032.832402	4134.600000
1034.983382	4194.850000
1037.129991	4170.450000
1039.276082	4184.000000
1041.421653	4170.550000
1043.568630	4203.650000
1045.709319	4198.050000
1047.853336	4230.950000
1049.994913	4207.850000
1052.135974	4231.750000
1054.278439	4254.400000
1056.414625	4247.300000
1058.554137	4245.150000
1060.689293	4249.300000
1062.827774	4251.650000
1064.961901	4227.300000
1067.095515	4263.800000
1069.230534	4231.850000
1071.361203	4221.900000
1073.493277	4209.550000
1075.622922	4193.150000
1077.752055	4170.400000
1079.880676	4189.250000
1082.008786	4179.850000
1084.134470	4122.400000
1086.259644	4153.250000
1088.386222	4120.200000
1090.508463	4107.550000
1092.632107	4096.750000
1094.751418	4068.850000
1096.875957	4058.900000
1098.994251	4068.350000
1101.113950	4018.550000
1103.231230	4054.900000
1105.348004	4023.400000
1107.464271	4035.550000
1109.578123	4024.550000
1111.693378	4019.900000
1113.804311	4020.700000
1115.918555	4010.850000
1118.028479	3991.100000
1120.139807	3989.700000
1122.250630	3981.200000
1124.357138	3975.350000
1126.466954	3943.000000
1128.572456	3968.050000
1130.679361	3961.900000
1132.780051	3970.250000
1134.885953	3931.150000
1136.987546	3948.600000
1139.090542	3952.700000
1141.193037	3958.600000
1143.289325	3937.850000
1145.390821	3940.150000
1147.488014	3935.100000
1149.584708	3928.050000
1151.680904	3906.350000
1153.776603	3931.050000
1155.871804	3919.850000
1157.964608	3920.850000
1160.058814	3913.250000
1162.146829	3920.550000
1164.240042	3886.100000
1166.327067	3915.150000
1168.417391	3902.050000
1170.503428	3923.400000
1172.592762	3906.000000
1174.675915	3915.200000
1176.760471	3897.850000
1178.846427	3909.600000
1180.928102	3916.000000
1183.011179	3901.050000
1185.091870	3893.350000
1187.172069	3912.800000
1189.251777	3877.250000
1191.330994	3901.500000
1193.407829	3871.000000
1195.482283	3879.750000
1197.560029	3902.100000
1199.633504	3893.700000
1201.708380	3882.400000
1203.778989	3889.150000
1205.851000	3875.000000
1207.920634	3906.650000
1209.991669	3856.550000
1212.062216	3897.550000
1214.128502	3888.200000
1216.196189	3878.250000
1218.261504	3864.250000
1220.328219	3874.300000
1222.390678	3867.750000
1224.456422	3867.250000
1226.517913	3874.200000
1228.580803	3865.550000
1230.641326	3849.150000
1232.701365	3867.950000
1234.760922	3845.800000
1236.818113	3870.100000
1238.874823	3842.000000
1240.929170	3876.550000
1242.986797	3859.000000
1245.042062	3874.250000
1247.093086	3863.350000
1249.145510	3868.000000
1251.197454	3861.300000
1253.247040	3864.700000
1255.296147	3867.800000
1257.344776	3878.000000
1259.392926	3860.850000
1261.440598	3895.850000
1263.484039	3874.000000
1265.530755	3876.050000
1267.575118	3880.900000
1269.619005	3888.050000
1271.660541	3867.400000
1273.699727	3806.950000
1275.742185	3897.200000
1277.780421	3908.300000
1279.820056	3892.850000
1281.859216	3919.900000
1283.894157	3919.050000
1285.930498	3934.900000
1287.964493	3920.100000
1289.999887	3959.100000
1292.031067	3966.900000
1294.063646	3986.050000
1296.095752	3971.550000
1298.125518	4003.900000
1300.156682	3999.700000
1302.183638	4043.250000
1304.211992	4032.750000
1306.236142	4099.300000
1308.263556	4120.500000
1310.286768	4140.350000
1312.311378	4141.550000
1314.333654	4195.600000
1316.357327	4222.250000
1318.378667	4240.500000
1320.399539	4287.650000
1322.419945	4319.150000
1324.436156	4350.800000
1326.453766	4368.150000
1328.469047	4385.350000
1330.487586	4426.100000
1332.501937	4449.800000
1334.513962	4457.500000
1336.529244	4500.500000
1338.540341	4505.100000
1340.552835	4497.050000
1342.561146	4548.250000
1344.572713	4473.650000
1346.578240	4508.050000
1348.587023	4443.950000
1350.591628	4435.950000
1352.599487	4396.350000
1354.606884	4371.950000
1356.608250	4301.750000
1358.611013	4283.950000
1360.613315	4238.300000
1362.615158	4195.700000
1364.616541	4161.950000
1366.615611	4141.450000
1368.614222	4090.800000
1370.612375	4082.850000
1372.610070	4067.600000
1374.603601	4066.950000
1376.598529	4025.350000
1378.593000	4002.400000
1380.587014	3978.500000
1382.578721	3989.650000
1384.569972	3950.350000
1386.558918	3959.800000
1388.549259	3930.450000
1390.539145	3932.150000
1392.526728	3931.600000
1394.513856	3912.150000
1396.498684	3886.700000
1398.484905	3897.550000
1400.468827	3890.000000
1402.452296	3887.850000
1404.435313	3866.950000
1406.416031	3920.100000
1408.398145	3856.500000
1410.377961	3879.200000
1412.357327	3854.800000
1414.332553	3885.550000
1416.311019	3870.150000
1418.287190	3873.200000
1420.262913	3858.800000
1422.238186	3861.350000
1424.211168	3848.450000
1426.183702	3843.550000
1428.155789	3842.250000
1430.127427	3857.050000
1432.094937	3836.600000
1434.067522	3834.050000
1436.032300	3840.600000
1438.002151	3840.750000
1439.967877	3825.250000
1441.934996	3838.800000
1443.899832	3830.950000
1445.860549	3853.300000
1447.826333	3831.600000
1449.786162	3848.550000
1451.747384	3814.450000
1453.709999	3866.300000
1455.668499	3814.700000
1457.626557	3835.500000
1459.584172	3830.850000
1461.541346	3830.850000
1463.496244	3839.750000
1465.452534	3851.050000
1467.406550	3831.350000
1469.360126	3818.600000
1471.311429	3828.600000
1473.264124	3858.750000
1475.214548	3831.150000
1477.164533	3857.750000
1479.114078	3831.250000
1481.061355	3830.900000
1483.006365	3842.300000
1484.952766	3856.650000
1486.898731	3848.600000
1488.844257	3842.700000
1490.787519	3847.300000
1492.730344	3868.450000
1494.670906	3848.250000
1496.612859	3859.050000
1498.552551	3846.750000
1500.491807	3870.600000
1502.430628	3851.450000
1504.367190	3862.500000
1506.305143	3830.550000
1508.240838	3886.050000
1510.176099	3875.200000
1512.109103	3872.100000
1514.041675	3872.650000
1515.973815	3909.850000
1517.905523	3877.750000
1519.834977	3892.400000
1521.765822	3890.100000
1523.696236	3913.600000
1525.622576	3900.050000
1527.550308	3906.050000
1529.475789	3932.600000
1531.400841	3970.050000
1533.325464	3939.850000
1535.249658	3950.700000
1537.171605	3967.850000
1539.094941	4009.900000
1541.016032	4035.900000
1542.934878	4056.500000
1544.855114	4062.000000
1546.773106	4087.600000
1548.690672	4117.950000
1550.605996	4190.650000
1552.522710	4204.800000
1554.435369	4260.000000
1556.351232	4290.200000
1558.264855	4358.100000
1560.176241	4371.650000
1562.089015	4374.800000
1563.997740	4390.950000
1565.907855	4437.600000
1567.817546	4437.950000
1569.726813	4468.400000
1571.633847	4448.500000
1573.538648	4451.650000
1575.444838	4417.600000
1577.348796	4441.650000
1579.252334	4381.100000
1581.155450	4386.200000
1583.056338	4325.200000
1584.958613	4320.300000
1586.858661	4269.900000
1588.760096	4280.150000
1590.657498	4242.150000
1592.554481	4220.800000
1594.451046	4200.500000
1596.348999	4190.400000
1598.241117	4179.350000
1600.136428	4159.150000
1602.031322	4175.250000
1603.923994	4173.350000
1605.816250	4114.150000
1607.706286	4111.000000
1609.595906	4096.550000
1611.485110	4081.900000
1613.373900	4054.200000
1615.260473	4036.850000
1617.148432	3998.000000
1619.032375	4007.300000
1620.917706	3957.150000
1622.802622	3958.750000
1624.685326	3915.150000
1626.569415	3919.250000
1628.449494	3900.500000
1630.330959	3875.600000
1632.210214	3853.550000
1634.090855	3828.650000
1635.965692	3843.450000
1637.845511	3847.900000
1639.721324	3794.750000
1641.596727	3819.000000
1643.473517	3806.250000
1645.344509	3812.150000
1647.218683	3770.000000
1649.088859	3794.300000
1650.962215	3754.500000
1652.833368	3788.600000
1654.702319	3780.200000
1656.572656	3784.950000
1658.438999	3762.900000
1660.306728	3766.950000
1662.172259	3758.400000
1664.039174	3773.700000
1665.902101	3758.450000
1667.766413	3748.250000
1669.628529	3722.450000
1671.490241	3749.000000
1673.353337	3750.400000
1675.214239	3732.700000
1677.072947	3730.550000
1678.931252	3750.900000
1680.790942	3746.100000
1682.644865	3731.500000
1684.501960	3728.750000
1686.358653	3749.050000
1688.211370	3738.800000
1690.067258	3726.800000
1691.919171	3716.550000
1693.770684	3728.850000
1695.621796	3713.800000
1697.472508	3750.900000
1699.322819	3729.600000
1701.170946	3743.600000
1703.020456	3725.550000
1704.864218	3741.350000
1706.712929	3724.400000
1708.555895	3730.700000
1710.402026	3714.450000
1712.244196	3747.000000
1714.089530	3705.550000
1715.929124	3746.500000
1717.770102	3705.050000
1719.612463	3732.450000
1721.450868	3705.000000
1723.290656	3746.800000
1725.128269	3730.850000
1726.965486	3737.100000
1728.800530	3724.100000
1730.636957	3733.700000
1732.471212	3700.300000
1734.305072	3717.700000
1736.138539	3716.300000
1737.968059	3723.000000
1739.800738	3705.350000
1741.629473	3727.150000
1743.461366	3700.050000
1745.289316	3713.500000
1747.116874	3716.200000
1748.944040	3722.100000
1750.770815	3700.800000
1752.597199	3741.750000
1754.419646	3719.650000
1756.245247	3718.700000
1758.066914	3698.550000
1759.889963	3728.150000
1761.710851	3703.500000
1763.531349	3715.800000
1765.353229	3715.000000
1767.169409	3717.650000
1768.988741	3689.500000
1770.804146	3718.700000
1772.622701	3697.300000
1774.437331	3719.850000
1776.251575	3697.400000
1778.065431	3714.850000
1779.878901	3726.650000
1781.690218	3716.700000
1783.502916	3703.350000
1785.315227	3717.300000
1787.123621	3676.150000
1788.933396	3727.400000
1790.739255	3691.500000
1792.548260	3709.200000
1794.353352	3706.850000
1796.159825	3722.950000
1797.965914	3685.400000
1799.768093	3697.350000
1801.573415	3692.400000
1803.374829	3720.200000
1805.177623	3718.550000
1806.976511	3705.500000
1808.776780	3680.700000
1810.576667	3726.950000
1812.374413	3711.250000
1814.171777	3712.800000
1815.968762	3693.000000
1817.765366	3730.800000
1819.559831	3702.700000
1821.355675	3715.350000
1823.145865	3704.100000
1824.940951	3715.700000
1826.730384	3705.750000
1828.522954	3691.800000
1830.313389	3696.100000
1832.101690	3714.900000
1833.893126	3687.450000
1835.678916	3727.000000
1837.466086	3737.700000
1839.251124	3711.050000
1841.039296	3694.150000
1842.823582	3720.650000
1844.605739	3694.500000
1846.389274	3717.450000
1848.170681	3709.800000
1849.953467	3731.650000
1851.732373	3706.350000
1853.512657	3737.550000
1855.290815	3698.950000
1857.070352	3727.600000
1858.847764	3716.400000
1860.623052	3726.800000
1862.399719	3690.800000
1864.174262	3716.550000
1865.950184	3698.000000
1867.720486	3715.550000
1869.493914	3716.000000
1871.265223	3716.900000
1873.036162	3669.750000
1874.808477	3725.250000
1876.575180	3694.100000
1878.345007	3712.850000
1880.110971	3702.150000
1881.880059	3726.700000
1883.645285	3701.450000
1885.410142	3698.450000
1887.176377	3704.550000
1888.938753	3725.000000
1890.700762	3708.800000
1892.462403	3710.500000
1894.223678	3685.200000
1895.984585	3717.600000
1897.745126	3709.250000
1899.503557	3711.900000
1901.261623	3698.200000
1903.017580	3715.500000
1904.774915	3688.000000
1906.531883	3716.400000
1908.286746	3659.350000
1910.039503	3693.150000
1911.791897	3703.400000
1913.545666	3697.800000
1915.297332	3708.700000
1917.046896	3682.150000
1918.797836	3699.000000
1920.548412	3711.350000
1922.295149	3692.200000
1924.043263	3714.750000
1925.789277	3696.050000
1927.536667	3719.000000
1929.281958	3693.750000
1931.025152	3712.400000
1932.769722	3693.400000
1934.512195	3713.650000
1936.254308	3703.750000
1937.996061	3715.950000
1939.737455	3700.100000
1941.476755	3712.400000
1943.215695	3707.000000
1944.954278	3715.250000
1946.690768	3700.550000
1948.426901	3700.475000
1950.164408	3700.400000
1951.898093	3740.600000
1953.633153	3704.450000
1955.366125	3712.600000
1957.098740	3713.200000
1958.830998	3723.600000
1960.562900	3708.450000
1962.292716	3719.600000
1964.020448	3728.600000
1965.749553	3732.350000
1967.478304	3714.600000
1969.204971	3734.200000
1970.931284	3689.800000
1972.658970	3737.150000
1974.381120	3721.350000
1976.106371	3733.300000
1977.827816	3714.150000
1979.552360	3723.000000
1981.274825	3730.550000
1982.993486	3749.700000
1984.715246	3688.150000
1986.433204	3723.850000
1988.152535	3721.350000
1989.868067	3747.900000
1991.588420	3713.950000
1993.304973	3725.050000
1995.017731	3716.300000
1996.733584	3733.300000
1998.447364	3731.950000
2000.160795	3748.050000
2001.872155	3743.000000
2003.584888	3743.250000
2005.293829	3712.100000
2007.005864	3745.650000
2008.712389	3721.250000
2010.422007	3760.000000
2012.129557	3727.950000
2013.836760	3746.550000
2015.541897	3746.000000
2017.246687	3744.500000
2018.952849	3720.550000
2020.655229	3745.100000
2022.358981	3742.650000
2024.060669	3743.450000
2025.762013	3732.350000
2027.463011	3746.600000
2029.161949	3754.700000
2030.862257	3720.550000
2032.558791	3699.600000
2034.256696	3744.000000
2035.952542	3715.000000
2037.651474	3750.800000
2039.344920	3729.200000
2041.039738	3731.250000
2042.734212	3725.250000
2044.424918	3748.600000
2046.118708	3735.300000
2047.808731	3746.450000
2049.500125	3712.700000
2051.189466	3757.850000
2052.880177	3717.600000
2054.567126	3736.000000
2056.253734	3736.800000
2057.941713	3741.550000
2059.625932	3725.950000
2061.311521	3721.950000
2062.996771	3720.150000
2064.679973	3729.200000
2066.364544	3719.850000
2068.043653	3717.550000
2069.727547	3719.700000
2071.405981	3738.650000
2073.087491	3708.850000
2074.765251	3716.150000
2076.442673	3703.800000
2078.121466	3721.000000
2079.798215	3732.150000
2081.472923	3731.350000
2083.149000	3711.150000
2084.823037	3717.250000
2086.496738	3698.300000
2088.170104	3734.500000
2089.841432	3725.750000
2091.512425	3729.350000
2093.183084	3692.450000
2094.853408	3753.900000
2096.523399	3701.050000
2098.191354	3729.700000
2099.858976	3728.100000
2101.524564	3742.200000
2103.191520	3719.500000
2104.856442	3746.650000
2106.521033	3722.700000
2108.183592	3727.850000
2109.847519	3731.100000
2111.509416	3738.700000
2113.170981	3726.850000
2114.832215	3745.900000
2116.491421	3761.400000
2118.150297	3759.700000
2119.808842	3719.150000
2121.467058	3764.350000
2123.121550	3737.250000
2124.779107	3748.000000
2126.436335	3720.900000
2128.089841	3731.900000
2129.744715	3723.950000
2131.395871	3780.100000
2133.050088	3731.800000
2134.700589	3749.800000
2136.352456	3722.500000
2137.998915	3738.100000
2139.650129	3724.200000
2141.297629	3744.700000
2142.946496	3736.700000
2144.593345	3716.300000
2146.239867	3737.350000
2147.886064	3746.150000
2149.528553	3723.000000
2151.174100	3745.150000
2152.815940	3760.400000
2154.460837	3736.300000
2156.102029	3734.050000
2157.742897	3732.500000
2159.383441	3742.750000
2161.021974	3747.600000
2162.661872	3731.750000
2164.298070	3737.900000
2165.935634	3723.350000
2167.572875	3746.450000
2169.208107	3723.500000
2170.843018	3748.800000
2172.477607	3729.400000
2174.111874	3734.950000
2175.742449	3740.400000
2177.376074	3739.050000
2179.006008	3732.300000
2180.637307	3743.550000
2182.266602	3738.750000
2183.895576	3740.300000
2185.524232	3735.100000
2187.152568	3753.850000
2188.778901	3736.850000
2190.404916	3743.450000
2192.028930	3717.300000
2193.654308	3744.250000
2195.277687	3731.550000
2196.902429	3757.200000
2198.523491	3749.650000
2200.144236	3759.000000
2201.766346	3726.950000
2203.386458	3759.050000
2205.004573	3738.500000
2206.622373	3741.100000
2208.239858	3738.750000
2209.857027	3745.600000
2211.473881	3730.600000
2213.090420	3746.700000
2214.704965	3743.250000
2216.317518	3754.100000
2217.931435	3744.800000
2219.543361	3731.150000
2221.156650	3728.350000
2222.767949	3766.150000
2224.377258	3710.050000
2225.987931	3737.600000
2227.596615	3725.350000
2229.204987	3740.350000
2230.811371	3718.100000
2232.419119	3736.150000
2234.024880	3724.600000
2235.630330	3728.800000
2237.233795	3726.950000
2238.838624	3749.250000
2240.441468	3722.000000
2242.042329	3749.000000
2243.644553	3723.500000
2245.244794	3741.550000
2246.846398	3727.200000
2248.444350	3751.800000
2250.043664	3747.050000
2251.640998	3748.750000
2253.238023	3728.500000
2254.836411	3739.350000
2256.431150	3721.950000
2258.023912	3735.800000
2259.618037	3727.000000
2261.213523	3731.300000
2262.805365	3709.200000
2264.396900	3736.250000
2265.989796	3734.000000
2267.577383	3731.450000
2269.169667	3715.550000
2270.756643	3749.550000
2272.346648	3741.100000
2273.931348	3722.700000
2275.520742	3710.600000
2277.104833	3734.400000
2278.690286	3717.250000
2280.273769	3740.200000
2281.860279	3732.900000
2283.443155	3707.850000
2285.025727	3723.000000
2286.607996	3731.800000
2288.186636	3694.100000
2289.768299	3736.450000
2291.346334	3715.000000
2292.927392	3717.350000
2294.504824	3719.375000
2296.080291	3721.400000
2297.658781	3708.900000
2299.233647	3742.500000
2300.808212	3728.800000
2302.382477	3709.000000
2303.956441	3711.500000
2305.530105	3730.400000
2307.103468	3731.450000
2308.673213	3721.500000
2310.242659	3707.150000
2311.815124	3731.550000
2313.382313	3725.450000
2314.952521	3722.050000
2316.519114	3706.300000
2318.087067	3743.450000
2319.653065	3733.300000
2321.218764	3744.650000
2322.784167	3735.350000
2324.347616	3765.900000
2325.912423	3768.400000
2327.473623	3826.400000
2329.037837	3848.000000
2330.596790	3863.450000
2332.158756	3826.350000
2333.718772	3796.400000
2335.278492	3758.200000
2336.836263	3748.350000
2338.393740	3735.100000
2339.950921	3772.350000
2341.506156	3744.350000
2343.061096	3751.850000
2344.615743	3730.150000
2346.170096	3769.850000
2347.724155	3737.350000
2349.277920	3742.750000
2350.829742	3750.350000
2352.379620	3757.250000
2353.932506	3731.750000
2355.480150	3742.900000
2357.030801	3739.300000
2358.577862	3754.650000
2360.126280	3751.550000
2361.674406	3760.600000
2363.218944	3744.300000
2364.764841	3747.700000
2366.308798	3747.850000
2367.854113	3741.350000
2369.395843	3724.550000
2370.938930	3768.550000
2372.480082	3735.100000
2374.020944	3769.100000
2375.561517	3744.000000
2377.101801	3752.600000
2378.641796	3752.000000
2380.178212	3760.650000
2381.717630	3750.300000
2383.253471	3771.750000
2384.790668	3756.200000
2386.324290	3763.150000
2387.860913	3743.200000
2389.395604	3767.900000
2390.928366	3744.050000
2392.460842	3763.450000
2393.991389	3756.350000
2395.524934	3763.850000
2397.053268	3756.650000
2398.582958	3757.900000
2400.112363	3772.350000
2401.641482	3772.100000
2403.170317	3774.450000
2404.693946	3761.850000
2406.222212	3761.650000
2407.745274	3772.500000
2409.272970	3761.750000
2410.793827	3771.050000
2412.319317	3766.000000
2413.841246	3800.200000
2415.364531	3757.700000
2416.885895	3783.600000
2418.405339	3757.750000
2419.926138	3769.700000
2421.445018	3772.650000
2422.963616	3780.650000
2424.480297	3769.600000
2425.998332	3785.200000
2427.516086	3750.550000
2429.030289	3795.350000
2430.544211	3755.900000
2432.057853	3790.400000
2433.572850	3792.300000
2435.084298	3794.400000
2436.597101	3764.750000
2438.107991	3774.350000
2439.618601	3759.550000
2441.127300	3792.800000
2442.638986	3771.500000
2444.147127	3780.050000
2445.654991	3750.000000
2447.162577	3796.800000
2448.666622	3777.350000
2450.173653	3786.150000
2451.678775	3754.050000
2453.183620	3792.550000
2454.686558	3747.050000
2456.189219	3781.450000
2457.691604	3761.500000
2459.192084	3778.200000
2460.693917	3741.400000
2462.193846	3781.000000
2463.693499	3760.100000
2465.192876	3769.200000
2466.690351	3741.750000
2468.185925	3772.250000
2469.684478	3746.650000
2471.179502	3771.100000
2472.675880	3750.050000
2474.168731	3745.200000
2475.662934	3741.850000
2477.156864	3767.850000
2478.647271	3745.400000
2480.140654	3754.050000
2481.632140	3744.600000
2483.121729	3766.900000
2484.611046	3736.850000
2486.098468	3780.950000
2487.588865	3765.100000
2489.075743	3784.950000
2490.563973	3758.550000
2492.048687	3750.600000
2493.533130	3747.150000
2495.018925	3765.050000
2496.502827	3738.200000
2497.988081	3761.750000
2499.468201	3741.850000
2500.951293	3807.100000
2502.432495	3768.850000
2503.913428	3794.800000
2505.392472	3765.500000
2506.871247	3766.100000
2508.349754	3775.450000
2509.827993	3788.550000
2511.305963	3766.700000
2512.780429	3776.450000
2514.257863	3762.450000
2515.731794	3763.550000
2517.207076	3762.100000
2518.682090	3776.700000
2520.153603	3769.700000
2521.626466	3780.050000
2523.097447	3759.700000
2524.569778	3771.750000
2526.036996	3757.100000
2527.507179	3775.050000
2528.975482	3739.400000
2530.443520	3777.950000
2531.911293	3760.300000
2533.378801	3778.650000
2534.846044	3775.600000
2536.309795	3777.300000
2537.774896	3769.000000
2539.238120	3787.800000
2540.702694	3774.250000
2542.163778	3777.300000
2543.626212	3773.300000
2545.088383	3778.650000
2546.547068	3785.600000
2548.010325	3791.700000
2549.468485	3788.050000
2550.927994	3793.400000
2552.382410	3774.250000
2553.841395	3797.800000
2555.298509	3772.800000
2556.753752	3788.100000
2558.208734	3776.050000
2559.661846	3791.000000
2561.116307	3760.950000
2562.568899	3785.900000
2564.021231	3765.650000
2565.471695	3810.300000
2566.925115	3775.250000
2568.373453	3799.950000
2569.824747	3768.350000
2571.274174	3809.550000
2572.720130	3782.450000
2574.169040	3791.950000
2575.614479	3779.100000
2577.061267	3801.050000
2578.506191	3794.000000
2579.950858	3793.550000
2581.396872	3780.400000
2582.839419	3797.150000
2584.283314	3790.750000
2585.723744	3790.800000
2587.165522	3781.800000
2588.605439	3829.700000
2590.046704	3794.650000
2591.484508	3799.650000
2592.925261	3794.650000
2594.360951	3804.600000
2595.799591	3813.150000
2597.236374	3819.800000
2598.671300	3793.650000
2600.109175	3809.250000
2601.541991	3800.050000
2602.976155	3815.350000
2604.408465	3802.300000
2605.842121	3809.250000
2607.273924	3813.250000
2608.705474	3824.850000
2610.136770	3810.550000
2611.566214	3845.800000
2612.995407	3800.950000
2614.422748	3836.500000
2615.851436	3820.500000
2617.279871	3819.050000
2618.704859	3820.050000
2620.131194	3835.800000
2621.555680	3833.350000
2622.981512	3832.100000
2624.403900	3822.950000
2625.827634	3854.300000
2627.249521	3842.100000
2628.671159	3860.900000
2630.090951	3847.250000
2631.512089	3863.250000
2632.932977	3843.650000
2634.350427	3862.350000
2635.770816	3868.850000
2637.187768	3879.450000
2638.604472	3869.700000
2640.020927	3878.900000
2641.437134	3868.000000
2642.853092	3864.800000
2644.267210	3873.300000
2645.681081	3898.000000
2647.093112	3897.800000
2648.506488	3921.550000
2649.916434	3881.650000
2651.329315	3916.750000
2652.738769	3903.300000
2654.147976	3917.900000
2655.555347	3919.050000
2656.965652	3925.900000
2658.374121	3915.400000
2659.780755	3963.200000
2661.187144	3929.850000
2662.591699	3935.700000
2663.997598	3944.050000
2665.401664	3935.450000
2666.805486	3957.800000
2668.209063	3939.350000
2669.610808	3942.350000
2671.013897	3945.300000
2672.413569	3959.850000
2673.814583	3969.350000
2675.212182	3941.300000
2676.612711	3979.350000
2678.009825	3914.600000
2679.408282	3967.600000
2680.804911	3964.850000
2682.201298	3962.000000
2683.597444	3926.450000
2684.991763	3947.700000
2686.387425	3917.800000
2687.779677	3930.450000
2689.173273	3908.000000
2690.565044	3958.500000
2691.958157	3910.450000
2693.349447	3937.750000
2694.738914	3915.750000
2696.128141	3911.050000
2697.517129	3875.500000
2698.907459	3908.150000
2700.292804	3897.800000
2701.681073	3892.950000
2703.067522	3886.000000
2704.453732	3882.050000
2705.839704	3866.600000
2707.222276	3890.550000
2708.606191	3875.750000
2709.989868	3889.450000
2711.373307	3860.000000
2712.753350	3880.450000
2714.134735	3849.950000
2715.514304	3858.200000
2716.895215	3823.000000
2718.274311	3850.550000
2719.651592	3829.200000
2721.030215	3837.450000
2722.407025	3832.800000
2723.783599	3843.400000
2725.159937	3815.850000
2726.534463	3850.050000
2727.910330	3822.450000
2729.282810	3828.050000
2730.658206	3820.450000
2732.028642	3831.100000
2733.400419	3800.450000
2734.771961	3837.500000
2736.141695	3811.850000
2737.512770	3814.800000
2738.882037	3821.500000
2740.251070	3828.400000
2741.618296	3772.250000
2742.985290	3799.850000
2744.352051	3775.900000
2745.718579	3813.050000
2747.083302	3794.050000
2748.447794	3814.050000
2749.812053	3777.200000
2751.176080	3809.400000
2752.539876	3784.350000
2753.900298	3797.150000
2755.263631	3782.200000
2756.622021	3773.800000
2757.983321	3784.250000
2759.341250	3774.750000
2760.702089	3757.900000
2762.061127	3782.000000
2763.416797	3760.500000
2764.775375	3782.000000
2766.130587	3762.150000
2767.485569	3786.000000
2768.838754	3751.800000
2770.194846	3779.400000
2771.547574	3727.750000
2772.900073	3773.000000
2774.252344	3767.200000
2775.605954	3772.450000
2776.956202	3752.000000
2778.304657	3784.100000
2779.656016	3754.750000
2781.004016	3766.600000
2782.353355	3748.800000
2783.700901	3756.800000
2785.048220	3757.200000
2786.395313	3767.700000
2787.740615	3743.200000
2789.085691	3773.900000
2790.430541	3757.300000
2791.775164	3759.400000
2793.116436	3749.450000
2794.459046	3758.350000
2795.801430	3756.250000
2797.143590	3729.950000
2798.482400	3755.000000
2799.824109	3763.600000
2801.162471	3739.450000
2802.502170	3760.550000
2803.840083	3758.400000
2805.176212	3751.950000
2806.512117	3748.400000
2807.849360	3751.850000
2809.184819	3750.900000
2810.520055	3747.750000
2811.853508	3741.900000
2813.188299	3760.300000
2814.519748	3740.700000
2815.854093	3764.050000
2817.183540	3736.300000
2818.514324	3755.750000
2819.844886	3761.600000
2821.173669	3766.550000
2822.503788	3738.650000
2823.832129	3736.700000
2825.160249	3736.250000
2826.486592	3757.050000
2827.814270	3745.750000
2829.138616	3750.400000
2830.464297	3750.400000
2831.788203	3745.900000
2833.111890	3750.300000
2834.436912	3765.150000
2835.758604	3739.350000
2837.080078	3756.000000
2838.401333	3720.350000
2839.722369	3761.100000
2841.041633	3751.650000
2842.362232	3778.350000
2843.681059	3728.950000
2844.999668	3770.700000
2846.316506	3753.400000
2847.633128	3771.700000
2848.949531	3746.950000
2850.264166	3772.200000
2851.580135	3734.900000
2852.892784	3766.950000
2854.206769	3729.400000
2855.520536	3735.450000
2856.834088	3753.250000
2858.145872	3742.300000
2859.455890	3752.750000
2860.767243	3757.100000
2862.075281	3745.000000
2863.384654	3751.300000
2864.693811	3772.650000
2866.002753	3777.150000
2867.309932	3753.500000
2868.615347	3784.100000
2869.922097	3760.150000
2871.227084	3763.550000
2872.531858	3737.350000
2873.834870	3751.100000
2875.140764	3734.550000
2876.441802	3758.100000
2877.744175	3740.650000
2879.044788	3766.050000
2880.346735	3763.900000
2881.648469	3757.150000
2882.946898	3757.200000
2884.246662	3749.100000
2885.544667	3738.000000
2886.842461	3772.550000
2888.138499	3729.800000
2889.435870	3756.100000
2890.731485	3742.100000
2892.026889	3761.100000
2893.322083	3771.550000
2894.613978	3743.600000
2895.908750	3755.400000
2897.200225	3774.300000
2898.493033	3738.100000
2899.785631	3776.700000
2901.074935	3754.450000
2902.365571	3777.200000
2903.654456	3754.100000
2904.944674	3771.000000
2906.231600	3758.550000
2907.519858	3749.450000
2908.806366	3741.900000
2910.092667	3764.050000
2911.378759	3746.750000
2912.663103	3775.450000
2913.950319	3766.050000
2915.232707	3754.400000
2916.516428	3768.300000
2917.798403	3774.450000
2919.080171	3736.450000
2920.360193	3739.650000
2921.643085	3753.350000
2922.924232	3758.250000
2924.202097	3771.900000
2925.482831	3786.700000
2926.760284	3754.900000
2928.037531	3767.150000
2929.313037	3760.750000
2930.591410	3766.350000
2931.864968	3755.100000
2933.141394	3751.400000
2934.416079	3743.550000
2935.689024	3744.700000
2936.963299	3752.900000
2938.235835	3757.150000
2939.508167	3718.100000
2940.777225	3738.700000
2942.049149	3747.100000
2943.319335	3755.600000
2944.589318	3749.750000
2945.859097	3738.450000
2947.127139	3722.150000
2948.393446	3746.000000
2949.659550	3738.300000
2950.926984	3741.950000
2952.192684	3721.350000
2953.458181	3732.300000
2954.723476	3727.050000
2955.985506	3719.600000
2957.248867	3752.350000
2958.512025	3739.800000
2959.773452	3724.050000
2961.036208	3729.700000
2962.297233	3742.700000
2963.556526	3734.050000
2964.815620	3720.100000
2966.074513	3746.350000
2967.333206	3735.900000
2968.591699	3742.450000
2969.848463	3709.250000
2971.105027	3745.350000
2972.359864	3701.550000
2973.616030	3729.600000
2974.868940	3712.450000
2976.123180	3740.300000
2977.377221	3740.950000
2978.629536	3720.750000
2979.881653	3723.050000
2981.132045	3722.950000
2982.385292	3700.400000
2983.633762	3717.900000
2984.885086	3718.550000
2986.133162	3738.800000
2987.381040	3705.950000
2988.628721	3710.000000
2989.876206	3704.600000
2991.121969	3718.550000
2992.367535	3723.800000
2993.614429	3725.100000
2994.858079	3692.750000
2996.103057	3718.300000
2997.344792	3715.600000
2998.589378	3726.500000
2999.832244	3712.500000
3001.071870	3728.500000
3002.314346	3710.300000
3003.553583	3711.500000
3004.794147	3689.050000
3006.032994	3718.450000
3007.271647	3717.650000
3008.508584	3720.450000
3009.746848	3707.750000
3010.983398	3727.300000
3012.219753	3704.600000
3013.455915	3709.050000
3014.690364	3702.550000
3015.924619	3710.000000
3017.158681	3716.600000
3018.391031	3701.150000
3019.621669	3688.000000
3020.855153	3691.050000
3022.086925	3693.000000
3023.316987	3716.850000
3024.546857	3692.900000
3025.775017	3706.900000
3027.004503	3691.800000
3028.232281	3703.050000
3029.459867	3690.200000
3030.688779	3702.150000
3031.912949	3699.250000
3033.139962	3705.400000
3034.363751	3693.450000
3035.588867	3701.350000
3036.812276	3684.600000
3038.035496	3688.100000
3039.257010	3674.850000
3040.481365	3703.850000
3041.700985	3697.750000
3042.921930	3692.050000
3044.142687	3696.650000
3045.361740	3715.450000
3046.582119	3688.200000
3047.799281	3681.800000
3049.017768	3678.750000
3050.234554	3707.600000
3051.451151	3677.750000
3052.667560	3690.950000
3053.880757	3667.650000
3055.096791	3696.900000
3056.309613	3677.700000
3057.525272	3695.200000
3058.736208	3660.600000
3059.948469	3694.950000
3061.160544	3681.100000
3062.372432	3679.350000
3063.582622	3690.700000
3064.792626	3698.600000
3066.002445	3665.600000
3067.210567	3673.300000
3068.418503	3666.650000
3069.624745	3688.150000
3070.832310	3667.800000
3072.038182	3663.025000
3073.243868	3658.250000
3074.449369	3704.700000
3075.653177	3674.300000
3076.858309	3700.050000
3078.061749	3679.750000
3079.263496	3683.650000
3080.465060	3677.850000
3081.666440	3663.000000
3082.867636	3675.450000
3084.067142	3693.500000
3085.266464	3685.600000
3086.467110	3690.800000
3087.666066	3678.900000
3088.861828	3701.700000
3090.060419	3678.850000
3091.255816	3658.450000
3092.452536	3693.450000
3093.646064	3695.750000
3094.842421	3683.650000
3096.037090	3717.700000
3097.228569	3683.900000
3098.424379	3686.350000
3099.615496	3688.000000
3100.807935	3704.650000
3101.997187	3677.750000
3103.189265	3693.650000
3104.379658	3680.850000
3105.566866	3686.600000
3106.755397	3674.400000
3107.945250	3697.500000
3109.131918	3671.400000
3110.318407	3675.000000
3111.504716	3666.600000
3112.692347	3687.700000
3113.876797	3664.100000
3115.059566	3699.450000
3116.245159	3635.350000
3117.429071	3705.900000
3118.611305	3663.650000
3119.793360	3689.750000
3120.975238	3680.600000
3122.156937	3679.900000
3123.336958	3672.250000
3124.515303	3694.950000
3125.696469	3679.300000
3126.874459	3677.600000
3128.052272	3673.900000
3129.229908	3694.600000
3130.405869	3668.100000
3131.581653	3693.400000
3132.758759	3651.350000
3133.934190	3694.800000
3135.107948	3664.200000
3136.280034	3674.850000
3137.453440	3665.600000
3138.626671	3704.750000
3139.798229	3672.000000
3140.971109	3701.300000
3142.140821	3675.350000
3143.311854	3681.150000
3144.481216	3680.400000
3145.648909	3693.150000
3146.819417	3680.100000
3147.985266	3703.600000
3149.155425	3675.400000
3150.320926	3695.300000
3151.486254	3666.200000
3152.651408	3704.500000
3153.816388	3668.750000
3154.982689	3687.650000
3156.144336	3677.900000
3157.307304	3690.450000
3158.470098	3668.750000
3159.632720	3686.750000
3160.793677	3657.000000
3161.954461	3665.550000
3163.115073	3663.600000
3164.274022	3687.600000
3165.432798	3681.550000
3166.591403	3683.950000
3167.749836	3636.500000
3168.908097	3657.800000
3170.064696	3659.800000
3171.219634	3645.950000
3172.375891	3661.150000
3173.530488	3672.550000
3174.684913	3640.650000
3175.837679	3672.550000
3176.990275	3693.700000
3178.142700	3686.550000
3179.294956	3681.750000
3180.447042	3690.200000
3181.595981	3631.000000
3182.747727	3677.850000
3183.897815	3642.200000
3185.046247	3668.000000
3186.194510	3674.850000
3187.342603	3681.650000
3188.490528	3655.750000
3189.636798	3674.750000
3190.782899	3663.600000
3191.927345	3681.000000
3193.071624	3687.500000
3194.215735	3704.900000
3195.361164	3671.150000
3196.503453	3688.800000
3197.645576	3668.850000
3198.787531	3703.500000
3199.929320	3664.400000
3201.070941	3695.650000
3202.209426	3669.250000
3203.349229	3694.250000
3204.490350	3661.300000
3205.628336	3683.750000
3206.764673	3681.850000
3207.900844	3693.750000
3209.038333	3653.200000
3210.174173	3674.350000
3211.311329	3665.200000
3212.443873	3682.300000
3213.580699	3669.050000
3214.712913	3663.250000
3215.846445	3650.150000
3216.979811	3684.700000
3218.110050	3680.150000
3219.243087	3661.450000
3220.372998	3659.350000
3221.504226	3662.150000
3222.632328	3637.550000
3223.763227	3667.100000
3224.892483	3674.800000
3226.020094	3659.850000
3227.144584	3626.650000
3228.273349	3658.900000
3229.398992	3637.750000
3230.524472	3658.550000
3231.648311	3635.100000
3232.774944	3647.400000
3233.896980	3658.950000
3235.020332	3677.350000
3236.143522	3635.550000
3237.266550	3659.750000
3238.387938	3664.000000
3239.509165	3669.500000
3240.628753	3669.250000
3241.748180	3671.800000
3242.865969	3649.000000
3243.986551	3681.550000
3245.104018	3669.550000
3246.221326	3670.150000
3247.338472	3651.400000
3248.453983	3675.900000
3249.570809	3664.650000
3250.684524	3660.450000
3251.801030	3639.250000
3252.915900	3654.150000
3254.027662	3655.900000
3255.139265	3680.450000
3256.252182	3648.300000
3257.364941	3675.200000
3258.474593	3651.100000
3259.585560	3691.400000
3260.696367	3662.650000
3261.805544	3674.850000
3262.913089	3643.350000
3264.021949	3664.500000
3265.130650	3650.800000
3266.236249	3678.050000
3267.343162	3634.700000
3268.448447	3615.550000
3269.555045	3650.550000
3270.658543	3660.300000
3271.763355	3663.750000
3272.868010	3668.300000
3273.969566	3649.800000
3275.070967	3678.000000
3276.173681	3650.850000
3277.276238	3672.750000
3278.375700	3663.650000
3279.477944	3677.350000
3280.577094	3653.850000
3281.674618	3663.950000
3282.771987	3637.750000
3283.872139	3672.350000
3284.969197	3649.450000
3286.066100	3648.900000
3287.162849	3646.650000
3288.255038	3672.600000
3289.351476	3635.650000
3290.446293	3650.150000
3291.540954	3639.700000
3292.633994	3657.700000
3293.726880	3649.200000
3294.818145	3614.350000
3295.910723	3644.200000
3297.001680	3654.700000
3298.091018	3623.400000
3299.180203	3641.000000
3300.270701	3640.950000
3301.358114	3636.000000
3302.445375	3626.350000
3303.533948	3647.650000
3304.622368	3640.400000
3305.706241	3670.350000
3306.794356	3635.000000
3307.879390	3658.450000
3308.962807	3632.600000
3310.047537	3638.500000
3311.130652	3636.100000
3312.215078	3650.200000
3313.296426	3627.250000
3314.379086	3651.850000
3315.460132	3621.200000
3316.541027	3654.700000
3317.620309	3625.550000
3318.699440	3678.000000
3319.779882	3640.200000
3320.857251	3650.350000
3321.935931	3640.150000
3323.012999	3635.950000
3324.089917	3650.950000
3325.165224	3643.650000
3326.240382	3637.950000
3327.316851	3638.150000
3328.390250	3668.400000
3329.463500	3650.650000
3330.538061	3611.250000
3331.611012	3660.700000
3332.682356	3630.850000
3333.755010	3663.150000
3334.824597	3634.350000
3335.895495	3675.350000
3336.964786	3622.950000
3338.035388	3649.400000
3339.104383	3624.300000
3340.171772	3667.600000
3341.237556	3632.600000
3342.307566	3644.450000
3343.374513	3632.300000
3344.438398	3647.650000
3345.505051	3612.850000
3346.570099	3622.600000
3347.633545	3596.000000
3348.696843	3647.350000
3349.759996	3617.900000
3350.823002	3656.150000
3351.885861	3604.450000
3352.947119	3673.850000
3354.005320	3639.100000
3355.067742	3645.850000
3356.127107	3612.400000
3357.186327	3642.850000
3358.246857	3623.650000
3359.302877	3633.650000
3360.361662	3648.400000
3361.415939	3661.100000
3362.472979	3637.950000
3363.528422	3641.200000
3364.585173	3620.300000
3365.640327	3643.000000
3366.693883	3623.100000
3367.745842	3640.800000
3368.800563	3628.800000
3369.852235	3647.350000
3370.903764	3625.850000
3371.956602	3632.150000
3373.006392	3637.800000
3374.057490	3643.400000
3375.105543	3640.400000
3376.156356	3654.700000
3377.204123	3640.350000
3378.251748	3645.350000
3379.299230	3618.950000
3380.345120	3613.400000
3381.392318	3626.800000
3382.436474	3631.200000
3383.483388	3639.150000
3384.528710	3646.900000
3385.570992	3608.500000
3386.613132	3644.850000
3387.656580	3628.900000
3388.699888	3641.200000
3389.741605	3612.500000
3390.783181	3622.250000
3391.824617	3628.900000
3392.864463	3646.000000
3393.902722	3622.050000
3394.942288	3643.900000
3395.981713	3617.250000
3397.019551	3644.700000
3398.055803	3622.850000
3399.091914	3618.350000
3400.129333	3634.350000
3401.163719	3627.600000
3402.199412	3622.050000
3403.234966	3660.000000
3404.267489	3629.750000
3405.302765	3646.000000
3406.335010	3621.850000
3407.367117	3640.450000
3408.397640	3607.200000
3409.429471	3629.450000
3410.461162	3628.000000
3411.489827	3624.450000
3412.518353	3625.250000
3413.548187	3638.500000
3414.577882	3613.700000
3415.604552	3634.950000
3416.632529	3635.900000
3417.657481	3631.050000
3418.685183	3630.650000
3419.709862	3643.300000
3420.735847	3636.550000
3421.760252	3641.950000
3422.784521	3613.750000
3423.807211	3641.200000
3424.829765	3635.400000
3425.853625	3631.100000
3426.874465	3629.050000
3427.895170	3631.600000
3428.917180	3631.950000
3429.936172	3633.650000
3430.955029	3634.400000
3431.975191	3629.950000
3432.992337	3628.650000
