-117.300111	2.440000
-114.630511	8.130000
-111.963846	13.500000
-109.297933	7.140000
-106.634952	10.910000
-103.970542	7.460000
-101.309062	2.920000
-98.646153	16.260000
-95.988350	13.660000
-93.329118	4.690000
-90.670634	9.480000
-88.015074	6.640000
-85.358086	7.370000
-82.706196	12.390000
-80.052875	9.140000
-77.402475	10.430000
-74.750645	12.810000
-72.103906	10.860000
-69.455738	8.490000
-66.808312	13.560000
-64.163800	10.120000
-61.517860	14.740000
-58.877001	5.220000
-56.234713	11.500000
-53.595334	14.240000
-50.954525	6.970000
-48.314457	11.800000
-45.679461	14.230000
-43.043037	9.940000
-40.409515	7.480000
-37.774565	10.660000
-35.144680	14.640000
-32.511203	17.180000
-29.882788	14.270000
-27.255107	19.760000
-24.625997	19.920000
-22.001944	19.520000
-19.374302	28.890000
-16.751713	31.240000
-14.129856	55.870000
-11.508729	97.740000
-8.888332	235.460000
-6.270824	739.780000
-3.651887	2292.940000
-1.035835	4742.960000
1.579488	4964.530000
4.194084	2477.320000
6.805797	240.140000
9.418939	52.080000
12.027047	27.220000
14.638737	22.110000
17.245396	23.490000
19.853483	22.290000
22.460846	19.970000
25.063184	16.700000
27.669100	13.620000
30.269994	6.120000
32.872316	13.130000
35.469621	11.470000
38.070501	9.740000
40.666366	12.920000
43.263660	15.040000
45.860234	8.470000
48.451799	10.930000
51.044792	9.890000
53.634924	16.110000
56.226484	18.020000
58.815184	13.020000
61.405311	15.520000
63.990439	12.490000
66.576995	11.090000
69.162837	10.050000
71.745825	11.610000
74.330239	16.740000
76.907525	10.330000
79.488377	16.350000
82.066380	16.170000
84.643673	10.100000
87.222392	15.230000
89.796129	22.760000
92.371294	16.170000
94.943615	19.470000
97.515228	15.090000
100.084001	19.560000
102.654201	20.010000
105.221563	25.640000
107.790350	21.870000
110.356301	24.990000
112.919417	30.390000
115.486089	34.100000
118.043540	38.850000
120.606676	55.440000
123.164852	68.370000
125.726583	110.600000
128.283357	152.940000
130.841558	226.820000
133.394805	338.220000
135.947355	489.770000
138.503455	676.110000
141.054607	827.100000
143.605062	858.830000
146.154819	882.090000
148.701757	899.570000
151.248000	904.710000
153.795668	917.740000
156.342640	922.070000
158.884677	902.800000
161.426020	907.400000
163.966670	904.660000
166.508746	904.540000
169.048010	901.600000
171.584466	909.440000
174.120230	899.510000
176.657420	904.180000
179.193919	903.690000
181.727612	900.070000
184.258501	894.790000
186.788703	899.930000
189.320329	894.320000
191.849154	895.710000
194.375180	895.270000
196.900520	897.140000
199.427285	894.370000
201.951254	896.970000
204.474538	897.270000
206.997137	899.430000
209.516943	895.510000
212.036066	895.950000
214.554506	897.250000
217.074370	900.390000
219.587233	897.130000
222.103627	899.430000
224.619339	899.320000
227.130161	901.390000
229.642408	904.190000
232.151873	907.350000
234.660659	905.290000
237.168766	909.650000
239.678298	904.090000
242.182949	911.530000
244.686924	909.710000
247.192323	910.830000
249.692847	912.360000
252.196895	909.170000
254.693971	908.380000
257.194571	915.810000
259.692399	912.290000
262.189554	911.010000
264.686036	919.240000
267.177655	917.810000
269.672794	920.060000
272.165166	919.150000
274.656868	923.400000
277.145807	924.050000
279.636170	921.650000
282.123770	920.310000
284.608611	922.260000
287.096967	923.960000
289.578383	918.480000
292.063313	930.250000
294.543398	924.260000
297.026995	928.410000
299.505749	923.740000
301.985927	935.910000
304.463352	938.750000
306.940114	932.970000
309.416213	941.370000
311.889563	946.740000
314.362251	961.220000
316.834278	987.600000
319.305644	1015.650000
321.774265	1038.530000
324.242228	1033.830000
326.711612	1005.140000
329.176174	982.330000
331.644240	965.980000
334.107486	956.880000
336.570074	960.460000
339.032006	950.650000
341.493281	952.280000
343.951822	944.090000
346.411785	947.400000
348.869015	945.180000
351.325591	942.820000
353.781513	947.790000
356.234705	944.020000
358.689320	946.240000
361.139133	950.960000
363.592442	943.860000
366.040953	948.780000
368.488812	947.950000
370.938094	946.820000
373.382582	946.350000
375.828492	949.880000
378.273752	943.150000
380.716294	947.360000
383.158188	949.460000
385.599435	944.960000
388.037966	945.920000
390.477919	953.580000
392.915158	944.910000
395.349685	950.710000
397.787700	951.970000
400.220938	945.200000
402.655597	938.780000
405.085484	946.700000
407.518856	952.110000
409.947458	950.050000
412.375418	949.360000
414.804800	944.900000
417.229416	946.980000
419.655454	951.190000
422.080851	945.350000
424.505608	951.530000
426.925607	951.870000
429.347027	957.120000
431.765750	951.890000
434.185894	952.940000
436.603343	950.400000
439.022212	953.920000
441.438388	953.020000
443.849816	958.210000
446.264722	950.130000
448.676937	955.520000
451.088518	949.230000
453.499465	954.660000
455.907726	946.610000
458.315354	949.900000
460.722350	947.450000
463.128715	939.400000
465.532397	935.980000
467.935449	939.900000
470.337871	927.910000
472.739663	932.180000
475.138778	928.750000
477.539312	925.860000
479.939217	928.500000
482.334399	930.540000
484.733048	934.700000
487.126977	929.080000
489.520280	933.240000
491.912957	924.320000
494.305009	921.040000
496.698479	905.560000
499.087237	891.110000
501.473329	891.190000
503.860841	880.540000
506.247730	878.940000
508.631955	860.250000
511.017598	858.000000
513.400580	850.470000
515.780901	842.220000
518.162641	839.720000
520.541722	839.520000
522.922222	837.590000
525.300064	833.950000
527.675251	831.830000
530.049820	822.460000
532.425807	828.820000
534.799142	830.400000
537.173894	819.800000
539.543961	817.630000
541.913412	819.300000
544.284281	817.650000
546.650470	814.280000
549.018077	815.750000
551.383038	812.070000
553.747386	809.020000
556.111121	813.440000
558.476274	811.260000
560.836755	810.640000
563.198654	808.770000
565.557912	808.590000
567.914533	810.880000
570.274598	800.100000
572.627972	804.600000
574.984791	799.870000
577.338975	801.080000
579.692551	797.170000
582.045518	801.240000
584.395853	799.290000
586.747606	803.560000
589.092682	790.240000
591.443222	800.760000
593.787088	796.060000
596.136416	804.000000
598.481095	797.730000
600.823150	796.540000
603.166622	795.120000
605.507471	795.530000
607.847718	797.710000
610.185344	800.080000
612.526405	792.860000
614.862828	791.100000
617.200668	790.850000
619.535891	787.650000
621.868498	781.090000
624.202521	788.280000
626.533930	781.950000
628.864741	789.830000
631.194955	789.030000
633.524570	782.240000
635.849563	780.010000
638.179996	779.940000
640.505809	780.500000
642.829014	785.600000
645.153636	785.080000
647.475652	782.070000
649.797074	775.910000
652.115894	788.910000
654.436129	773.120000
656.755771	778.510000
659.072812	773.690000
661.389261	772.810000
663.703112	777.170000
666.018379	776.840000
668.331049	781.390000
670.645134	778.520000
672.954619	768.930000
675.265520	783.580000
677.573828	768.820000
679.881548	777.990000
682.190682	776.470000
684.495224	772.440000
686.799180	775.300000
689.102550	775.760000
691.407334	772.680000
693.707532	771.920000
696.009144	765.840000
698.310172	764.840000
700.606617	767.450000
702.904478	770.100000
705.201755	769.870000
707.498449	763.170000
709.790567	763.400000
712.086096	767.220000
714.377051	763.540000
716.669421	769.620000
718.959216	769.560000
721.248430	771.400000
723.537065	767.550000
725.823127	769.440000
728.110604	774.720000
730.395509	769.210000
732.679837	774.250000
734.961596	770.470000
737.244769	773.530000
739.527365	774.020000
741.805405	769.080000
744.084860	774.430000
746.363738	770.380000
748.642042	777.790000
750.915796	768.770000
753.190963	777.110000
755.465557	776.670000
757.737592	777.150000
760.011040	773.160000
762.281930	779.500000
764.550264	779.190000
766.820011	773.790000
769.087204	776.840000
771.353826	775.050000
773.619878	777.930000
775.883379	779.390000
778.148293	781.840000
780.412637	782.250000
782.672452	774.050000
784.933679	781.360000
787.194339	781.060000
789.452453	779.900000
791.708022	775.570000
793.966982	780.250000
796.219443	779.400000
798.477270	785.820000
800.730579	778.640000
802.981348	780.700000
805.233529	776.780000
807.483171	777.210000
809.734226	770.310000
811.980769	776.520000
814.228724	773.920000
816.474145	773.760000
818.720977	771.460000
820.967248	773.570000
823.209014	765.560000
825.454164	773.820000
827.692841	765.670000
829.934900	769.150000
832.172461	769.380000
834.411434	773.570000
836.647880	764.330000
838.885737	763.620000
841.121069	769.210000
843.353878	770.660000
845.588098	767.280000
847.819795	761.280000
850.050938	766.670000
852.281526	758.330000
854.511560	759.200000
856.741040	758.960000
858.966038	763.850000
861.194411	763.870000
863.418304	759.710000
865.643609	761.780000
867.864438	762.240000
870.088639	765.680000
872.308367	758.620000
874.529505	757.830000
876.750094	760.980000
878.968172	766.900000
881.187660	763.900000
883.402682	766.870000
885.617157	761.760000
887.831083	768.830000
890.044463	760.940000
892.257295	765.700000
894.469581	763.020000
896.679364	769.400000
898.888602	763.950000
901.097295	765.720000
903.303489	759.100000
905.511092	763.100000
907.716197	758.080000
909.920759	762.740000
912.122826	761.530000
914.326302	764.200000
916.527284	759.510000
918.727724	769.740000
920.929573	761.720000
923.125031	765.600000
925.323848	764.480000
927.518226	766.110000
929.715962	758.270000
931.909262	763.620000
934.103971	761.700000
936.296194	763.180000
938.487878	767.390000
940.679025	771.130000
942.867689	769.090000
945.055817	767.690000
947.241464	771.410000
949.430463	778.350000
951.615039	772.940000
953.799080	772.540000
955.986471	774.800000
958.165558	783.470000
960.347996	782.570000
962.529900	784.810000
964.709329	777.390000
966.886286	784.320000
969.064651	783.640000
971.244423	792.020000
973.417846	791.160000
975.594615	795.620000
977.766977	796.590000
979.940747	797.530000
982.110113	789.230000
984.282823	798.400000
986.453068	795.950000
988.622784	799.520000
990.791971	798.190000
992.956761	800.750000
995.124892	804.060000
997.288629	807.010000
999.453772	806.330000
1001.616456	803.380000
1003.778615	810.770000
1005.938317	809.500000
1008.097494	812.430000
1010.258078	812.000000
1012.416208	810.780000
1014.573813	817.520000
1016.730895	811.770000
1018.887453	817.100000
1021.039632	813.600000
1023.193218	818.990000
1025.346282	820.370000
1027.496897	825.200000
1029.648919	823.250000
1031.796567	827.780000
1033.947547	823.480000
1036.094156	830.060000
1038.240246	825.130000
1040.385818	825.710000
1042.532795	825.860000
1044.673483	834.670000
1046.817501	829.320000
1048.959078	831.610000
1051.100139	839.400000
1053.242604	840.840000
1055.378790	838.890000
1057.518301	838.520000
1059.653458	835.440000
1061.791939	840.940000
1063.926066	835.130000
1066.059680	843.850000
1068.194699	834.020000
1070.325368	847.370000
1072.457442	832.510000
1074.587087	834.470000
1076.716220	830.360000
1078.844841	834.560000
1080.972951	826.860000
1083.098635	825.120000
1085.223809	826.210000
1087.350387	827.700000
1089.472627	824.860000
1091.596272	821.590000
1093.715582	817.410000
1095.840122	816.020000
1097.958416	814.250000
1100.078115	811.970000
1102.195395	815.960000
1104.312169	806.190000
1106.428436	808.680000
1108.542287	806.600000
1110.657543	802.630000
1112.768475	803.760000
1114.882720	805.960000
1116.992644	801.030000
1119.103972	807.320000
1121.214795	799.800000
1123.321302	799.710000
1125.431119	803.240000
1127.536621	795.070000
1129.643526	797.410000
1131.744216	792.070000
1133.850118	799.670000
1135.951711	795.340000
1138.054707	795.410000
1140.157202	791.870000
1142.253490	791.730000
1144.354986	791.580000
1146.452178	791.730000
1148.548873	791.640000
1150.645069	791.310000
1152.740768	787.730000
1154.835968	787.310000
1156.928772	791.320000
1159.022979	789.090000
1161.110994	786.720000
1163.204207	786.170000
1165.291232	782.080000
1167.381556	789.330000
1169.467593	784.320000
1171.556927	790.790000
1173.640080	782.030000
1175.724635	781.670000
1177.810592	781.710000
1179.892267	783.630000
1181.975344	775.830000
1184.056035	784.790000
1186.136234	778.680000
1188.215942	777.760000
1190.295159	782.650000
1192.371994	782.970000
1194.446448	778.170000
1196.524193	781.260000
1198.597669	785.000000
1200.672545	780.600000
1202.743154	777.490000
1204.815164	780.550000
1206.884799	769.970000
1208.955834	777.680000
1211.026381	772.630000
1213.092667	778.240000
1215.160354	777.790000
1217.225669	775.020000
1219.292384	773.760000
1221.354843	777.920000
1223.420587	769.780000
1225.482077	776.810000
1227.544968	776.420000
1229.605491	773.270000
1231.665530	767.950000
1233.725087	775.640000
1235.782278	775.540000
1237.838988	776.460000
1239.893334	782.710000
1241.950962	773.000000
1244.006227	774.210000
1246.057251	776.500000
1248.109675	768.930000
1250.161619	775.980000
1252.211205	771.110000
1254.260312	778.900000
1256.308941	773.520000
1258.357091	771.780000
1260.404762	772.310000
1262.448203	773.200000
1264.494920	772.320000
1266.539283	776.100000
1268.583170	770.180000
1270.624705	775.900000
1272.663891	772.660000
1274.706350	780.780000
1276.744586	775.960000
1278.784221	777.410000
1280.823381	778.610000
1282.858322	780.480000
1284.894662	775.670000
1286.928658	779.850000
1288.964051	779.450000
1290.995232	783.340000
1293.027810	778.770000
1295.059917	781.200000
1297.089683	788.390000
1299.120847	789.680000
1301.147803	789.660000
1303.176157	796.400000
1305.200307	791.130000
1307.227721	799.130000
1309.250933	799.380000
1311.275543	809.700000
1313.297819	808.240000
1315.321492	813.610000
1317.342832	814.020000
1319.363704	832.750000
1321.384109	829.260000
1323.400321	833.500000
1325.417930	835.990000
1327.433211	849.390000
1329.451751	845.840000
1331.466102	849.710000
1333.478127	857.070000
1335.493409	859.780000
1337.504506	859.540000
1339.517000	866.200000
1341.525311	859.350000
1343.536877	856.620000
1345.542405	862.240000
1347.551188	862.620000
1349.555793	856.210000
1351.563652	857.760000
1353.571049	852.260000
1355.572415	846.560000
1357.575177	839.110000
1359.577480	832.820000
1361.579323	826.520000
1363.580706	818.740000
1365.579776	815.890000
1367.578387	805.250000
1369.576540	801.320000
1371.574234	801.440000
1373.567766	796.920000
1375.562694	792.030000
1377.557164	789.380000
1379.551178	788.970000
1381.542885	782.370000
1383.534137	777.940000
1385.523083	781.610000
1387.513424	778.590000
1389.503310	775.160000
1391.490892	780.840000
1393.478021	776.970000
1395.462848	780.030000
1397.449070	776.080000
1399.432992	774.340000
1401.416461	774.770000
1403.399477	785.250000
1405.380196	780.060000
1407.362309	780.020000
1409.342126	769.910000
1411.321491	775.700000
1413.296718	773.840000
1415.275183	773.140000
1417.251355	769.790000
1419.227078	775.700000
1421.202351	770.520000
1423.175333	783.240000
1425.147867	776.020000
1427.119953	778.070000
1429.091592	775.760000
1431.059102	777.110000
1433.031686	777.660000
1434.996465	775.260000
1436.966315	776.660000
1438.932042	782.040000
1440.899161	775.320000
1442.863997	781.320000
1444.824713	780.500000
1446.790497	781.340000
1448.750326	784.480000
1450.711549	787.540000
1452.674164	780.860000
1454.632664	783.250000
1456.590721	787.760000
1458.548337	786.780000
1460.505510	783.090000
1462.460408	794.730000
1464.416699	790.440000
1466.370715	793.240000
1468.324290	796.580000
1470.275593	797.740000
1472.228289	792.880000
1474.178712	801.860000
1476.128697	791.750000
1478.078243	800.330000
1480.025520	806.610000
1481.970529	801.190000
1483.916931	800.440000
1485.862895	804.490000
1487.808422	804.340000
1489.751683	803.670000
1491.694509	804.160000
1493.635071	809.090000
1495.577024	808.200000
1497.516715	808.340000
1499.455972	805.100000
1501.394793	809.630000
1503.331355	814.260000
1505.269308	816.900000
1507.205002	812.240000
1509.140263	821.640000
1511.073268	821.570000
1513.005840	830.530000
1514.937980	829.700000
1516.869688	834.310000
1518.799142	837.930000
1520.729987	845.700000
1522.660400	844.190000
1524.586741	858.130000
1526.514473	867.030000
1528.439954	875.410000
1530.365006	881.610000
1532.289629	900.400000
1534.213823	904.970000
1536.135769	930.000000
1538.059106	949.050000
1539.980196	978.550000
1541.899043	1008.710000
1543.819278	1046.720000
1545.737271	1089.560000
1547.654837	1153.710000
1549.570161	1231.970000
1551.486875	1327.470000
1553.399534	1457.510000
1555.315397	1608.240000
1557.229020	1767.660000
1559.140406	1946.790000
1561.053180	2128.300000
1562.961905	2272.870000
1564.872019	2363.100000
1566.781710	2348.130000
1568.690978	2262.330000
1570.598012	2098.850000
1572.502813	1906.060000
1574.409003	1733.000000
1576.312961	1553.040000
1578.216498	1420.880000
1580.119615	1304.790000
1582.020502	1229.770000
1583.922778	1147.670000
1585.822826	1093.440000
1587.724261	1049.650000
1589.621663	1019.210000
1591.518646	985.210000
1593.415211	970.540000
1595.313164	950.260000
1597.205282	957.340000
1599.100593	939.130000
1600.995487	944.890000
1602.888159	941.360000
1604.780414	932.300000
1606.670450	916.410000
1608.560070	907.840000
1610.449275	892.120000
1612.338065	875.080000
1614.224637	853.010000
1616.112597	840.640000
1617.996540	831.630000
1619.881870	829.630000
1621.766787	827.010000
1623.649490	825.140000
1625.533580	812.350000
1627.413658	809.900000
1629.295124	812.460000
1631.174379	808.370000
1633.055020	802.170000
1634.929857	799.160000
1636.809675	796.090000
1638.685489	794.060000
1640.560892	794.070000
1642.437681	793.880000
1644.308674	792.460000
1646.182848	798.360000
1648.053023	789.280000
1649.926380	790.170000
1651.797533	786.320000
1653.666484	784.880000
1655.536820	787.050000
1657.403164	789.150000
1659.270893	782.450000
1661.136423	785.030000
1663.003339	780.410000
1664.866266	780.960000
1666.730578	771.280000
1668.592694	782.640000
1670.454405	771.520000
1672.317502	771.990000
1674.178403	770.230000
1676.037112	770.710000
1677.895417	772.560000
1679.755107	775.820000
1681.609029	772.150000
1683.466125	771.580000
1685.322818	775.860000
1687.175534	779.080000
1689.031422	770.180000
1690.883336	775.260000
1692.734849	769.360000
1694.585961	764.410000
1696.436673	770.460000
1698.286984	771.640000
1700.135110	764.070000
1701.984621	769.590000
1703.828383	767.620000
1705.677094	772.980000
1707.520059	771.570000
1709.366191	775.180000
1711.208360	771.420000
1713.053695	775.860000
1714.893289	774.370000
1716.734267	771.080000
1718.576628	774.350000
1720.415033	773.620000
1722.254821	770.800000
1724.092434	772.550000
1725.929651	764.200000
1727.764695	770.780000
1729.601122	762.480000
1731.435377	767.550000
1733.269237	773.140000
1735.102703	774.260000
1736.932224	767.940000
1738.764903	766.750000
1740.593638	764.840000
1742.425530	764.460000
1744.253480	764.340000
1746.081039	766.720000
1747.908205	764.040000
1749.734980	768.110000
1751.561363	763.760000
1753.383810	766.240000
1755.209412	767.250000
1757.031079	767.890000
1758.854128	758.450000
1760.675015	765.180000
1762.495514	759.840000
1764.317394	764.130000
1766.133574	763.180000
1767.952906	767.350000
1769.768311	759.250000
1771.586866	768.780000
1773.401496	759.360000
1775.215739	762.430000
1777.029596	757.830000
1778.843066	760.740000
1780.654383	757.940000
1782.467080	762.930000
1784.279392	766.010000
1786.087786	760.730000
1787.897560	761.000000
1789.703420	762.600000
1791.512425	753.860000
1793.317517	762.210000
1795.123990	760.540000
1796.930079	767.140000
1798.732257	759.890000
1800.537580	759.840000
1802.338994	759.790000
1804.141788	764.990000
1805.940676	755.440000
1807.740945	762.740000
1809.540832	763.940000
1811.338577	762.290000
1813.135942	758.150000
1814.932927	765.110000
1816.729531	765.670000
1818.523996	763.270000
1820.319840	757.450000
1822.110029	760.910000
1823.905115	764.870000
1825.694549	764.780000
1827.487119	761.930000
1829.277554	761.120000
1831.065855	761.650000
1832.857291	766.380000
1834.643081	760.860000
1836.430251	764.490000
1838.215289	763.260000
1840.003461	761.210000
1841.787747	763.370000
1843.569903	761.530000
1845.353439	762.060000
1847.134846	765.240000
1848.917632	763.750000
1850.696537	766.360000
1852.476822	764.550000
1854.254980	769.320000
1856.034517	757.900000
1857.811929	764.110000
1859.587217	762.240000
1861.363883	761.170000
1863.138427	765.020000
1864.914349	767.480000
1866.684650	764.680000
1868.458079	766.160000
1870.229388	762.530000
1872.000326	763.180000
1873.772642	765.640000
1875.539344	767.110000
1877.309172	759.400000
1879.075136	770.380000
1880.844223	760.760000
1882.609449	766.600000
1884.374307	764.770000
1886.140542	765.320000
1887.902918	763.480000
1889.664927	761.770000
1891.426568	760.390000
1893.187843	763.260000
1894.948750	763.420000
1896.709291	763.890000
1898.467722	763.040000
1900.225787	763.960000
1901.981745	756.290000
1903.739079	764.690000
1905.496048	757.650000
1907.250910	762.190000
1909.003668	759.650000
1910.756061	754.590000
1912.509831	758.420000
1914.261497	758.790000
1916.011061	758.140000
1917.762000	759.870000
1919.512577	757.870000
1921.259314	757.910000
1923.007428	760.730000
1924.753442	766.170000
1926.500831	760.760000
1928.246123	763.350000
1929.989317	755.710000
1931.733886	764.190000
1933.476360	756.750000
1935.218473	762.370000
1936.960226	761.520000
1938.701619	762.670000
1940.440919	757.340000
1942.179860	765.460000
1943.918442	761.650000
1945.654933	769.710000
1947.391066	766.070000
1949.128573	762.430000
1950.862258	760.650000
1952.597318	765.590000
1954.330289	764.450000
1956.062904	763.860000
1957.795163	762.160000
1959.527065	766.700000
1961.256881	758.480000
1962.984612	765.730000
1964.713718	763.110000
1966.442469	762.130000
1968.169136	762.480000
1969.895449	764.320000
1971.623135	765.540000
1973.345285	761.570000
1975.070536	757.650000
1976.791980	766.670000
1978.516525	762.050000
1980.238989	762.790000
1981.957651	760.160000
1983.679411	763.300000
1985.397369	757.980000
1987.116700	767.490000
1988.832232	763.060000
1990.552584	767.040000
1992.269138	765.160000
1993.981895	763.300000
1995.697748	760.410000
1997.411529	762.780000
1999.124960	760.020000
2000.836320	766.480000
2002.549052	761.290000
2004.257994	762.280000
2005.970028	762.810000
2007.676554	763.480000
2009.386171	760.850000
2011.093722	768.840000
2012.800924	764.750000
2014.506061	770.920000
2016.210852	764.240000
2017.917014	765.290000
2019.619394	765.990000
2021.323145	766.120000
2023.024834	759.750000
2024.726178	760.580000
2026.427176	765.060000
2028.126113	762.930000
2029.826422	762.870000
2031.522956	764.570000
2033.220861	757.790000
2034.916707	765.750000
2036.615639	756.500000
2038.309085	763.520000
2040.003902	758.270000
2041.698377	761.050000
2043.389083	757.770000
2045.082873	765.160000
2046.772896	759.090000
2048.464290	760.880000
2050.153631	761.430000
2051.844342	766.300000
2053.531290	760.640000
2055.217899	757.690000
2056.905877	759.130000
2058.590096	758.150000
2060.275686	757.960000
2061.960936	757.100000
2063.644137	759.920000
2065.328709	760.290000
2067.007818	759.190000
2068.691712	757.200000
2070.370145	758.700000
2072.051656	755.730000
2073.729415	757.850000
2075.406838	759.620000
2077.085630	757.560000
2078.762380	756.160000
2080.437088	758.910000
2082.113165	758.820000
2083.787202	759.060000
2085.460903	759.760000
2087.134269	760.950000
2088.805596	761.560000
2090.476590	753.420000
2092.147248	758.610000
2093.817573	752.670000
2095.487564	756.020000
2097.155519	757.870000
2098.823141	758.340000
2100.488728	757.150000
2102.155684	762.800000
2103.820607	756.510000
2105.485198	760.690000
2107.147757	752.490000
2108.811684	759.110000
2110.473580	750.490000
2112.135146	762.590000
2113.796380	757.950000
2115.455586	762.120000
2117.114461	753.010000
2118.773007	761.770000
2120.431223	759.200000
2122.085715	756.500000
2123.743272	758.430000
2125.400500	756.590000
2127.054006	759.320000
2128.708880	757.170000
2130.360035	754.270000
2132.014253	764.430000
2133.664754	754.320000
2135.316621	752.600000
2136.963080	755.770000
2138.614294	758.240000
2140.261794	754.430000
2141.910661	760.870000
2143.557509	765.090000
2145.204032	760.310000
2146.850229	755.400000
2148.492718	761.130000
2150.138265	761.660000
2151.780105	758.160000
2153.425002	760.300000
2155.066194	767.450000
2156.707062	764.360000
2158.347606	759.380000
2159.986138	757.280000
2161.626036	758.140000
2163.262234	759.460000
2164.899798	762.250000
2166.537040	759.720000
2168.172272	758.820000
2169.807183	761.290000
2171.441771	767.360000
2173.076039	757.560000
2174.706613	764.250000
2176.340239	761.810000
2177.970173	765.610000
2179.601472	755.670000
2181.230766	761.790000
2182.859741	759.970000
2184.488396	761.410000
2186.116732	759.510000
2187.743066	764.010000
2189.369081	763.790000
2190.993094	762.120000
2192.618473	757.180000
2194.241851	756.550000
2195.866594	759.750000
2197.487656	762.870000
2199.108401	761.780000
2200.730511	759.240000
2202.350623	756.020000
2203.968738	767.810000
2205.586538	759.580000
2207.204023	765.230000
2208.821192	762.040000
2210.438046	755.830000
2212.054584	756.910000
2213.669130	762.940000
2215.281683	759.680000
2216.895600	756.530000
2218.507526	756.520000
2220.120815	756.850000
2221.732114	752.080000
2223.341423	750.770000
2224.952096	759.200000
2226.560780	752.500000
2228.169151	753.890000
2229.775536	758.670000
2231.383284	754.610000
2232.989045	759.020000
2234.594495	756.330000
2236.197960	759.640000
2237.802788	754.090000
2239.405632	758.560000
2241.006493	760.920000
2242.608717	760.940000
2244.208959	758.830000
2245.810563	762.900000
2247.408514	764.700000
2249.007828	766.390000
2250.605162	753.970000
2252.202188	765.410000
2253.800576	761.600000
2255.395315	762.780000
2256.988077	760.010000
2258.582202	762.660000
2260.177688	759.650000
2261.769529	760.990000
2263.361064	760.920000
2264.953961	762.240000
2266.541548	759.850000
2268.133831	760.420000
2269.720808	754.980000
2271.310812	764.060000
2272.895512	762.950000
2274.484906	764.960000
2276.068998	759.700000
2277.654450	762.120000
2279.237934	765.270000
2280.824443	760.670000
2282.407319	756.660000
2283.989892	764.290000
2285.572161	759.870000
2287.150800	761.660000
2288.732464	762.970000
2290.310499	760.320000
2291.891557	762.220000
2293.468988	760.705000
2295.044456	759.190000
2296.622946	755.890000
2298.197812	759.520000
2299.772377	758.060000
2301.346642	756.700000
2302.920606	764.670000
2304.494269	759.740000
2306.067633	763.580000
2307.637378	761.590000
2309.206824	761.370000
2310.779288	756.940000
2312.346478	767.880000
2313.916686	759.390000
2315.483279	756.140000
2317.051232	770.900000
2318.617229	763.730000
2320.182929	763.080000
2321.748331	773.530000
2323.311780	764.160000
2324.876588	776.500000
2326.437788	780.400000
2328.002002	794.810000
2329.560954	790.030000
2331.122921	793.640000
2332.682936	766.050000
2334.242657	759.360000
2335.800428	759.630000
2337.357904	763.760000
2338.915086	761.360000
2340.470320	754.450000
2342.025261	764.720000
2343.579907	770.800000
2345.134260	763.900000
2346.688320	766.580000
2348.242085	766.540000
2349.793907	764.750000
2351.343785	762.920000
2352.896671	760.610000
2354.444315	763.800000
2355.994966	764.240000
2357.542026	764.070000
2359.090444	764.950000
2360.638571	763.890000
2362.183109	766.160000
2363.729005	763.710000
2365.272963	767.950000
2366.818278	768.520000
2368.360008	769.540000
2369.903095	766.970000
2371.444246	765.660000
2372.985108	767.660000
2374.525681	763.130000
2376.065965	768.940000
2377.605960	770.350000
2379.142377	769.110000
2380.681795	771.510000
2382.217636	770.880000
2383.754833	770.420000
2385.288455	770.580000
2386.825077	770.700000
2388.359769	769.570000
2389.892531	773.950000
2391.425006	768.440000
2392.955553	772.920000
2394.489098	771.990000
2396.017432	769.900000
2397.547123	768.360000
2399.076527	776.270000
2400.605647	775.300000
2402.134482	777.140000
2403.658111	786.200000
2405.186376	782.170000
2406.709439	778.680000
2408.237135	789.930000
2409.757992	785.580000
2411.283482	788.360000
2412.805411	787.400000
2414.328696	791.060000
2415.850059	793.550000
2417.369503	792.900000
2418.890302	796.790000
2420.409183	799.750000
2421.927781	798.990000
2423.444462	798.700000
2424.962497	796.680000
2426.480251	798.540000
2427.994454	797.040000
2429.508376	795.750000
2431.022018	798.720000
2432.537015	801.170000
2434.048463	800.740000
2435.561266	803.710000
2437.072155	803.930000
2438.582766	798.380000
2440.091465	796.660000
2441.603150	802.000000
2443.111292	802.950000
2444.619156	799.370000
2446.126742	792.850000
2447.630787	798.070000
2449.137817	793.770000
2450.642940	795.030000
2452.147784	802.310000
2453.650722	791.070000
2455.153384	793.390000
2456.655769	791.360000
2458.156249	796.730000
2459.658082	790.800000
2461.158010	787.740000
2462.657663	789.660000
2464.157041	783.900000
2465.654516	789.840000
2467.150089	783.850000
2468.648642	785.280000
2470.143667	782.800000
2471.640044	784.350000
2473.132895	777.530000
2474.627099	783.600000
2476.121029	778.690000
2477.611435	785.380000
2479.104819	783.690000
2480.596305	781.630000
2482.085894	781.820000
2483.575211	778.530000
2485.062632	777.860000
2486.553029	781.690000
2488.039908	780.700000
2489.528138	781.980000
2491.012851	777.220000
2492.497295	776.460000
2493.983089	776.020000
2495.466992	779.620000
2496.952245	775.520000
2498.432365	778.910000
2499.915458	772.410000
2501.396660	781.570000
2502.877593	776.160000
2504.356637	780.210000
2505.835412	774.210000
2507.313919	776.390000
2508.792158	784.300000
2510.270128	781.520000
2511.744593	777.670000
2513.222028	781.410000
2514.695959	784.280000
2516.171240	781.550000
2517.646254	783.610000
2519.117768	783.360000
2520.590631	775.190000
2522.061612	778.170000
2523.533943	773.590000
2525.001160	784.790000
2526.471344	780.160000
2527.939647	782.710000
2529.407685	784.020000
2530.875458	788.140000
2532.342966	784.370000
2533.810209	788.600000
2535.273960	791.810000
2536.739061	788.910000
2538.202285	793.700000
2539.666859	793.540000
2541.127943	788.610000
2542.590377	788.400000
2544.052548	787.700000
2545.511233	794.480000
2546.974490	790.020000
2548.432650	788.570000
2549.892159	791.180000
2551.346574	790.030000
2552.805560	791.580000
2554.262674	789.570000
2555.717917	797.810000
2557.172898	793.050000
2558.626011	789.330000
2560.080472	795.790000
2561.533063	793.590000
2562.985395	798.270000
2564.435860	795.380000
2565.889280	794.950000
2567.337618	796.970000
2568.788912	799.030000
2570.238339	799.000000
2571.684294	800.380000
2573.133204	795.220000
2574.578644	798.810000
2576.025431	800.780000
2577.470356	801.820000
2578.915022	804.240000
2580.361036	810.140000
2581.803584	798.720000
2583.247479	812.360000
2584.687909	810.370000
2586.129686	807.380000
2587.569604	807.140000
2589.010869	815.920000
2590.448672	807.060000
2591.889425	808.370000
2593.325116	807.880000
2594.763756	815.850000
2596.200538	824.030000
2597.635465	822.010000
2599.073339	820.700000
2600.506156	826.740000
2601.940320	821.730000
2603.372630	830.660000
2604.806286	832.330000
2606.238089	834.740000
2607.669638	834.840000
2609.100935	842.090000
2610.530379	838.090000
2611.959571	846.530000
2613.386913	852.240000
2614.815600	850.130000
2616.244036	848.450000
2617.669024	860.030000
2619.095359	858.240000
2620.519845	866.240000
2621.945677	869.180000
2623.368065	876.880000
2624.791799	872.960000
2626.213686	887.340000
2627.635324	885.880000
2629.055116	894.040000
2630.476254	887.890000
2631.897142	902.740000
2633.314592	901.660000
2634.734981	914.370000
2636.151933	922.430000
2637.568636	927.580000
2638.985091	925.420000
2640.401298	933.990000
2641.817257	940.950000
2643.231375	946.440000
2644.645245	958.190000
2646.057277	954.610000
2647.470652	963.380000
2648.880598	968.820000
2650.293480	977.130000
2651.702933	988.860000
2653.112140	992.050000
2654.519511	1000.410000
2655.929816	1005.220000
2657.338286	1016.270000
2658.744920	1012.660000
2660.151309	1027.610000
2661.555864	1033.470000
2662.961763	1042.450000
2664.365829	1043.680000
2665.769650	1051.510000
2667.173227	1052.330000
2668.574973	1075.010000
2669.978062	1071.530000
2671.377733	1084.650000
2672.778748	1076.950000
2674.176347	1080.930000
2675.576876	1088.680000
2676.973989	1090.390000
2678.372446	1092.120000
2679.769076	1101.900000
2681.165463	1091.820000
2682.561608	1094.170000
2683.955928	1093.490000
2685.351589	1092.850000
2686.743842	1096.540000
2688.137437	1090.030000
2689.529208	1090.830000
2690.922322	1086.120000
2692.313612	1079.180000
2693.703079	1084.020000
2695.092306	1070.430000
2696.481294	1071.890000
2697.871623	1070.460000
2699.256969	1057.160000
2700.645238	1051.560000
2702.031687	1047.110000
2703.417897	1034.320000
2704.803868	1021.870000
2706.186441	1013.690000
2707.570356	1007.890000
2708.954033	988.850000
2710.337471	987.870000
2711.717515	966.890000
2713.098899	969.800000
2714.478469	955.290000
2715.859379	942.040000
2717.238475	938.650000
2718.615757	929.610000
2719.994380	921.460000
2721.371190	911.530000
2722.747763	900.350000
2724.124101	890.980000
2725.498628	881.650000
2726.874495	880.220000
2728.246975	874.700000
2729.622371	865.500000
2730.992807	860.590000
2732.364584	863.660000
2733.736126	853.280000
2735.105860	846.720000
2736.476935	840.440000
2737.846201	835.700000
2739.215234	831.220000
2740.582461	835.750000
2741.949455	830.040000
2743.316215	823.800000
2744.682744	821.860000
2746.047467	819.180000
2747.411958	816.430000
2748.776218	816.770000
2750.140245	816.120000
2751.504041	815.530000
2752.864463	809.540000
2754.227795	808.270000
2755.586185	801.180000
2756.947485	802.040000
2758.305415	795.500000
2759.666253	799.900000
2761.025292	795.110000
2762.380962	796.970000
2763.739540	794.260000
2765.094751	796.080000
2766.449733	789.640000
2767.802919	793.430000
2769.159011	787.000000
2770.511738	795.720000
2771.864238	786.580000
2773.216509	793.450000
2774.570119	784.170000
2775.920367	787.870000
2777.268821	787.630000
2778.620181	779.620000
2779.968181	782.400000
2781.317519	785.050000
2782.665066	784.630000
2784.012385	784.680000
2785.359478	779.550000
2786.704780	784.230000
2788.049855	780.450000
2789.394705	778.810000
2790.739329	773.510000
2792.080601	781.680000
2793.423211	780.340000
2794.765595	777.240000
2796.107754	780.690000
2797.446564	781.120000
2798.788274	774.420000
2800.126636	777.430000
2801.466334	775.150000
2802.804248	780.900000
2804.140377	777.950000
2805.476282	777.300000
2806.813525	773.780000
2808.148984	776.380000
2809.484220	772.050000
2810.817673	777.090000
2812.152463	775.670000
2813.483913	780.070000
2814.818258	777.120000
2816.147705	774.310000
2817.478489	774.470000
2818.809051	778.230000
2820.137834	776.040000
2821.467953	774.100000
2822.796294	768.090000
2824.124414	773.000000
2825.450756	772.790000
2826.778435	769.730000
2828.102780	771.860000
2829.428462	775.370000
2830.752368	765.990000
2832.076055	767.630000
2833.401077	766.580000
2834.722769	764.400000
2836.044243	763.740000
2837.365498	770.320000
2838.686534	768.990000
2840.005797	769.440000
2841.326396	756.410000
2842.645224	766.490000
2843.963833	764.710000
2845.280671	765.470000
2846.597292	765.740000
2847.913696	760.640000
2849.228330	759.230000
2850.544300	764.620000
2851.856949	766.220000
2853.170933	763.410000
2854.484701	762.230000
2855.798252	759.550000
2857.110037	766.080000
2858.420055	766.610000
2859.731408	763.000000
2861.039446	754.860000
2862.348818	760.750000
2863.657976	758.420000
2864.966918	761.530000
2866.274096	764.250000
2867.579512	765.150000
2868.886262	771.110000
2870.191249	764.910000
2871.496023	763.890000
2872.799035	760.190000
2874.104928	765.090000
2875.405967	764.830000
2876.708340	765.680000
2878.008953	763.500000
2879.310900	767.070000
2880.612633	766.420000
2881.911063	765.850000
2883.210826	762.110000
2884.508832	767.960000
2885.806626	762.110000
2887.102664	765.770000
2888.400035	761.970000
2889.695650	765.970000
2890.991054	755.880000
2892.286247	768.030000
2893.578143	762.290000
2894.872915	763.930000
2896.164390	763.830000
2897.457198	759.190000
2898.749796	762.940000
2900.039100	762.150000
2901.329736	763.260000
2902.618621	765.050000
2903.908838	759.680000
2905.195764	769.660000
2906.484022	763.390000
2907.770531	767.450000
2909.056832	766.880000
2910.342924	770.700000
2911.627268	767.640000
2912.914483	768.870000
2914.196872	768.760000
2915.480593	771.210000
2916.762568	761.970000
2918.044335	767.390000
2919.324358	766.890000
2920.607250	763.270000
2921.888397	761.420000
2923.166262	767.100000
2924.446996	765.780000
2925.724449	766.390000
2927.001696	755.710000
2928.277201	764.090000
2929.555574	759.630000
2930.829133	766.720000
2932.105559	755.250000
2933.380244	762.110000
2934.653188	761.460000
2935.927464	764.980000
2937.200000	758.700000
2938.472331	764.920000
2939.741390	757.610000
2941.013314	764.700000
2942.283500	760.300000
2943.553482	763.360000
2944.823261	759.200000
2946.091304	759.800000
2947.357610	757.980000
2948.623715	755.870000
2949.891149	756.130000
2951.156849	764.340000
2952.422346	757.550000
2953.687641	753.220000
2954.949671	760.270000
2956.213031	760.480000
2957.476190	757.780000
2958.737617	757.440000
2960.000373	755.700000
2961.261397	754.370000
2962.520691	757.820000
2963.779785	759.080000
2965.038678	755.170000
2966.297371	758.830000
2967.555864	755.190000
2968.812628	759.970000
2970.069192	753.640000
2971.324029	755.920000
2972.580194	749.340000
2973.833105	757.770000
2975.087345	745.940000
2976.341386	759.620000
2977.593701	758.010000
2978.845817	754.650000
2980.096209	753.340000
2981.349456	758.820000
2982.597926	752.350000
2983.849251	754.340000
2985.097326	749.540000
2986.345205	755.880000
2987.592886	751.100000
2988.840370	757.060000
2990.086133	755.040000
2991.331700	753.430000
2992.578594	752.020000
2993.822244	749.200000
2995.067222	754.890000
2996.308956	755.750000
2997.553542	749.970000
2998.796409	756.880000
3000.036035	751.730000
3001.278511	762.360000
3002.517747	750.700000
3003.758311	754.650000
3004.997159	753.000000
3006.235811	756.400000
3007.472749	753.580000
3008.711013	754.720000
3009.947562	753.720000
3011.183918	755.990000
3012.420080	752.960000
3013.654528	757.340000
3014.888784	763.800000
3016.122846	757.950000
3017.355196	750.560000
3018.585834	759.080000
3019.819318	753.880000
3021.051090	756.270000
3022.281152	757.480000
3023.511022	759.860000
3024.739182	746.050000
3025.968668	755.880000
3027.196445	750.240000
3028.424031	753.640000
3029.652944	752.280000
3030.877114	757.650000
3032.104127	745.000000
3033.327916	757.990000
3034.553032	758.290000
3035.776441	753.410000
3036.999660	747.680000
3038.221174	750.140000
3039.445529	749.620000
3040.665149	753.110000
3041.886095	753.350000
3043.106852	754.680000
3044.325905	755.520000
3045.546283	752.330000
3046.763445	758.730000
3047.981933	754.620000
3049.198718	751.040000
3050.415316	750.770000
3051.631725	754.040000
3052.844922	752.950000
3054.060956	750.260000
3055.273778	748.680000
3056.489437	750.400000
3057.700373	759.900000
3058.912634	752.060000
3060.124709	753.660000
3061.336596	752.660000
3062.546787	751.820000
3063.756791	749.990000
3064.966609	751.420000
3066.174731	755.770000
3067.382668	749.040000
3068.588909	746.310000
3069.796475	751.250000
3071.002346	751.090000
3072.208033	750.930000
3073.413534	751.930000
3074.617342	750.650000
3075.822474	745.430000
3077.025913	752.530000
3078.227661	750.120000
3079.429224	749.840000
3080.630604	747.630000
3081.831800	749.930000
3083.031306	745.510000
3084.230629	750.410000
3085.431275	749.420000
3086.630231	747.830000
3087.825993	747.540000
3089.024584	746.630000
3090.219981	746.850000
3091.416701	746.390000
3092.610229	742.070000
3093.806585	747.120000
3095.001255	747.350000
3096.192734	742.070000
3097.388544	749.670000
3098.579661	746.470000
3099.772100	744.200000
3100.961352	754.810000
3102.153429	745.000000
3103.343823	745.430000
3104.531031	747.670000
3105.719562	750.620000
3106.909414	747.680000
3108.096083	746.540000
3109.282571	748.790000
3110.468881	747.690000
3111.656512	745.790000
3112.840961	753.130000
3114.023731	747.330000
3115.209323	746.160000
3116.393236	743.760000
3117.575470	747.160000
3118.757525	743.540000
3119.939402	751.500000
3121.121101	748.080000
3122.301123	747.850000
3123.479468	744.350000
3124.660633	746.050000
3125.838624	746.150000
3127.016437	743.010000
3128.194073	744.810000
3129.370034	743.120000
3130.545818	746.560000
3131.722924	747.910000
3132.898355	745.830000
3134.072113	744.920000
3135.244198	744.210000
3136.417605	749.740000
3137.590835	739.550000
3138.762394	744.450000
3139.935273	750.420000
3141.104985	750.700000
3142.276018	738.450000
3143.445381	746.940000
3144.613073	747.160000
3145.783581	748.390000
3146.949431	747.960000
3148.119589	745.420000
3149.285091	745.310000
3150.450418	752.580000
3151.615572	750.520000
3152.780553	743.290000
3153.946853	748.280000
3155.108501	745.660000
3156.271468	746.750000
3157.434263	749.130000
3158.596885	746.890000
3159.757842	746.850000
3160.918626	746.320000
3162.079238	747.700000
3163.238186	740.410000
3164.396963	743.170000
3165.555568	746.900000
3166.714000	740.860000
3167.872262	744.720000
3169.028861	748.690000
3170.183799	746.000000
3171.340056	746.470000
3172.494652	741.280000
3173.649078	746.830000
3174.801844	738.920000
3175.954439	742.130000
3177.106865	744.140000
3178.259121	748.730000
3179.411206	745.520000
3180.560146	748.870000
3181.711892	751.380000
3182.861980	744.420000
3184.010412	746.830000
3185.158674	746.230000
3186.306768	747.590000
3187.454693	750.180000
3188.600962	755.260000
3189.747063	756.700000
3190.891510	750.400000
3192.035789	757.980000
3193.179900	755.490000
3194.325328	752.320000
3195.467618	753.080000
3196.609741	757.620000
3197.751696	754.570000
3198.893484	758.220000
3200.035105	765.890000
3201.173591	763.900000
3202.313394	759.170000
3203.454515	769.080000
3204.592501	762.310000
3205.728838	771.720000
3206.865009	767.570000
3208.002497	768.090000
3209.138337	774.160000
3210.275494	768.580000
3211.408038	766.130000
3212.544864	773.300000
3213.677078	764.390000
3214.810609	767.920000
3215.943976	768.400000
3217.074215	762.570000
3218.207252	766.150000
3219.337163	759.830000
3220.468390	753.640000
3221.596493	754.220000
3222.727392	749.690000
3223.856647	760.570000
3224.984259	753.850000
3226.108748	749.380000
3227.237513	747.250000
3228.363156	758.280000
3229.488637	751.530000
3230.612476	752.840000
3231.739109	748.030000
3232.861145	749.510000
3233.984497	749.500000
3235.107687	739.140000
3236.230715	744.120000
3237.352103	744.570000
3238.473329	738.950000
3239.592918	749.600000
3240.712345	748.960000
3241.830134	743.190000
3242.950715	742.410000
3244.068183	747.540000
3245.185490	749.050000
3246.302637	743.820000
3247.418148	739.780000
3248.534973	749.920000
3249.648689	743.710000
3250.765194	750.860000
3251.880065	746.940000
3252.991827	746.300000
3254.103429	740.950000
3255.216347	740.480000
3256.329105	741.250000
3257.438757	743.630000
3258.549724	745.940000
3259.660532	744.500000
3260.769708	734.210000
3261.877254	744.880000
3262.986113	743.290000
3264.094815	741.730000
3265.200414	744.850000
3266.307327	748.610000
3267.412611	743.630000
3268.519209	742.730000
3269.622707	744.020000
3270.727520	746.140000
3271.832175	741.920000
3272.933731	739.220000
3274.035131	738.430000
3275.137845	748.450000
3276.240403	736.300000
3277.339864	733.420000
3278.442109	739.550000
3279.541258	747.890000
3280.638783	738.470000
3281.736152	744.470000
3282.836303	737.020000
3283.933362	740.280000
3285.030265	741.500000
3286.127013	739.570000
3287.219203	737.970000
3288.315641	739.590000
3289.410457	737.210000
3290.505119	737.990000
3291.598159	737.420000
3292.691044	743.590000
3293.782310	737.370000
3294.874887	740.600000
3295.965845	741.010000
3297.055183	739.170000
3298.144368	737.630000
3299.234866	736.040000
3300.322279	741.000000
3301.409539	745.440000
3302.498112	745.120000
3303.586533	741.980000
3304.670406	743.450000
3305.758521	738.470000
3306.843554	740.710000
3307.926972	736.600000
3309.011702	732.690000
3310.094817	740.480000
3311.179243	738.850000
3312.260591	741.180000
3313.343251	737.220000
3314.424297	737.810000
3315.505192	740.450000
3316.584473	740.710000
3317.663604	739.900000
3318.744047	740.550000
3319.821415	741.000000
3320.900095	740.510000
3321.977163	740.650000
3323.054082	746.240000
3324.129389	741.450000
3325.204547	735.580000
3326.281016	741.260000
3327.354415	735.230000
3328.427665	742.210000
3329.502225	740.320000
3330.575177	734.970000
3331.646520	740.660000
3332.719174	741.420000
3333.788762	743.600000
3334.859660	742.210000
3335.928951	738.080000
3336.999553	741.800000
3338.068548	741.330000
3339.135937	737.670000
3340.201721	735.620000
3341.271731	735.670000
3342.338678	732.630000
3343.402563	730.790000
3344.469216	732.680000
3345.534264	731.880000
3346.597709	736.130000
3347.661008	737.500000
3348.724160	739.460000
3349.787166	732.140000
3350.850026	734.650000
3351.911284	733.170000
3352.969485	736.810000
3354.031906	735.160000
3355.091272	736.420000
3356.150492	734.940000
3357.211022	739.980000
3358.267042	732.090000
3359.325826	735.450000
3360.380103	735.320000
3361.437144	735.710000
3362.492586	734.970000
3363.549338	740.290000
3364.604491	738.100000
3365.658047	742.430000
3366.710007	732.510000
3367.764728	734.840000
3368.816400	736.710000
3369.867929	734.370000
3370.920766	734.680000
3371.970556	739.310000
3373.021655	730.930000
3374.069708	739.460000
3375.120520	734.950000
3376.168288	734.260000
3377.215913	741.310000
3378.263395	735.900000
3379.309285	731.710000
3380.356483	737.210000
3381.400639	742.850000
3382.447553	735.640000
3383.492875	735.100000
3384.535156	736.990000
3385.577297	737.400000
3386.620745	739.560000
3387.664052	734.670000
3388.705770	738.310000
3389.747346	736.580000
3390.788781	737.690000
3391.828628	736.560000
3392.866886	737.170000
3393.906452	734.500000
3394.945878	739.610000
3395.983716	740.560000
3397.019967	740.090000
3398.056079	732.680000
3399.093498	737.000000
3400.127884	733.990000
3401.163577	741.680000
3402.199131	739.230000
3403.231654	732.890000
3404.266930	737.050000
3405.299175	732.340000
3406.331282	732.670000
3407.361805	735.050000
3408.393635	732.940000
3409.425327	733.710000
3410.453991	735.900000
3411.482518	737.940000
3412.512351	731.440000
3413.542047	742.670000
3414.568717	734.230000
3415.596694	733.660000
3416.621646	732.450000
3417.649348	736.520000
3418.674027	727.950000
3419.700012	734.420000
3420.724417	734.990000
3421.748686	734.250000
3422.771376	732.400000
3423.793930	734.210000
3424.817790	730.230000
3425.838630	735.630000
3426.859334	727.610000
3427.881345	734.320000
3428.900337	735.380000
3429.919193	732.290000
3430.939356	726.060000
3431.956502	739.590000
