-117.300111	10.520000
-114.630511	10.280000
-111.963846	20.300000
-109.297933	8.650000
-106.634952	10.760000
-103.970542	13.160000
-101.309062	8.550000
-98.646153	13.830000
-95.988350	15.860000
-93.329118	12.260000
-90.670634	16.500000
-88.015074	9.910000
-85.358086	16.160000
-82.706196	12.050000
-80.052875	18.440000
-77.402475	10.020000
-74.750645	18.840000
-72.103906	12.100000
-69.455738	15.850000
-66.808312	11.600000
-64.163800	11.990000
-61.517860	17.820000
-58.877001	12.130000
-56.234713	17.830000
-53.595334	18.700000
-50.954525	9.610000
-48.314457	18.040000
-45.679461	16.920000
-43.043037	19.440000
-40.409515	14.850000
-37.774565	19.660000
-35.144680	18.230000
-32.511203	19.250000
-29.882788	17.590000
-27.255107	30.300000
-24.625997	20.310000
-22.001944	25.050000
-19.374302	25.000000
-16.751713	31.670000
-14.129856	44.580000
-11.508729	72.010000
-8.888332	166.520000
-6.270824	502.750000
-3.651887	1490.270000
-1.035835	3171.410000
1.579488	3243.060000
4.194084	1458.920000
6.805797	132.020000
9.418939	41.010000
12.027047	24.820000
14.638737	36.190000
17.245396	21.110000
19.853483	26.200000
22.460846	19.090000
25.063184	25.100000
27.669100	15.850000
30.269994	14.990000
32.872316	17.560000
35.469621	20.400000
38.070501	13.380000
40.666366	23.860000
43.263660	16.350000
45.860234	13.910000
48.451799	15.250000
51.044792	24.050000
53.634924	21.720000
56.226484	17.530000
58.815184	23.050000
61.405311	23.570000
63.990439	21.130000
66.576995	24.410000
69.162837	17.060000
71.745825	24.290000
74.330239	25.880000
76.907525	17.300000
79.488377	26.980000
82.066380	26.790000
84.643673	18.090000
87.222392	28.140000
89.796129	24.160000
92.371294	27.250000
94.943615	27.190000
97.515228	30.120000
100.084001	27.850000
102.654201	35.870000
105.221563	36.470000
107.790350	37.440000
110.356301	37.850000
112.919417	53.820000
115.486089	56.720000
118.043540	75.290000
120.606676	92.580000
123.164852	129.620000
125.726583	188.330000
128.283357	275.860000
130.841558	400.030000
133.394805	595.600000
135.947355	763.270000
138.503455	816.160000
141.054607	860.220000
143.605062	894.490000
146.154819	915.760000
148.701757	936.170000
151.248000	945.560000
153.795668	957.330000
156.342640	955.190000
158.884677	950.090000
161.426020	945.340000
163.966670	951.580000
166.508746	940.020000
169.048010	947.420000
171.584466	940.980000
174.120230	944.960000
176.657420	940.640000
179.193919	945.310000
181.727612	938.450000
184.258501	941.850000
186.788703	939.740000
189.320329	939.060000
191.849154	932.980000
194.375180	936.610000
196.900520	937.800000
199.427285	937.820000
201.951254	936.460000
204.474538	943.730000
206.997137	938.330000
209.516943	941.410000
212.036066	933.500000
214.554506	938.230000
217.074370	939.070000
219.587233	948.250000
222.103627	936.670000
224.619339	944.300000
227.130161	940.700000
229.642408	945.040000
232.151873	947.680000
234.660659	949.850000
237.168766	948.570000
239.678298	958.150000
242.182949	948.430000
244.686924	951.130000
247.192323	953.330000
249.692847	957.070000
252.196895	943.320000
254.693971	948.680000
257.194571	954.930000
259.692399	953.870000
262.189554	949.530000
264.686036	955.950000
267.177655	960.310000
269.672794	964.800000
272.165166	963.560000
274.656868	963.290000
277.145807	960.820000
279.636170	964.350000
282.123770	957.310000
284.608611	970.030000
287.096967	958.000000
289.578383	967.450000
292.063313	971.410000
294.543398	971.270000
297.026995	971.040000
299.505749	972.300000
301.985927	982.520000
304.463352	975.520000
306.940114	975.590000
309.416213	986.830000
311.889563	982.960000
314.362251	1012.950000
316.834278	1028.670000
319.305644	1065.320000
321.774265	1075.900000
324.242228	1078.010000
326.711612	1042.090000
329.176174	1019.400000
331.644240	1013.460000
334.107486	1008.290000
336.570074	1001.740000
339.032006	1004.050000
341.493281	995.890000
343.951822	998.440000
346.411785	992.140000
348.869015	995.770000
351.325591	991.930000
353.781513	997.710000
356.234705	995.750000
358.689320	1000.360000
361.139133	996.130000
363.592442	997.110000
366.040953	990.320000
368.488812	998.440000
370.938094	991.180000
373.382582	1001.780000
375.828492	987.890000
378.273752	987.920000
380.716294	986.630000
383.158188	997.960000
385.599435	992.550000
388.037966	995.820000
390.477919	988.980000
392.915158	995.290000
395.349685	996.420000
397.787700	996.920000
400.220938	995.230000
402.655597	989.860000
405.085484	991.430000
407.518856	998.690000
409.947458	996.920000
412.375418	999.710000
414.804800	994.200000
417.229416	1000.400000
419.655454	993.160000
422.080851	1000.510000
424.505608	994.890000
426.925607	998.480000
429.347027	1005.630000
431.765750	1010.020000
434.185894	1001.470000
436.603343	1000.090000
439.022212	998.790000
441.438388	1007.290000
443.849816	1001.660000
446.264722	999.800000
448.676937	1008.760000
451.088518	1006.240000
453.499465	998.380000
455.907726	999.660000
458.315354	998.990000
460.722350	996.560000
463.128715	982.300000
465.532397	990.520000
467.935449	987.630000
470.337871	982.920000
472.739663	980.590000
475.138778	981.810000
477.539312	978.350000
479.939217	974.800000
482.334399	977.560000
484.733048	977.930000
487.126977	977.890000
489.520280	984.420000
491.912957	966.790000
494.305009	971.340000
496.698479	957.930000
499.087237	943.450000
501.473329	939.990000
503.860841	933.360000
506.247730	926.760000
508.631955	920.880000
511.017598	904.270000
513.400580	901.980000
515.780901	896.500000
518.162641	893.430000
520.541722	886.910000
522.922222	886.820000
525.300064	882.330000
527.675251	881.480000
530.049820	870.730000
532.425807	876.770000
534.799142	868.630000
537.173894	872.000000
539.543961	864.550000
541.913412	868.660000
544.284281	867.700000
546.650470	866.410000
549.018077	868.630000
551.383038	867.760000
553.747386	861.210000
556.111121	866.170000
558.476274	863.170000
560.836755	864.690000
563.198654	858.670000
565.557912	855.980000
567.914533	852.140000
570.274598	858.360000
572.627972	854.410000
574.984791	854.920000
577.338975	851.560000
579.692551	852.730000
582.045518	847.750000
584.395853	851.420000
586.747606	850.450000
589.092682	854.950000
591.443222	853.720000
593.787088	851.590000
596.136416	850.540000
598.481095	845.460000
600.823150	843.010000
603.166622	850.580000
605.507471	841.300000
607.847718	850.340000
610.185344	843.610000
612.526405	842.200000
614.862828	838.260000
617.200668	839.350000
619.535891	830.190000
621.868498	835.070000
624.202521	832.890000
626.533930	837.820000
628.864741	834.420000
631.194955	835.460000
633.524570	830.970000
635.849563	825.200000
638.179996	829.420000
640.505809	832.380000
642.829014	835.620000
645.153636	829.680000
647.475652	827.210000
649.797074	831.060000
652.115894	830.760000
654.436129	822.180000
656.755771	824.640000
659.072812	832.950000
661.389261	825.830000
663.703112	831.000000
666.018379	823.860000
668.331049	834.960000
670.645134	825.310000
672.954619	825.550000
675.265520	827.740000
677.573828	827.790000
679.881548	824.730000
682.190682	828.010000
684.495224	820.330000
686.799180	827.420000
689.102550	823.980000
691.407334	825.810000
693.707532	817.620000
696.009144	817.620000
698.310172	813.850000
700.606617	820.300000
702.904478	821.520000
705.201755	820.390000
707.498449	817.480000
709.790567	812.290000
712.086096	817.410000
714.377051	819.700000
716.669421	816.730000
718.959216	818.910000
721.248430	818.110000
723.537065	817.830000
725.823127	820.220000
728.110604	823.940000
730.395509	821.460000
732.679837	825.510000
734.961596	822.300000
737.244769	823.030000
739.527365	823.030000
741.805405	823.220000
744.084860	823.700000
746.363738	825.520000
748.642042	823.420000
750.915796	823.820000
753.190963	824.840000
755.465557	831.620000
757.737592	830.760000
760.011040	823.690000
762.281930	829.320000
764.550264	829.520000
766.820011	823.360000
769.087204	831.960000
771.353826	833.290000
773.619878	832.280000
775.883379	837.490000
778.148293	836.110000
780.412637	829.810000
782.672452	833.310000
784.933679	834.940000
787.194339	836.550000
789.452453	836.180000
791.708022	832.440000
793.966982	828.670000
796.219443	839.850000
798.477270	832.440000
800.730579	834.360000
802.981348	827.180000
805.233529	833.520000
807.483171	831.520000
809.734226	831.690000
811.980769	834.420000
814.228724	834.440000
816.474145	825.810000
818.720977	827.100000
820.967248	823.390000
823.209014	820.840000
825.454164	823.610000
827.692841	817.280000
829.934900	816.970000
832.172461	822.540000
834.411434	818.490000
836.647880	810.780000
838.885737	810.390000
841.121069	815.040000
843.353878	810.500000
845.588098	820.210000
847.819795	804.240000
850.050938	822.410000
852.281526	811.290000
854.511560	818.580000
856.741040	805.820000
858.966038	821.610000
861.194411	808.880000
863.418304	811.760000
865.643609	811.180000
867.864438	813.140000
870.088639	810.610000
872.308367	815.110000
874.529505	812.850000
876.750094	814.850000
878.968172	807.570000
881.187660	815.390000
883.402682	814.350000
885.617157	818.030000
887.831083	814.930000
890.044463	810.810000
892.257295	809.220000
894.469581	811.340000
896.679364	809.660000
898.888602	816.050000
901.097295	814.980000
903.303489	813.760000
905.511092	812.450000
907.716197	815.420000
909.920759	812.220000
912.122826	819.700000
914.326302	816.870000
916.527284	814.240000
918.727724	820.290000
920.929573	818.830000
923.125031	815.650000
925.323848	818.820000
927.518226	820.680000
929.715962	817.100000
931.909262	816.260000
934.103971	824.600000
936.296194	815.860000
938.487878	824.380000
940.679025	819.630000
942.867689	827.310000
945.055817	822.030000
947.241464	835.950000
949.430463	831.200000
951.615039	835.020000
953.799080	831.900000
955.986471	836.580000
958.165558	837.480000
960.347996	840.670000
962.529900	840.330000
964.709329	844.200000
966.886286	839.930000
969.064651	852.200000
971.244423	851.270000
973.417846	850.570000
975.594615	848.110000
977.766977	861.070000
979.940747	859.420000
982.110113	854.540000
984.282823	858.160000
986.453068	859.900000
988.622784	861.270000
990.791971	868.270000
992.956761	865.210000
995.124892	875.840000
997.288629	868.790000
999.453772	874.730000
1001.616456	877.130000
1003.778615	877.400000
1005.938317	880.120000
1008.097494	881.130000
1010.258078	879.050000
1012.416208	877.940000
1014.573813	882.460000
1016.730895	887.970000
1018.887453	876.490000
1021.039632	888.600000
1023.193218	880.630000
1025.346282	891.220000
1027.496897	884.550000
1029.648919	896.670000
1031.796567	890.670000
1033.947547	898.080000
1036.094156	896.410000
1038.240246	900.030000
1040.385818	896.890000
1042.532795	901.750000
1044.673483	903.740000
1046.817501	899.280000
1048.959078	902.230000
1051.100139	910.770000
1053.242604	904.310000
1055.378790	907.880000
1057.518301	907.030000
1059.653458	907.480000
1061.791939	901.790000
1063.926066	901.940000
1066.059680	903.290000
1068.194699	899.460000
1070.325368	908.920000
1072.457442	905.310000
1074.587087	899.690000
1076.716220	902.020000
1078.844841	895.930000
1080.972951	897.170000
1083.098635	890.840000
1085.223809	893.620000
1087.350387	889.390000
1089.472627	892.120000
1091.596272	879.890000
1093.715582	892.830000
1095.840122	880.040000
1097.958416	887.830000
1100.078115	879.150000
1102.195395	882.070000
1104.312169	877.880000
1106.428436	886.630000
1108.542287	878.150000
1110.657543	877.010000
1112.768475	871.190000
1114.882720	876.030000
1116.992644	869.820000
1119.103972	872.860000
1121.214795	868.390000
1123.321302	875.600000
1125.431119	866.880000
1127.536621	865.220000
1129.643526	870.920000
1131.744216	869.090000
1133.850118	868.520000
1135.951711	873.040000
1138.054707	866.890000
1140.157202	866.120000
1142.253490	862.980000
1144.354986	869.000000
1146.452178	862.900000
1148.548873	867.130000
1150.645069	867.850000
1152.740768	872.900000
1154.835968	870.060000
1156.928772	871.970000
1159.022979	870.540000
1161.110994	875.000000
1163.204207	865.990000
1165.291232	873.990000
1167.381556	873.300000
1169.467593	874.220000
1171.556927	872.920000
1173.640080	872.150000
1175.724635	872.300000
1177.810592	870.070000
1179.892267	867.260000
1181.975344	870.260000
1184.056035	874.380000
1186.136234	872.220000
1188.215942	860.360000
1190.295159	874.210000
1192.371994	862.580000
1194.446448	872.110000
1196.524193	867.050000
1198.597669	870.000000
1200.672545	862.170000
1202.743154	865.860000
1204.815164	863.040000
1206.884799	868.960000
1208.955834	862.840000
1211.026381	866.510000
1213.092667	863.400000
1215.160354	874.230000
1217.225669	861.630000
1219.292384	864.390000
1221.354843	867.740000
1223.420587	867.070000
1225.482077	866.150000
1227.544968	869.480000
1229.605491	867.390000
1231.665530	873.480000
1233.725087	871.240000
1235.782278	875.330000
1237.838988	875.260000
1239.893334	882.850000
1241.950962	867.920000
1244.006227	879.280000
1246.057251	879.500000
1248.109675	872.290000
1250.161619	879.500000
1252.211205	874.230000
1254.260312	883.880000
1256.308941	874.790000
1258.357091	879.600000
1260.404762	880.050000
1262.448203	880.100000
1264.494920	889.750000
1266.539283	883.290000
1268.583170	884.520000
1270.624705	882.080000
1272.663891	879.500000
1274.706350	880.560000
1276.744586	885.650000
1278.784221	883.540000
1280.823381	883.620000
1282.858322	883.940000
1284.894662	891.490000
1286.928658	885.970000
1288.964051	896.700000
1290.995232	896.870000
1293.027810	898.690000
1295.059917	897.740000
1297.089683	902.610000
1299.120847	902.570000
1301.147803	905.370000
1303.176157	908.590000
1305.200307	917.810000
1307.227721	917.730000
1309.250933	925.610000
1311.275543	918.360000
1313.297819	926.720000
1315.321492	927.470000
1317.342832	940.530000
1319.363704	938.740000
1321.384109	947.450000
1323.400321	948.340000
1325.417930	958.280000
1327.433211	954.610000
1329.451751	971.530000
1331.466102	961.390000
1333.478127	972.680000
1335.493409	974.680000
1337.504506	979.600000
1339.517000	982.140000
1341.525311	990.240000
1343.536877	986.440000
1345.542405	999.010000
1347.551188	990.320000
1349.555793	986.260000
1351.563652	984.960000
1353.571049	986.220000
1355.572415	973.450000
1357.575177	977.730000
1359.577480	965.460000
1361.579323	956.010000
1363.580706	948.600000
1365.579776	950.160000
1367.578387	934.550000
1369.576540	931.820000
1371.574234	924.640000
1373.567766	921.370000
1375.562694	912.690000
1377.557164	910.250000
1379.551178	907.770000
1381.542885	905.570000
1383.534137	900.640000
1385.523083	913.440000
1387.513424	899.760000
1389.503310	892.050000
1391.490892	897.760000
1393.478021	898.040000
1395.462848	898.790000
1397.449070	901.100000
1399.432992	885.830000
1401.416461	902.570000
1403.399477	897.920000
1405.380196	903.740000
1407.362309	889.210000
1409.342126	893.480000
1411.321491	882.000000
1413.296718	886.100000
1415.275183	884.580000
1417.251355	888.740000
1419.227078	882.870000
1421.202351	888.970000
1423.175333	882.700000
1425.147867	891.040000
1427.119953	880.470000
1429.091592	890.890000
1431.059102	879.310000
1433.031686	890.310000
1434.996465	890.560000
1436.966315	889.200000
1438.932042	890.080000
1440.899161	891.460000
1442.863997	886.010000
1444.824713	889.800000
1446.790497	882.060000
1448.750326	892.110000
1450.711549	891.820000
1452.674164	891.620000
1454.632664	890.600000
1456.590721	897.830000
1458.548337	889.980000
1460.505510	895.740000
1462.460408	898.090000
1464.416699	900.310000
1466.370715	895.320000
1468.324290	897.490000
1470.275593	894.560000
1472.228289	902.290000
1474.178712	892.710000
1476.128697	895.400000
1478.078243	901.450000
1480.025520	908.250000
1481.970529	892.470000
1483.916931	903.720000
1485.862895	899.390000
1487.808422	913.700000
1489.751683	902.720000
1491.694509	910.500000
1493.635071	908.160000
1495.577024	905.140000
1497.516715	916.870000
1499.455972	918.450000
1501.394793	913.400000
1503.331355	918.360000
1505.269308	919.720000
1507.205002	924.110000
1509.140263	928.060000
1511.073268	930.760000
1513.005840	930.430000
1514.937980	935.010000
1516.869688	941.620000
1518.799142	950.740000
1520.729987	954.660000
1522.660400	957.200000
1524.586741	960.650000
1526.514473	974.470000
1528.439954	981.340000
1530.365006	988.290000
1532.289629	997.260000
1534.213823	1006.630000
1536.135769	1021.620000
1538.059106	1036.080000
1539.980196	1060.530000
1541.899043	1076.730000
1543.819278	1104.700000
1545.737271	1132.430000
1547.654837	1165.910000
1549.570161	1225.990000
1551.486875	1282.640000
1553.399534	1360.960000
1555.315397	1441.500000
1557.229020	1539.450000
1559.140406	1653.400000
1561.053180	1778.470000
1562.961905	1931.090000
1564.872019	2073.300000
1566.781710	2161.030000
1568.690978	2239.450000
1570.598012	2226.940000
1572.502813	2174.740000
1574.409003	2105.430000
1576.312961	1978.350000
1578.216498	1834.350000
1580.119615	1691.720000
1582.020502	1577.320000
1583.922778	1459.890000
1585.822826	1368.200000
1587.724261	1296.100000
1589.621663	1229.460000
1591.518646	1188.650000
1593.415211	1142.950000
1595.313164	1125.430000
1597.205282	1105.590000
1599.100593	1084.750000
1600.995487	1072.040000
1602.888159	1066.590000
1604.780414	1054.960000
1606.670450	1044.380000
1608.560070	1038.200000
1610.449275	1031.620000
1612.338065	1017.020000
1614.224637	998.030000
1616.112597	982.160000
1617.996540	965.130000
1619.881870	949.270000
1621.766787	943.370000
1623.649490	930.810000
1625.533580	921.900000
1627.413658	911.360000
1629.295124	914.740000
1631.174379	903.970000
1633.055020	893.350000
1634.929857	891.590000
1636.809675	890.290000
1638.685489	882.860000
1640.560892	884.240000
1642.437681	882.450000
1644.308674	878.400000
1646.182848	872.970000
1648.053023	871.580000
1649.926380	869.370000
1651.797533	874.560000
1653.666484	863.680000
1655.536820	870.650000
1657.403164	859.600000
1659.270893	863.630000
1661.136423	856.660000
1663.003339	857.550000
1664.866266	848.380000
1666.730578	850.290000
1668.592694	851.570000
1670.454405	841.290000
1672.317502	843.790000
1674.178403	843.910000
1676.037112	840.350000
1677.895417	842.020000
1679.755107	836.030000
1681.609029	840.550000
1683.466125	835.860000
1685.322818	838.820000
1687.175534	839.270000
1689.031422	839.870000
1690.883336	838.110000
1692.734849	831.910000
1694.585961	830.040000
1696.436673	830.140000
1698.286984	829.240000
1700.135110	824.890000
1701.984621	826.590000
1703.828383	828.810000
1705.677094	829.290000
1707.520059	822.590000
1709.366191	830.100000
1711.208360	828.970000
1713.053695	829.720000
1714.893289	828.600000
1716.734267	822.980000
1718.576628	834.970000
1720.415033	831.240000
1722.254821	830.280000
1724.092434	833.120000
1725.929651	825.770000
1727.764695	826.880000
1729.601122	827.130000
1731.435377	822.410000
1733.269237	822.800000
1735.102703	825.850000
1736.932224	822.090000
1738.764903	821.390000
1740.593638	822.170000
1742.425530	819.510000
1744.253480	822.270000
1746.081039	818.280000
1747.908205	823.300000
1749.734980	817.690000
1751.561363	820.860000
1753.383810	813.110000
1755.209412	816.140000
1757.031079	817.150000
1758.854128	817.950000
1760.675015	813.660000
1762.495514	814.320000
1764.317394	809.830000
1766.133574	817.530000
1767.952906	810.820000
1769.768311	816.230000
1771.586866	814.180000
1773.401496	816.780000
1775.215739	812.180000
1777.029596	813.440000
1778.843066	814.370000
1780.654383	811.040000
1782.467080	803.520000
1784.279392	819.580000
1786.087786	806.870000
1787.897560	816.150000
1789.703420	807.480000
1791.512425	811.280000
1793.317517	810.110000
1795.123990	812.330000
1796.930079	810.250000
1798.732257	814.420000
1800.537580	807.440000
1802.338994	810.650000
1804.141788	811.080000
1805.940676	806.550000
1807.740945	805.580000
1809.540832	813.060000
1811.338577	810.030000
1813.135942	805.140000
1814.932927	811.030000
1816.729531	811.080000
1818.523996	807.770000
1820.319840	800.180000
1822.110029	804.620000
1823.905115	814.610000
1825.694549	804.110000
1827.487119	810.630000
1829.277554	805.480000
1831.065855	810.130000
1832.857291	806.600000
1834.643081	806.970000
1836.430251	804.070000
1838.215289	807.650000
1840.003461	808.230000
1841.787747	809.460000
1843.569903	807.260000
1845.353439	807.190000
1847.134846	808.130000
1848.917632	810.580000
1850.696537	805.520000
1852.476822	812.840000
1854.254980	809.790000
1856.034517	803.170000
1857.811929	803.110000
1859.587217	810.130000
1861.363883	802.820000
1863.138427	808.080000
1864.914349	809.270000
1866.684650	808.030000
1868.458079	803.250000
1870.229388	808.440000
1872.000326	803.030000
1873.772642	809.090000
1875.539344	804.520000
1877.309172	810.870000
1879.075136	808.340000
1880.844223	810.270000
1882.609449	807.070000
1884.374307	805.540000
1886.140542	807.610000
1887.902918	809.840000
1889.664927	802.190000
1891.426568	807.150000
1893.187843	807.350000
1894.948750	809.090000
1896.709291	802.890000
1898.467722	809.880000
1900.225787	803.170000
1901.981745	802.070000
1903.739079	804.040000
1905.496048	800.110000
1907.250910	800.930000
1909.003668	805.150000
1910.756061	798.500000
1912.509831	803.420000
1914.261497	798.860000
1916.011061	805.900000
1917.762000	801.410000
1919.512577	805.750000
1921.259314	801.420000
1923.007428	814.260000
1924.753442	809.860000
1926.500831	810.170000
1928.246123	803.170000
1929.989317	808.780000
1931.733886	805.190000
1933.476360	808.140000
1935.218473	807.040000
1936.960226	810.490000
1938.701619	803.640000
1940.440919	803.820000
1942.179860	809.140000
1943.918442	811.260000
1945.654933	807.560000
1947.391066	804.675000
1949.128573	801.790000
1950.862258	807.230000
1952.597318	800.050000
1954.330289	807.040000
1956.062904	807.850000
1957.795163	803.710000
1959.527065	806.060000
1961.256881	807.170000
1962.984612	809.030000
1964.713718	809.810000
1966.442469	799.870000
1968.169136	806.660000
1969.895449	802.820000
1971.623135	809.430000
1973.345285	803.580000
1975.070536	805.920000
1976.791980	808.920000
1978.516525	811.080000
1980.238989	804.770000
1981.957651	805.740000
1983.679411	806.920000
1985.397369	804.590000
1987.116700	807.350000
1988.832232	804.170000
1990.552584	807.500000
1992.269138	809.710000
1993.981895	801.600000
1995.697748	806.920000
1997.411529	806.600000
1999.124960	806.820000
2000.836320	812.260000
2002.549052	810.310000
2004.257994	804.000000
2005.970028	810.990000
2007.676554	807.610000
2009.386171	808.360000
2011.093722	809.660000
2012.800924	815.960000
2014.506061	812.250000
2016.210852	815.860000
2017.917014	810.930000
2019.619394	817.980000
2021.323145	811.320000
2023.024834	816.400000
2024.726178	810.430000
2026.427176	813.510000
2028.126113	805.350000
2029.826422	810.560000
2031.522956	807.090000
2033.220861	810.100000
2034.916707	806.230000
2036.615639	812.260000
2038.309085	807.540000
2040.003902	812.750000
2041.698377	801.180000
2043.389083	807.810000
2045.082873	803.800000
2046.772896	811.640000
2048.464290	801.950000
2050.153631	807.610000
2051.844342	807.970000
2053.531290	806.120000
2055.217899	805.430000
2056.905877	806.090000
2058.590096	803.240000
2060.275686	805.230000
2061.960936	796.570000
2063.644137	802.610000
2065.328709	797.370000
2067.007818	798.990000
2068.691712	804.500000
2070.370145	801.690000
2072.051656	799.410000
2073.729415	800.470000
2075.406838	801.860000
2077.085630	801.120000
2078.762380	798.060000
2080.437088	806.770000
2082.113165	800.430000
2083.787202	804.280000
2085.460903	801.980000
2087.134269	801.450000
2088.805596	799.630000
2090.476590	803.750000
2092.147248	794.160000
2093.817573	803.620000
2095.487564	799.080000
2097.155519	799.320000
2098.823141	803.320000
2100.488728	802.070000
2102.155684	797.500000
2103.820607	801.640000
2105.485198	800.670000
2107.147757	796.760000
2108.811684	802.140000
2110.473580	797.750000
2112.135146	800.770000
2113.796380	805.550000
2115.455586	803.050000
2117.114461	802.870000
2118.773007	801.130000
2120.431223	797.540000
2122.085715	795.610000
2123.743272	801.940000
2125.400500	800.510000
2127.054006	800.430000
2128.708880	792.350000
2130.360035	799.790000
2132.014253	798.390000
2133.664754	802.060000
2135.316621	795.560000
2136.963080	800.770000
2138.614294	798.940000
2140.261794	801.420000
2141.910661	802.240000
2143.557509	807.480000
2145.204032	802.780000
2146.850229	800.680000
2148.492718	803.590000
2150.138265	802.070000
2151.780105	800.780000
2153.425002	806.940000
2155.066194	806.600000
2156.707062	808.570000
2158.347606	796.640000
2159.986138	811.210000
2161.626036	798.490000
2163.262234	800.240000
2164.899798	800.810000
2166.537040	802.340000
2168.172272	796.520000
2169.807183	805.450000
2171.441771	804.290000
2173.076039	807.220000
2174.706613	805.200000
2176.340239	803.100000
2177.970173	800.050000
2179.601472	804.600000
2181.230766	799.480000
2182.859741	804.400000
2184.488396	804.430000
2186.116732	804.950000
2187.743066	799.580000
2189.369081	805.090000
2190.993094	803.810000
2192.618473	803.550000
2194.241851	800.340000
2195.866594	804.710000
2197.487656	805.540000
2199.108401	804.920000
2200.730511	797.720000
2202.350623	795.610000
2203.968738	800.680000
2205.586538	805.280000
2207.204023	799.550000
2208.821192	803.180000
2210.438046	799.750000
2212.054584	802.430000
2213.669130	801.570000
2215.281683	809.700000
2216.895600	800.380000
2218.507526	803.110000
2220.120815	799.450000
2221.732114	800.510000
2223.341423	790.200000
2224.952096	801.180000
2226.560780	794.100000
2228.169151	806.630000
2229.775536	798.930000
2231.383284	800.020000
2232.989045	800.310000
2234.594495	799.480000
2236.197960	799.570000
2237.802788	797.210000
2239.405632	797.440000
2241.006493	797.640000
2242.608717	801.300000
2244.208959	800.960000
2245.810563	800.230000
2247.408514	803.660000
2249.007828	796.930000
2250.605162	802.030000
2252.202188	801.510000
2253.800576	801.500000
2255.395315	799.050000
2256.988077	802.510000
2258.582202	795.990000
2260.177688	800.090000
2261.769529	801.790000
2263.361064	805.950000
2264.953961	794.150000
2266.541548	803.080000
2268.133831	800.980000
2269.720808	799.090000
2271.310812	795.710000
2272.895512	801.000000
2274.484906	802.840000
2276.068998	798.730000
2277.654450	802.170000
2279.237934	804.120000
2280.824443	793.670000
2282.407319	803.800000
2283.989892	798.930000
2285.572161	800.580000
2287.150800	794.030000
2288.732464	803.170000
2290.310499	791.620000
2291.891557	802.040000
2293.468988	802.840000
2295.044456	803.640000
2296.622946	789.380000
2298.197812	796.760000
2299.772377	795.240000
2301.346642	800.770000
2302.920606	795.910000
2304.494269	796.480000
2306.067633	797.770000
2307.637378	795.700000
2309.206824	791.770000
2310.779288	801.140000
2312.346478	794.830000
2313.916686	798.260000
2315.483279	793.420000
2317.051232	801.070000
2318.617229	794.070000
2320.182929	804.210000
2321.748331	802.970000
2323.311780	798.800000
2324.876588	798.600000
2326.437788	818.590000
2328.002002	823.880000
2329.560954	824.160000
2331.122921	814.260000
2332.682936	802.970000
2334.242657	794.180000
2335.800428	789.730000
2337.357904	792.890000
2338.915086	798.180000
2340.470320	790.560000
2342.025261	799.830000
2343.579907	798.850000
2345.134260	800.950000
2346.688320	797.950000
2348.242085	798.610000
2349.793907	796.220000
2351.343785	797.780000
2352.896671	798.710000
2354.444315	800.690000
2355.994966	797.120000
2357.542026	797.810000
2359.090444	792.170000
2360.638571	798.480000
2362.183109	797.560000
2363.729005	799.680000
2365.272963	795.630000
2366.818278	801.510000
2368.360008	799.720000
2369.903095	799.630000
2371.444246	797.480000
2372.985108	802.780000
2374.525681	796.330000
2376.065965	804.540000
2377.605960	796.650000
2379.142377	800.650000
2380.681795	802.340000
2382.217636	805.980000
2383.754833	795.450000
2385.288455	807.170000
2386.825077	801.420000
2388.359769	804.610000
2389.892531	807.180000
2391.425006	806.060000
2392.955553	808.860000
2394.489098	806.600000
2396.017432	802.670000
2397.547123	803.690000
2399.076527	806.530000
2400.605647	809.370000
2402.134482	804.700000
2403.658111	814.640000
2405.186376	810.010000
2406.709439	814.160000
2408.237135	813.880000
2409.757992	817.900000
2411.283482	814.210000
2412.805411	818.120000
2414.328696	818.580000
2415.850059	821.890000
2417.369503	816.240000
2418.890302	829.570000
2420.409183	818.640000
2421.927781	830.860000
2423.444462	826.790000
2424.962497	832.220000
2426.480251	823.370000
2427.994454	828.640000
2429.508376	829.890000
2431.022018	827.530000
2432.537015	824.090000
2434.048463	831.460000
2435.561266	826.590000
2437.072155	831.350000
2438.582766	832.640000
2440.091465	830.120000
2441.603150	833.220000
2443.111292	835.790000
2444.619156	828.930000
2446.126742	831.280000
2447.630787	833.340000
2449.137817	831.260000
2450.642940	828.400000
2452.147784	834.990000
2453.650722	825.170000
2455.153384	828.700000
2456.655769	826.080000
2458.156249	826.840000
2459.658082	823.770000
2461.158010	828.630000
2462.657663	815.810000
2464.157041	810.280000
2465.654516	815.390000
2467.150089	815.910000
2468.648642	814.960000
2470.143667	821.240000
2471.640044	812.480000
2473.132895	811.530000
2474.627099	812.110000
2476.121029	812.490000
2477.611435	811.210000
2479.104819	809.780000
2480.596305	805.750000
2482.085894	810.150000
2483.575211	809.000000
2485.062632	803.970000
2486.553029	806.130000
2488.039908	811.780000
2489.528138	810.430000
2491.012851	809.470000
2492.497295	801.610000
2493.983089	809.130000
2495.466992	805.970000
2496.952245	809.150000
2498.432365	803.780000
2499.915458	804.600000
2501.396660	806.620000
2502.877593	809.970000
2504.356637	807.150000
2505.835412	806.250000
2507.313919	806.890000
2508.792158	813.290000
2510.270128	810.800000
2511.744593	807.210000
2513.222028	805.220000
2514.695959	817.020000
2516.171240	812.300000
2517.646254	812.040000
2519.117768	811.500000
2520.590631	813.620000
2522.061612	807.780000
2523.533943	810.200000
2525.001160	813.090000
2526.471344	816.440000
2527.939647	811.780000
2529.407685	818.440000
2530.875458	810.730000
2532.342966	814.950000
2533.810209	813.090000
2535.273960	822.210000
2536.739061	817.630000
2538.202285	824.650000
2539.666859	815.700000
2541.127943	811.340000
2542.590377	814.150000
2544.052548	820.520000
2545.511233	821.990000
2546.974490	826.320000
2548.432650	815.890000
2549.892159	827.320000
2551.346574	819.540000
2552.805560	824.220000
2554.262674	818.920000
2555.717917	826.080000
2557.172898	817.750000
2558.626011	821.740000
2560.080472	825.160000
2561.533063	825.970000
2562.985395	826.770000
2564.435860	822.830000
2565.889280	823.130000
2567.337618	825.700000
2568.788912	823.940000
2570.238339	828.440000
2571.684294	831.010000
2573.133204	835.690000
2574.578644	831.060000
2576.025431	835.240000
2577.470356	834.230000
2578.915022	836.630000
2580.361036	838.650000
2581.803584	840.050000
2583.247479	834.040000
2584.687909	843.990000
2586.129686	838.680000
2587.569604	839.160000
2589.010869	841.070000
2590.448672	845.040000
2591.889425	839.640000
2593.325116	841.300000
2594.763756	845.770000
2596.200538	847.550000
2597.635465	846.640000
2599.073339	848.050000
2600.506156	854.810000
2601.940320	847.450000
2603.372630	851.210000
2604.806286	852.290000
2606.238089	856.400000
2607.669638	853.850000
2609.100935	852.280000
2610.530379	868.690000
2611.959571	868.350000
2613.386913	873.540000
2614.815600	869.490000
2616.244036	869.560000
2617.669024	881.070000
2619.095359	880.820000
2620.519845	879.300000
2621.945677	885.360000
2623.368065	894.700000
2624.791799	895.770000
2626.213686	894.910000
2627.635324	907.890000
2629.055116	905.160000
2630.476254	908.340000
2631.897142	911.560000
2633.314592	923.270000
2634.734981	922.520000
2636.151933	937.260000
2637.568636	934.070000
2638.985091	938.820000
2640.401298	936.030000
2641.817257	951.110000
2643.231375	952.440000
2644.645245	956.500000
2646.057277	959.080000
2647.470652	968.530000
2648.880598	973.110000
2650.293480	980.890000
2651.702933	991.260000
2653.112140	996.470000
2654.519511	1008.220000
2655.929816	1011.370000
2657.338286	1024.990000
2658.744920	1024.490000
2660.151309	1030.950000
2661.555864	1044.390000
2662.961763	1052.670000
2664.365829	1059.730000
2665.769650	1061.300000
2667.173227	1073.220000
2668.574973	1083.120000
2669.978062	1095.360000
2671.377733	1104.090000
2672.778748	1101.420000
2674.176347	1108.040000
2675.576876	1115.110000
2676.973989	1118.530000
2678.372446	1126.810000
2679.769076	1125.030000
2681.165463	1126.370000
2682.561608	1127.430000
2683.955928	1135.040000
2685.351589	1121.510000
2686.743842	1128.310000
2688.137437	1121.100000
2689.529208	1124.610000
2690.922322	1119.460000
2692.313612	1122.000000
2693.703079	1126.140000
2695.092306	1122.220000
2696.481294	1113.950000
2697.871623	1117.890000
2699.256969	1111.190000
2700.645238	1110.280000
2702.031687	1107.590000
2703.417897	1094.520000
2704.803868	1090.000000
2706.186441	1097.580000
2707.570356	1085.030000
2708.954033	1076.710000
2710.337471	1067.980000
2711.717515	1059.100000
2713.098899	1050.580000
2714.478469	1043.670000
2715.859379	1031.960000
2717.238475	1031.200000
2718.615757	1017.220000
2719.994380	1006.740000
2721.371190	994.730000
2722.747763	985.160000
2724.124101	971.110000
2725.498628	965.300000
2726.874495	955.710000
2728.246975	947.750000
2729.622371	933.070000
2730.992807	935.770000
2732.364584	922.760000
2733.736126	908.630000
2735.105860	901.320000
2736.476935	895.290000
2737.846201	883.390000
2739.215234	883.470000
2740.582461	879.240000
2741.949455	880.110000
2743.316215	870.350000
2744.682744	861.630000
2746.047467	858.560000
2747.411958	859.200000
2748.776218	854.770000
2750.140245	852.080000
2751.504041	840.710000
2752.864463	850.900000
2754.227795	833.650000
2755.586185	840.010000
2756.947485	830.910000
2758.305415	832.140000
2759.666253	829.890000
2761.025292	828.960000
2762.380962	829.890000
2763.739540	827.280000
2765.094751	821.110000
2766.449733	820.330000
2767.802919	820.360000
2769.159011	825.770000
2770.511738	816.750000
2771.864238	821.700000
2773.216509	816.740000
2774.570119	813.770000
2775.920367	807.270000
2777.268821	817.610000
2778.620181	811.720000
2779.968181	809.980000
2781.317519	814.270000
2782.665066	817.110000
2784.012385	808.110000
2785.359478	811.200000
2786.704780	808.210000
2788.049855	803.550000
2789.394705	800.080000
2790.739329	799.670000
2792.080601	804.470000
2793.423211	806.450000
2794.765595	802.490000
2796.107754	801.160000
2797.446564	804.580000
2798.788274	802.680000
2800.126636	798.400000
2801.466334	803.520000
2802.804248	800.570000
2804.140377	804.460000
2805.476282	794.190000
2806.813525	799.490000
2808.148984	797.250000
2809.484220	802.510000
2810.817673	798.840000
2812.152463	802.370000
2813.483913	796.510000
2814.818258	798.510000
2816.147705	794.840000
2817.478489	797.360000
2818.809051	795.240000
2820.137834	795.580000
2821.467953	790.820000
2822.796294	792.610000
2824.124414	790.580000
2825.450756	799.750000
2826.778435	783.870000
2828.102780	793.850000
2829.428462	797.080000
2830.752368	790.720000
2832.076055	792.870000
2833.401077	790.960000
2834.722769	786.510000
2836.044243	791.480000
2837.365498	791.810000
2838.686534	794.020000
2840.005797	791.610000
2841.326396	788.700000
2842.645224	788.200000
2843.963833	795.710000
2845.280671	785.630000
2846.597292	788.990000
2847.913696	776.550000
2849.228330	788.780000
2850.544300	788.500000
2851.856949	793.330000
2853.170933	788.320000
2854.484701	787.550000
2855.798252	786.280000
2857.110037	797.510000
2858.420055	794.790000
2859.731408	791.230000
2861.039446	778.360000
2862.348818	793.040000
2863.657976	785.110000
2864.966918	788.990000
2866.274096	783.870000
2867.579512	795.450000
2868.886262	795.850000
2870.191249	792.590000
2871.496023	790.260000
2872.799035	789.560000
2874.104928	783.890000
2875.405967	789.510000
2876.708340	790.560000
2878.008953	790.010000
2879.310900	781.670000
2880.612633	790.200000
2881.911063	788.540000
2883.210826	787.650000
2884.508832	784.850000
2885.806626	791.650000
2887.102664	789.700000
2888.400035	784.070000
2889.695650	786.290000
2890.991054	783.590000
2892.286247	793.500000
2893.578143	789.830000
2894.872915	783.850000
2896.164390	787.900000
2897.457198	782.460000
2898.749796	791.540000
2900.039100	778.870000
2901.329736	788.390000
2902.618621	781.180000
2903.908838	784.210000
2905.195764	788.340000
2906.484022	786.760000
2907.770531	779.700000
2909.056832	788.660000
2910.342924	790.130000
2911.627268	788.140000
2912.914483	784.030000
2914.196872	788.450000
2915.480593	786.370000
2916.762568	782.840000
2918.044335	784.320000
2919.324358	790.290000
2920.607250	786.170000
2921.888397	787.120000
2923.166262	789.460000
2924.446996	789.360000
2925.724449	784.430000
2927.001696	784.390000
2928.277201	784.130000
2929.555574	785.170000
2930.829133	779.920000
2932.105559	784.420000
2933.380244	790.370000
2934.653188	784.740000
2935.927464	783.190000
2937.200000	777.960000
2938.472331	783.570000
2939.741390	786.080000
2941.013314	779.910000
2942.283500	785.540000
2943.553482	782.690000
2944.823261	784.550000
2946.091304	779.090000
2947.357610	783.900000
2948.623715	776.230000
2949.891149	785.960000
2951.156849	784.390000
2952.422346	779.370000
2953.687641	780.690000
2954.949671	792.830000
2956.213031	781.050000
2957.476190	782.140000
2958.737617	780.530000
2960.000373	780.910000
2961.261397	773.880000
2962.520691	777.600000
2963.779785	781.630000
2965.038678	784.610000
2966.297371	782.990000
2967.555864	775.130000
2968.812628	779.510000
2970.069192	778.230000
2971.324029	776.670000
2972.580194	780.280000
2973.833105	777.550000
2975.087345	777.690000
2976.341386	779.440000
2977.593701	780.950000
2978.845817	774.730000
2980.096209	783.600000
2981.349456	779.230000
2982.597926	779.540000
2983.849251	776.280000
2985.097326	778.330000
2986.345205	774.460000
2987.592886	777.640000
2988.840370	779.000000
2990.086133	779.610000
2991.331700	774.740000
2992.578594	781.650000
2993.822244	771.390000
2995.067222	774.560000
2996.308956	776.420000
2997.553542	780.020000
2998.796409	774.960000
3000.036035	782.110000
3001.278511	778.540000
3002.517747	776.660000
3003.758311	772.480000
3004.997159	780.700000
3006.235811	777.240000
3007.472749	778.460000
3008.711013	772.200000
3009.947562	777.150000
3011.183918	775.000000
3012.420080	775.540000
3013.654528	775.120000
3014.888784	782.020000
3016.122846	774.230000
3017.355196	772.570000
3018.585834	779.780000
3019.819318	772.410000
3021.051090	778.640000
3022.281152	775.840000
3023.511022	773.490000
3024.739182	773.890000
3025.968668	772.000000
3027.196445	772.970000
3028.424031	770.960000
3029.652944	777.580000
3030.877114	767.590000
3032.104127	769.280000
3033.327916	769.580000
3034.553032	770.780000
3035.776441	766.800000
3036.999660	770.610000
3038.221174	765.480000
3039.445529	768.560000
3040.665149	767.390000
3041.886095	770.120000
3043.106852	762.930000
3044.325905	775.490000
3045.546283	773.040000
3046.763445	777.400000
3047.981933	767.050000
3049.198718	772.100000
3050.415316	764.180000
3051.631725	776.110000
3052.844922	772.460000
3054.060956	772.060000
3055.273778	765.610000
3056.489437	773.400000
3057.700373	771.920000
3058.912634	771.100000
3060.124709	762.700000
3061.336596	768.370000
3062.546787	771.900000
3063.756791	772.710000
3064.966609	768.260000
3066.174731	775.800000
3067.382668	769.180000
3068.588909	768.120000
3069.796475	763.870000
3071.002346	765.885000
3072.208033	767.900000
3073.413534	775.130000
3074.617342	764.360000
3075.822474	764.220000
3077.025913	763.180000
3078.227661	768.680000
3079.429224	765.840000
3080.630604	766.900000
3081.831800	758.000000
3083.031306	762.740000
3084.230629	756.220000
3085.431275	768.550000
3086.630231	759.500000
3087.825993	763.470000
3089.024584	757.980000
3090.219981	765.550000
3091.416701	759.890000
3092.610229	761.460000
3093.806585	760.770000
3095.001255	764.200000
3096.192734	758.410000
3097.388544	764.440000
3098.579661	758.420000
3099.772100	762.460000
3100.961352	759.980000
3102.153429	762.880000
3103.343823	761.170000
3104.531031	760.620000
3105.719562	761.220000
3106.909414	765.320000
3108.096083	761.480000
3109.282571	763.160000
3110.468881	756.100000
3111.656512	760.690000
3112.840961	765.640000
3114.023731	765.630000
3115.209323	759.590000
3116.393236	762.390000
3117.575470	763.160000
3118.757525	765.840000
3119.939402	761.740000
3121.121101	767.050000
3122.301123	766.250000
3123.479468	764.910000
3124.660633	761.480000
3125.838624	756.030000
3127.016437	762.840000
3128.194073	760.060000
3129.370034	754.530000
3130.545818	763.160000
3131.722924	757.860000
3132.898355	760.410000
3134.072113	761.300000
3135.244198	765.500000
3136.417605	761.620000
3137.590835	763.410000
3138.762394	757.340000
3139.935273	766.770000
3141.104985	762.320000
3142.276018	763.210000
3143.445381	763.170000
3144.613073	763.250000
3145.783581	763.930000
3146.949431	767.170000
3148.119589	763.370000
3149.285091	762.230000
3150.450418	761.230000
3151.615572	767.420000
3152.780553	760.430000
3153.946853	764.480000
3155.108501	757.860000
3156.271468	760.580000
3157.434263	760.900000
3158.596885	764.520000
3159.757842	757.440000
3160.918626	760.120000
3162.079238	765.250000
3163.238186	758.270000
3164.396963	754.980000
3165.555568	755.890000
3166.714000	757.850000
3167.872262	761.110000
3169.028861	759.140000
3170.183799	756.890000
3171.340056	756.620000
3172.494652	762.940000
3173.649078	761.360000
3174.801844	763.120000
3175.954439	752.320000
3177.106865	759.830000
3178.259121	756.740000
3179.411206	762.910000
3180.560146	755.960000
3181.711892	760.950000
3182.861980	758.480000
3184.010412	757.720000
3185.158674	757.360000
3186.306768	757.520000
3187.454693	754.990000
3188.600962	761.950000
3189.747063	764.120000
3190.891510	763.060000
3192.035789	759.240000
3193.179900	765.130000
3194.325328	758.470000
3195.467618	762.700000
3196.609741	759.510000
3197.751696	764.580000
3198.893484	754.450000
3200.035105	761.140000
3201.173591	763.380000
3202.313394	767.410000
3203.454515	766.300000
3204.592501	765.310000
3205.728838	766.810000
3206.865009	768.310000
3208.002497	767.410000
3209.138337	774.060000
3210.275494	770.230000
3211.408038	773.740000
3212.544864	774.110000
3213.677078	770.570000
3214.810609	770.840000
3215.943976	774.030000
3217.074215	767.110000
3218.207252	772.670000
3219.337163	771.370000
3220.468390	772.600000
3221.596493	766.580000
3222.727392	769.730000
3223.856647	770.170000
3224.984259	774.330000
3226.108748	763.660000
3227.237513	765.700000
3228.363156	769.820000
3229.488637	769.330000
3230.612476	765.040000
3231.739109	768.750000
3232.861145	763.920000
3233.984497	767.350000
3235.107687	757.960000
3236.230715	758.690000
3237.352103	761.890000
3238.473329	756.480000
3239.592918	759.160000
3240.712345	761.300000
3241.830134	754.940000
3242.950715	757.290000
3244.068183	758.800000
3245.185490	761.050000
3246.302637	750.330000
3247.418148	754.100000
3248.534973	755.050000
3249.648689	756.390000
3250.765194	756.070000
3251.880065	754.350000
3252.991827	751.910000
3254.103429	754.950000
3255.216347	748.520000
3256.329105	750.750000
3257.438757	746.450000
3258.549724	749.750000
3259.660532	744.850000
3260.769708	746.830000
3261.877254	749.440000
3262.986113	752.360000
3264.094815	747.670000
3265.200414	750.790000
3266.307327	752.420000
3267.412611	748.850000
3268.519209	748.300000
3269.622707	754.050000
3270.727520	749.180000
3271.832175	752.540000
3272.933731	743.340000
3274.035131	744.840000
3275.137845	749.630000
3276.240403	753.980000
3277.339864	746.300000
3278.442109	754.020000
3279.541258	748.830000
3280.638783	743.420000
3281.736152	751.860000
3282.836303	746.710000
3283.933362	738.500000
3285.030265	746.380000
3286.127013	749.370000
3287.219203	751.470000
3288.315641	740.160000
3289.410457	744.050000
3290.505119	740.640000
3291.598159	744.300000
3292.691044	740.770000
3293.782310	751.730000
3294.874887	741.610000
3295.965845	744.620000
3297.055183	740.170000
3298.144368	740.520000
3299.234866	736.290000
3300.322279	744.160000
3301.409539	747.400000
3302.498112	747.830000
3303.586533	745.910000
3304.670406	751.520000
3305.758521	739.740000
3306.843554	750.120000
3307.926972	736.400000
3309.011702	741.300000
3310.094817	739.660000
3311.179243	741.650000
3312.260591	745.340000
3313.343251	740.500000
3314.424297	742.130000
3315.505192	742.180000
3316.584473	740.660000
3317.663604	743.290000
3318.744047	738.390000
3319.821415	744.630000
3320.900095	741.160000
3321.977163	750.270000
3323.054082	742.170000
3324.129389	738.850000
3325.204547	740.740000
3326.281016	745.020000
3327.354415	740.970000
3328.427665	745.100000
3329.502225	738.670000
3330.575177	743.650000
3331.646520	735.940000
3332.719174	741.080000
3333.788762	740.780000
3334.859660	740.510000
3335.928951	736.400000
3336.999553	742.220000
3338.068548	739.240000
3339.135937	742.020000
3340.201721	739.280000
3341.271731	743.420000
3342.338678	733.890000
3343.402563	741.030000
3344.469216	735.430000
3345.534264	736.040000
3346.597709	736.940000
3347.661008	744.830000
3348.724160	737.310000
3349.787166	738.170000
3350.850026	739.180000
3351.911284	737.680000
3352.969485	737.770000
3354.031906	738.780000
3355.091272	739.540000
3356.150492	739.090000
3357.211022	734.590000
3358.267042	737.370000
3359.325826	741.720000
3360.380103	737.020000
3361.437144	736.370000
3362.492586	744.860000
3363.549338	741.540000
3364.604491	740.100000
3365.658047	736.370000
3366.710007	741.410000
3367.764728	734.310000
3368.816400	740.950000
3369.867929	733.130000
3370.920766	740.660000
3371.970556	733.830000
3373.021655	737.910000
3374.069708	739.350000
3375.120520	734.690000
3376.168288	737.980000
3377.215913	746.280000
3378.263395	737.680000
3379.309285	734.100000
3380.356483	734.530000
3381.400639	749.370000
3382.447553	733.070000
3383.492875	737.530000
3384.535156	735.120000
3385.577297	740.020000
3386.620745	737.760000
3387.664052	738.910000
3388.705770	738.030000
3389.747346	734.890000
3390.788781	736.590000
3391.828628	736.540000
3392.866886	734.620000
3393.906452	739.270000
3394.945878	733.780000
3395.983716	743.660000
3397.019967	739.450000
3398.056079	740.160000
3399.093498	736.210000
3400.127884	739.130000
3401.163577	741.270000
3402.199131	739.800000
3403.231654	735.330000
3404.266930	736.830000
3405.299175	736.930000
3406.331282	739.380000
3407.361805	732.810000
3408.393635	737.810000
3409.425327	733.770000
3410.453991	740.050000
3411.482518	736.730000
3412.512351	735.210000
3413.542047	739.840000
3414.568717	734.110000
3415.596694	735.390000
3416.621646	740.560000
3417.649348	740.160000
3418.674027	734.620000
3419.700012	728.900000
3420.724417	738.260000
3421.748686	734.890000
3422.771376	736.200000
3423.793930	735.410000
3424.817790	734.390000
3425.838630	735.560000
3426.859334	737.680000
3427.881345	730.890000
3428.900337	736.670000
3429.919193	731.460000
3430.939356	731.320000
3431.956502	733.630000
