-116.475622	0.730000
-113.806022	-3.750000
-111.139357	-1.480000
-108.473444	1.450000
-105.810463	1.330000
-103.146053	1.060000
-100.484573	-1.840000
-97.821664	3.610000
-95.163861	5.300000
-92.504629	3.710000
-89.846145	0.010000
-87.190585	3.860000
-84.533597	-1.320000
-81.881707	1.710000
-79.228387	5.010000
-76.577986	1.760000
-73.926156	2.580000
-71.279417	5.460000
-68.631249	0.860000
-65.983823	4.750000
-63.339311	1.340000
-60.693371	0.960000
-58.052512	0.580000
-55.410224	0.290000
-52.770845	3.000000
-50.130036	1.810000
-47.489968	1.400000
-44.854972	1.510000
-42.218548	3.830000
-39.585026	2.110000
-36.950076	1.900000
-34.320191	2.220000
-31.686714	-0.520000
-29.058299	4.390000
-26.430618	2.870000
-23.801508	4.430000
-21.177455	6.270000
-18.549813	8.650000
-15.927224	3.610000
-13.305367	5.660000
-10.684240	3.480000
-8.063843	6.500000
-5.446335	9.980000
-2.827398	32.650000
-0.211346	71.990000
2.403977	82.280000
5.018573	35.940000
7.630286	5.640000
10.243428	3.130000
12.851536	7.760000
15.463226	2.160000
18.069885	0.960000
20.677972	4.870000
23.285335	3.480000
25.887673	4.510000
28.493589	0.880000
31.094483	0.210000
33.696805	0.220000
36.294110	2.120000
38.894990	7.590000
41.490855	0.720000
44.088149	2.020000
46.684723	0.250000
49.276288	4.920000
51.869281	1.440000
54.459413	1.000000
57.050973	2.770000
59.639673	3.030000
62.229800	-5.130000
64.814928	5.320000
67.401484	2.990000
69.987326	4.030000
72.570314	6.700000
75.154728	3.480000
77.732014	4.330000
80.312866	4.630000
82.890869	2.030000
85.468162	-1.260000
88.046881	2.130000
90.620618	0.980000
93.195783	3.960000
95.768104	6.790000
98.339717	7.640000
100.908490	2.850000
103.478690	3.960000
106.046052	9.610000
108.614839	10.680000
111.180790	2.220000
113.743906	7.310000
116.310578	9.120000
118.868029	3.890000
121.431165	19.840000
123.989341	23.320000
126.551072	27.630000
129.107846	46.720000
131.666047	71.540000
134.219294	92.160000
136.771844	140.640000
139.327944	194.730000
141.879096	267.500000
144.429551	334.040000
146.979308	392.680000
149.526246	441.240000
152.072489	464.370000
154.620157	483.960000
157.167129	496.580000
159.709166	490.850000
162.250509	488.440000
164.791159	489.990000
167.333235	490.690000
169.872499	502.900000
172.408955	496.490000
174.944719	506.430000
177.481909	499.160000
180.018408	502.280000
182.552101	512.430000
185.082990	495.000000
187.613192	494.210000
190.144818	499.210000
192.673643	505.430000
195.199669	502.450000
197.725009	507.250000
200.251774	508.900000
202.775743	519.440000
205.299027	511.580000
207.821626	514.220000
210.341432	510.160000
212.860555	510.510000
215.378995	504.400000
217.898859	511.130000
220.411722	517.390000
222.928116	512.450000
225.443828	506.460000
227.954650	502.090000
230.466897	516.240000
232.976362	506.190000
235.485148	509.250000
237.993255	509.530000
240.502787	507.400000
243.007438	506.280000
245.511413	506.500000
248.016812	514.320000
250.517336	514.620000
253.021384	507.110000
255.518460	510.090000
258.019060	519.260000
260.516888	511.770000
263.014043	508.730000
265.510525	510.720000
268.002144	508.020000
270.497283	506.880000
272.989655	510.340000
275.481357	508.240000
277.970296	515.700000
280.460659	507.950000
282.948259	509.090000
285.433100	504.730000
287.921456	501.500000
290.402872	502.320000
292.887802	501.920000
295.367887	509.950000
297.851484	501.000000
300.330238	511.230000
302.810416	502.610000
305.287841	508.780000
307.764603	507.840000
310.240702	505.470000
312.714052	497.710000
315.186740	506.520000
317.658767	507.550000
320.130133	515.380000
322.598754	517.860000
325.066717	517.090000
327.536101	517.850000
330.000663	516.940000
332.468729	512.790000
334.931975	518.830000
337.394563	520.520000
339.856495	510.350000
342.317770	522.120000
344.776311	517.110000
347.236274	519.860000
349.693504	518.810000
352.150080	520.890000
354.606002	516.050000
357.059194	519.010000
359.513809	511.400000
361.963622	516.380000
364.416931	511.040000
366.865442	510.460000
369.313301	509.980000
371.762583	519.010000
374.207071	517.770000
376.652981	517.810000
379.098241	505.740000
381.540783	512.720000
383.982677	514.940000
386.423924	517.690000
388.862455	513.080000
391.302408	514.070000
393.739647	518.440000
396.174174	520.780000
398.612189	518.850000
401.045427	518.240000
403.480086	510.250000
405.909973	525.510000
408.343345	522.570000
410.771947	520.690000
413.199907	514.510000
415.629289	521.900000
418.053905	525.630000
420.479943	523.330000
422.905340	517.640000
425.330097	527.120000
427.750096	520.090000
430.171516	520.780000
432.590239	522.470000
435.010383	525.580000
437.427832	529.010000
439.846701	526.500000
442.262877	528.640000
444.674305	524.880000
447.089211	530.650000
449.501426	527.590000
451.913007	528.420000
454.323954	531.350000
456.732215	533.410000
459.139843	543.790000
461.546839	535.850000
463.953204	540.090000
466.356886	530.720000
468.759938	538.060000
471.162360	537.580000
473.564152	535.990000
475.963267	535.140000
478.363801	534.940000
480.763706	536.940000
483.158888	534.470000
485.557537	532.770000
487.951466	531.720000
490.344769	518.430000
492.737446	528.100000
495.129498	525.600000
497.522968	524.540000
499.911726	519.510000
502.297818	526.400000
504.685330	526.700000
507.072219	529.270000
509.456444	518.480000
511.842087	514.720000
514.225069	519.780000
516.605390	521.730000
518.987130	525.230000
521.366211	520.860000
523.746711	529.610000
526.124553	527.760000
528.499740	520.820000
530.874309	528.090000
533.250296	529.090000
535.623631	528.700000
537.998383	533.250000
540.368450	533.430000
542.737901	526.940000
545.108770	529.220000
547.474959	524.140000
549.842566	528.660000
552.207527	525.230000
554.571875	521.350000
556.935610	527.560000
559.300763	527.730000
561.661244	527.400000
564.023143	539.010000
566.382401	531.310000
568.739022	534.600000
571.099087	535.590000
573.452461	539.590000
575.809280	545.760000
578.163464	535.760000
580.517039	535.620000
582.870007	535.130000
585.220342	542.670000
587.572095	535.130000
589.917171	530.100000
592.267711	529.270000
594.611577	533.900000
596.960905	532.740000
599.305584	528.130000
601.647639	535.910000
603.991111	528.890000
606.331960	527.560000
608.672207	531.720000
611.009833	524.430000
613.350894	525.310000
615.687317	530.320000
618.025157	527.480000
620.360380	531.370000
622.692987	531.500000
625.027010	532.670000
627.358419	532.040000
629.689230	525.840000
632.019444	521.090000
634.349059	532.100000
636.674051	530.510000
639.004485	530.040000
641.330298	532.110000
643.653503	531.650000
645.978125	524.310000
648.300141	529.750000
650.621563	525.240000
652.940383	535.680000
655.260618	526.210000
657.580260	529.600000
659.897301	540.050000
662.213750	533.570000
664.527601	526.090000
666.842868	541.530000
669.155538	537.470000
671.469623	542.130000
673.779108	534.800000
676.090009	540.620000
678.398317	541.350000
680.706037	544.950000
683.015171	543.840000
685.319713	544.290000
687.623669	540.710000
689.927039	543.320000
692.231823	546.270000
694.532021	537.090000
696.833633	542.990000
699.134661	541.670000
701.431106	540.330000
703.728967	539.180000
706.026244	530.520000
708.322938	534.550000
710.615056	533.350000
712.910585	535.530000
715.201540	536.850000
717.493910	532.810000
719.783705	533.180000
722.072919	527.330000
724.361554	535.610000
726.647616	536.740000
728.935093	534.540000
731.219998	534.880000
733.504326	536.000000
735.786085	538.170000
738.069258	533.500000
740.351854	537.670000
742.629894	528.700000
744.909349	538.430000
747.188227	542.790000
749.466531	544.810000
751.740285	550.800000
754.015452	548.980000
756.290046	547.250000
758.562081	538.810000
760.835529	544.210000
763.106419	545.820000
765.374753	547.700000
767.644500	548.250000
769.911693	543.970000
772.178315	546.810000
774.444367	552.620000
776.707868	549.750000
778.972782	549.850000
781.237126	556.180000
783.496941	540.220000
785.758168	547.360000
788.018828	553.680000
790.276942	552.040000
792.532511	553.450000
794.791471	559.460000
797.043932	552.680000
799.301759	549.740000
801.555068	550.190000
803.805837	550.260000
806.058018	546.360000
808.307660	561.140000
810.558715	549.470000
812.805258	547.660000
815.053213	542.730000
817.298634	554.570000
819.545466	543.370000
821.791737	541.920000
824.033503	544.410000
826.278653	542.250000
828.517330	538.640000
830.759389	539.430000
832.996950	547.170000
835.235923	546.140000
837.472369	541.960000
839.710226	543.530000
841.945558	544.410000
844.178367	555.570000
846.412587	547.500000
848.644284	551.440000
850.875427	552.410000
853.106015	552.550000
855.336049	557.320000
857.565529	554.460000
859.790527	547.670000
862.018900	553.050000
864.242793	547.190000
866.468098	554.110000
868.688927	549.750000
870.913128	541.580000
873.132856	538.620000
875.353994	542.510000
877.574582	549.600000
879.792661	549.150000
882.012149	550.400000
884.227171	547.910000
886.441645	542.330000
888.655572	543.170000
890.868952	543.570000
893.081784	529.220000
895.294070	541.250000
897.503853	538.060000
899.713091	539.160000
901.921784	549.780000
904.127978	539.580000
906.335581	538.400000
908.540686	540.900000
910.745248	544.980000
912.947315	551.610000
915.150791	544.990000
917.351773	560.760000
919.552213	560.780000
921.754062	562.730000
923.949520	560.290000
926.148337	560.660000
928.342715	560.500000
930.540451	560.970000
932.733751	565.780000
934.928460	566.560000
937.120683	565.520000
939.312367	572.400000
941.503514	569.000000
943.692178	570.800000
945.880306	577.120000
948.065953	569.640000
950.254952	577.340000
952.439528	574.760000
954.623569	577.250000
956.810960	572.380000
958.990047	583.390000
961.172485	579.910000
963.354389	578.800000
965.533818	583.800000
967.710775	582.460000
969.889140	584.800000
972.068912	590.760000
974.242335	590.280000
976.419104	601.500000
978.591466	599.280000
980.765236	600.630000
982.934602	599.560000
985.107312	600.560000
987.277557	598.040000
989.447273	597.870000
991.616460	595.920000
993.781250	596.770000
995.949381	601.780000
998.113118	599.890000
1000.278261	592.820000
1002.440945	604.440000
1004.603104	593.460000
1006.762806	599.380000
1008.921983	596.720000
1011.082567	602.750000
1013.240697	592.990000
1015.398302	601.320000
1017.555384	596.860000
1019.711942	585.970000
1021.864121	596.300000
1024.017707	586.610000
1026.170771	594.440000
1028.321386	594.080000
1030.473408	592.300000
1032.621056	592.930000
1034.772036	593.010000
1036.918645	589.760000
1039.064735	582.820000
1041.210307	592.400000
1043.357284	586.170000
1045.497972	586.940000
1047.641990	582.070000
1049.783567	580.630000
1051.924628	577.210000
1054.067093	588.610000
1056.203279	586.100000
1058.342790	587.620000
1060.477947	585.350000
1062.616428	586.030000
1064.750555	577.390000
1066.884169	582.290000
1069.019188	580.940000
1071.149857	586.240000
1073.281931	578.950000
1075.411576	580.450000
1077.540709	579.430000
1079.669330	585.840000
1081.797440	581.830000
1083.923124	588.070000
1086.048298	586.890000
1088.174876	583.700000
1090.297116	587.630000
1092.420761	596.150000
1094.540071	585.910000
1096.664611	588.310000
1098.782905	587.750000
1100.902604	594.890000
1103.019884	587.210000
1105.136658	593.220000
1107.252925	588.840000
1109.366776	594.280000
1111.482032	580.950000
1113.592964	593.810000
1115.707209	588.830000
1117.817133	589.260000
1119.928461	580.900000
1122.039284	580.960000
1124.145791	580.950000
1126.255608	582.660000
1128.361110	585.860000
1130.468015	590.890000
1132.568705	573.950000
1134.674607	588.020000
1136.776200	586.980000
1138.879196	591.830000
1140.981691	583.470000
1143.077979	586.470000
1145.179475	576.640000
1147.276667	584.910000
1149.373362	580.740000
1151.469558	585.260000
1153.565257	582.970000
1155.660457	591.440000
1157.753261	590.450000
1159.847468	588.420000
1161.935483	594.570000
1164.028696	596.600000
1166.115721	594.990000
1168.206045	597.380000
1170.292082	598.210000
1172.381416	598.450000
1174.464569	600.360000
1176.549124	605.210000
1178.635081	600.590000
1180.716756	605.430000
1182.799833	599.810000
1184.880524	610.110000
1186.960723	601.890000
1189.040431	607.160000
1191.119648	611.970000
1193.196483	607.110000
1195.270937	604.950000
1197.348682	603.030000
1199.422158	598.900000
1201.497034	602.950000
1203.567643	601.350000
1205.639653	597.640000
1207.709288	600.330000
1209.780323	598.280000
1211.850870	596.770000
1213.917156	602.460000
1215.984843	601.890000
1218.050158	604.530000
1220.116873	597.260000
1222.179332	605.710000
1224.245076	596.680000
1226.306566	607.600000
1228.369457	613.040000
1230.429980	610.630000
1232.490019	610.640000
1234.549576	610.040000
1236.606767	616.900000
1238.663477	620.930000
1240.717823	616.590000
1242.775451	615.610000
1244.830716	625.590000
1246.881740	618.290000
1248.934164	620.660000
1250.986108	630.290000
1253.035694	627.160000
1255.084801	628.660000
1257.133430	631.470000
1259.181580	633.400000
1261.229251	636.750000
1263.272692	651.090000
1265.319409	643.160000
1267.363772	647.790000
1269.407659	642.370000
1271.449194	658.230000
1273.488380	650.950000
1275.530839	659.960000
1277.569075	652.000000
1279.608710	654.870000
1281.647870	652.610000
1283.682811	661.980000
1285.719151	655.550000
1287.753147	669.020000
1289.788540	671.620000
1291.819721	674.430000
1293.852299	681.630000
1295.884406	684.350000
1297.914172	696.490000
1299.945336	695.730000
1301.972292	717.940000
1304.000646	730.690000
1306.024795	741.750000
1308.052210	772.110000
1310.075422	795.420000
1312.100032	822.290000
1314.122308	871.580000
1316.145981	934.080000
1318.167321	1021.380000
1320.188193	1176.900000
1322.208598	1409.130000
1324.224810	1885.330000
1326.242419	2905.690000
1328.257700	5635.150000
1330.276240	12692.760000
1332.290591	24049.400000
1334.302616	26391.940000
1336.317898	17040.990000
1338.328995	6173.430000
1340.341489	2559.720000
1342.349800	1601.820000
1344.361366	1192.390000
1346.366894	990.910000
1348.375677	878.970000
1350.380282	810.200000
1352.388141	772.880000
1354.395538	744.830000
1356.396904	705.930000
1358.399666	693.350000
1360.401969	684.590000
1362.403812	660.070000
1364.405195	653.830000
1366.404265	650.250000
1368.402876	647.600000
1370.401029	637.570000
1372.398723	628.210000
1374.392255	623.790000
1376.387182	620.380000
1378.381653	620.670000
1380.375667	622.800000
1382.367374	624.730000
1384.358626	619.390000
1386.347572	618.210000
1388.337913	613.810000
1390.327799	611.610000
1392.315381	620.820000
1394.302510	617.030000
1396.287337	613.960000
1398.273559	612.040000
1400.257481	617.640000
1402.240950	618.570000
1404.223966	624.050000
1406.204685	628.360000
1408.186798	629.950000
1410.166615	621.140000
1412.145980	633.400000
1414.121207	625.020000
1416.099672	632.870000
1418.075844	630.690000
1420.051567	641.500000
1422.026840	634.140000
1423.999822	635.700000
1425.972356	634.570000
1427.944442	634.010000
1429.916081	641.230000
1431.883591	635.390000
1433.856175	634.500000
1435.820953	640.520000
1437.790804	638.800000
1439.756531	647.000000
1441.723650	636.620000
1443.688486	640.820000
1445.649202	641.810000
1447.614986	648.380000
1449.574815	644.160000
1451.536038	646.850000
1453.498653	638.750000
1455.457153	642.810000
1457.415210	646.350000
1459.372826	642.780000
1461.329999	638.570000
1463.284897	645.270000
1465.241188	642.750000
1467.195204	646.580000
1469.148779	646.070000
1471.100082	650.920000
1473.052778	645.790000
1475.003201	640.150000
1476.953186	637.030000
1478.902732	643.960000
1480.850009	637.330000
1482.795018	634.430000
1484.741420	633.960000
1486.687384	637.430000
1488.632911	630.310000
1490.576172	634.110000
1492.518998	633.640000
1494.459560	633.210000
1496.401513	627.190000
1498.341204	632.200000
1500.280461	629.460000
1502.219282	632.560000
1504.155844	623.780000
1506.093797	626.790000
1508.029491	628.930000
1509.964752	627.420000
1511.897757	625.240000
1513.830329	630.160000
1515.762469	633.430000
1517.694177	631.070000
1519.623631	636.270000
1521.554476	627.920000
1523.484889	631.700000
1525.411230	639.010000
1527.338962	644.360000
1529.264443	644.330000
1531.189495	639.280000
1533.114118	637.280000
1535.038312	648.190000
1536.960258	638.070000
1538.883595	633.500000
1540.804685	644.910000
1542.723531	649.010000
1544.643767	654.080000
1546.561760	640.620000
1548.479326	642.260000
1550.394650	646.490000
1552.311364	637.030000
1554.224023	640.590000
1556.139886	642.780000
1558.053509	641.370000
1559.964894	647.180000
1561.877669	639.290000
1563.786394	648.640000
1565.696508	644.530000
1567.606199	640.250000
1569.515467	640.920000
1571.422501	647.780000
1573.327302	635.370000
1575.233492	639.930000
1577.137450	649.640000
1579.040987	648.000000
1580.944104	637.180000
1582.844991	646.750000
1584.747267	643.460000
1586.647315	638.370000
1588.548750	640.490000
1590.446152	629.640000
1592.343135	637.010000
1594.239700	634.460000
1596.137653	630.490000
1598.029771	635.040000
1599.925082	634.880000
1601.819976	634.040000
1603.712648	623.310000
1605.604903	634.440000
1607.494939	625.070000
1609.384559	632.430000
1611.273764	614.420000
1613.162554	620.800000
1615.049126	611.340000
1616.937086	620.940000
1618.821029	626.460000
1620.706359	621.840000
1622.591276	621.730000
1624.473979	616.340000
1626.358069	614.240000
1628.238147	614.940000
1630.119613	616.880000
1631.998868	614.210000
1633.879509	606.380000
1635.754346	616.080000
1637.634164	604.770000
1639.509978	606.240000
1641.385381	606.380000
1643.262170	612.040000
1645.133163	598.210000
1647.007337	607.250000
1648.877512	598.450000
1650.750869	607.590000
1652.622022	605.740000
1654.490973	604.740000
1656.361309	592.970000
1658.227653	600.450000
1660.095382	596.780000
1661.960912	607.090000
1663.827828	597.750000
1665.690755	593.970000
1667.555067	595.780000
1669.417183	593.140000
1671.278894	588.080000
1673.141991	583.880000
1675.002892	590.660000
1676.861601	589.250000
1678.719906	588.680000
1680.579596	596.530000
1682.433518	588.080000
1684.290614	592.340000
1686.147307	589.810000
1688.000023	586.760000
1689.855911	582.090000
1691.707825	592.970000
1693.559338	579.650000
1695.410450	576.360000
1697.261162	575.760000
1699.111473	586.060000
1700.959599	576.880000
1702.809110	573.070000
1704.652872	572.320000
1706.501583	575.980000
1708.344548	570.370000
1710.190680	573.780000
1712.032849	572.690000
1713.878184	571.490000
1715.717778	567.280000
1717.558756	570.660000
1719.401117	573.840000
1721.239522	572.480000
1723.079310	567.290000
1724.916923	566.530000
1726.754140	569.580000
1728.589184	570.350000
1730.425611	573.550000
1732.259866	568.090000
1734.093726	565.690000
1735.927192	565.980000
1737.756713	571.030000
1739.589392	562.680000
1741.418127	563.520000
1743.250019	560.500000
1745.077969	560.740000
1746.905528	560.770000
1748.732694	559.860000
1750.559469	551.510000
1752.385852	563.350000
1754.208299	566.570000
1756.033901	563.240000
1757.855568	557.380000
1759.678617	558.150000
1761.499504	558.990000
1763.320003	560.970000
1765.141882	559.520000
1766.958063	549.820000
1768.777395	562.510000
1770.592800	560.260000
1772.411355	563.240000
1774.225985	567.920000
1776.040228	559.480000
1777.854085	554.080000
1779.667555	561.300000
1781.478872	560.340000
1783.291569	567.200000
1785.103881	563.800000
1786.912275	565.360000
1788.722049	563.000000
1790.527909	555.800000
1792.336914	552.420000
1794.142006	560.960000
1795.948479	560.630000
1797.754568	560.320000
1799.556746	556.120000
1801.362069	553.240000
1803.163483	556.230000
1804.966277	556.260000
1806.765165	550.610000
1808.565434	555.170000
1810.365321	542.480000
1812.163066	552.870000
1813.960431	557.170000
1815.757416	553.930000
1817.554020	562.120000
1819.348485	556.990000
1821.144329	554.760000
1822.934518	552.550000
1824.729604	557.720000
1826.519038	550.350000
1828.311608	545.540000
1830.102043	547.890000
1831.890344	557.960000
1833.681780	555.510000
1835.467570	550.970000
1837.254740	556.970000
1839.039778	550.960000
1840.827950	555.080000
1842.612236	549.850000
1844.394392	552.630000
1846.177928	548.110000
1847.959335	555.390000
1849.742121	556.540000
1851.521026	558.770000
1853.301311	554.220000
1855.079469	553.060000
1856.859006	554.370000
1858.636418	550.870000
1860.411706	546.590000
1862.188372	548.780000
1863.962916	551.830000
1865.738838	551.280000
1867.509139	552.510000
1869.282568	557.840000
1871.053877	559.550000
1872.824815	547.380000
1874.597131	551.800000
1876.363833	558.400000
1878.133661	555.390000
1879.899625	556.320000
1881.668712	561.960000
1883.433938	553.960000
1885.198796	553.850000
1886.965031	557.210000
1888.727407	557.850000
1890.489416	552.690000
1892.251057	550.830000
1894.012332	554.910000
1895.773239	549.900000
1897.533780	550.500000
1899.292211	558.050000
1901.050276	554.060000
1902.806234	549.580000
1904.563568	554.360000
1906.320537	552.230000
1908.075399	553.260000
1909.828157	543.930000
1911.580550	557.000000
1913.334320	537.200000
1915.085986	548.180000
1916.835550	549.330000
1918.586489	543.430000
1920.337066	549.940000
1922.083803	553.100000
1923.831917	549.790000
1925.577931	544.800000
1927.325320	551.310000
1929.070612	544.630000
1930.813806	543.680000
1932.558375	552.410000
1934.300849	547.390000
1936.042962	553.740000
1937.784715	549.400000
1939.526108	547.890000
1941.265408	553.240000
1943.004349	552.200000
1944.742931	554.090000
1946.479422	559.930000
1948.215555	558.025000
1949.953062	556.120000
1951.686747	551.280000
1953.421807	555.520000
1955.154778	548.890000
1956.887393	545.440000
1958.619652	543.580000
1960.351554	550.040000
1962.081370	557.640000
1963.809101	550.370000
1965.538207	549.610000
1967.266958	545.250000
1968.993625	555.700000
1970.719938	558.330000
1972.447624	552.480000
1974.169774	553.930000
1975.895025	549.070000
1977.616469	554.290000
1979.341014	550.880000
1981.063478	558.750000
1982.782140	556.500000
1984.503900	561.240000
1986.221858	560.190000
1987.941189	553.860000
1989.656721	558.130000
1991.377073	559.340000
1993.093627	560.370000
1994.806384	560.510000
1996.522237	558.160000
1998.236018	565.200000
1999.949449	557.660000
2001.660809	563.080000
2003.373541	562.450000
2005.082483	556.220000
2006.794517	571.470000
2008.501043	569.710000
2010.210660	562.150000
2011.918211	578.620000
2013.625413	573.920000
2015.330550	566.140000
2017.035341	569.690000
2018.741503	574.630000
2020.443883	570.690000
2022.147634	578.630000
2023.849323	564.380000
2025.550667	568.650000
2027.251665	566.870000
2028.950602	569.300000
2030.650911	571.470000
2032.347445	562.370000
2034.045350	568.980000
2035.741196	560.620000
2037.440128	568.490000
2039.133574	560.730000
2040.828391	566.930000
2042.522866	557.850000
2044.213572	567.670000
2045.907362	567.430000
2047.597385	566.650000
2049.288779	557.100000
2050.978120	564.590000
2052.668831	553.720000
2054.355779	552.710000
2056.042388	551.900000
2057.730366	565.230000
2059.414585	563.350000
2061.100175	565.310000
2062.785425	558.130000
2064.468626	555.140000
2066.153198	560.970000
2067.832307	554.500000
2069.516201	565.070000
2071.194634	553.020000
2072.876145	552.860000
2074.553904	559.700000
2076.231327	562.040000
2077.910119	560.570000
2079.586869	551.630000
2081.261577	556.240000
2082.937654	559.110000
2084.611691	554.980000
2086.285392	561.340000
2087.958758	554.360000
2089.630085	559.780000
2091.301078	546.310000
2092.971737	553.960000
2094.642062	560.870000
2096.312053	556.750000
2097.980008	552.210000
2099.647630	555.450000
2101.313217	559.430000
2102.980173	557.750000
2104.645096	548.770000
2106.309687	561.820000
2107.972246	567.310000
2109.636173	566.990000
2111.298069	553.710000
2112.959635	560.190000
2114.620869	560.930000
2116.280075	561.140000
2117.938950	565.920000
2119.597496	569.850000
2121.255711	569.050000
2122.910204	561.750000
2124.567761	569.730000
2126.224989	562.910000
2127.878495	576.950000
2129.533369	573.330000
2131.184524	566.710000
2132.838742	567.350000
2134.489243	556.990000
2136.141110	560.090000
2137.787569	558.560000
2139.438783	555.070000
2141.086283	565.620000
2142.735150	562.540000
2144.381998	562.060000
2146.028521	564.410000
2147.674718	557.390000
2149.317207	563.650000
2150.962754	568.300000
2152.604594	564.340000
2154.249491	564.330000
2155.890682	568.490000
2157.531551	564.830000
2159.172095	569.020000
2160.810627	561.200000
2162.450525	567.950000
2164.086723	556.460000
2165.724287	555.110000
2167.361529	559.820000
2168.996761	565.530000
2170.631672	564.000000
2172.266260	561.070000
2173.900528	567.730000
2175.531102	568.070000
2177.164728	569.310000
2178.794662	568.350000
2180.425961	570.230000
2182.055255	569.580000
2183.684230	568.690000
2185.312885	571.340000
2186.941221	571.570000
2188.567555	575.200000
2190.193570	560.660000
2191.817583	573.000000
2193.442962	572.630000
2195.066340	571.440000
2196.691083	567.410000
2198.312145	573.270000
2199.932890	574.420000
2201.555000	569.060000
2203.175112	572.530000
2204.793227	562.660000
2206.411027	575.290000
2208.028512	560.380000
2209.645681	571.260000
2211.262535	572.620000
2212.879073	572.420000
2214.493619	571.050000
2216.106172	575.880000
2217.720089	574.840000
2219.332015	575.240000
2220.945304	570.860000
2222.556603	567.690000
2224.165912	569.500000
2225.776585	573.440000
2227.385269	572.280000
2228.993640	568.730000
2230.600025	569.270000
2232.207773	566.210000
2233.813534	565.870000
2235.418984	567.180000
2237.022449	566.900000
2238.627277	566.940000
2240.230121	562.110000
2241.830982	563.830000
2243.433206	565.580000
2245.033448	568.140000
2246.635052	568.400000
2248.233003	567.340000
2249.832317	569.500000
2251.429651	567.800000
2253.026677	567.490000
2254.625065	564.530000
2256.219804	568.410000
2257.812566	567.350000
2259.406691	561.050000
2261.002177	559.160000
2262.594018	562.640000
2264.185553	555.550000
2265.778450	562.200000
2267.366037	561.490000
2268.958320	561.130000
2270.545297	562.630000
2272.135301	562.480000
2273.720001	567.010000
2275.309395	573.260000
2276.893487	560.370000
2278.478939	564.990000
2280.062423	559.490000
2281.648932	558.760000
2283.231808	562.780000
2284.814381	560.470000
2286.396650	562.800000
2287.975289	572.080000
2289.556953	561.650000
2291.134988	563.980000
2292.716046	564.880000
2294.293477	565.535000
2295.868945	566.190000
2297.447435	563.880000
2299.022301	565.400000
2300.596866	561.330000
2302.171131	560.870000
2303.745095	567.250000
2305.318758	567.670000
2306.892122	560.960000
2308.461867	570.380000
2310.031313	577.580000
2311.603777	572.310000
2313.170967	571.770000
2314.741175	572.330000
2316.307768	579.020000
2317.875721	581.430000
2319.441718	572.070000
2321.007418	580.040000
2322.572820	582.170000
2324.136269	574.020000
2325.701077	575.930000
2327.262277	581.320000
2328.826491	576.270000
2330.385443	572.390000
2331.947410	585.370000
2333.507425	576.150000
2335.067146	570.150000
2336.624917	578.830000
2338.182393	578.640000
2339.739575	575.500000
2341.294809	581.120000
2342.849750	579.650000
2344.404396	578.480000
2345.958749	578.690000
2347.512809	582.600000
2349.066574	577.610000
2350.618395	581.940000
2352.168274	575.160000
2353.721160	582.490000
2355.268803	569.820000
2356.819455	572.250000
2358.366515	572.370000
2359.914933	567.100000
2361.463060	577.290000
2363.007598	571.620000
2364.553494	569.940000
2366.097452	575.080000
2367.642767	570.020000
2369.184497	567.970000
2370.727584	567.820000
2372.268735	575.780000
2373.809597	569.190000
2375.350170	567.080000
2376.890454	566.770000
2378.430449	570.630000
2379.966866	577.710000
2381.506284	572.480000
2383.042124	569.910000
2384.579322	572.940000
2386.112944	568.480000
2387.649566	572.870000
2389.184258	575.120000
2390.717020	577.680000
2392.249495	571.900000
2393.780042	570.190000
2395.313587	576.880000
2396.841921	577.560000
2398.371612	578.420000
2399.901016	566.780000
2401.430136	572.640000
2402.958971	577.500000
2404.482600	581.020000
2406.010865	579.930000
2407.533928	576.640000
2409.061624	578.310000
2410.582481	585.690000
2412.107971	585.850000
2413.629900	584.270000
2415.153185	588.340000
2416.674548	583.100000
2418.193992	594.880000
2419.714791	598.060000
2421.233672	591.590000
2422.752270	604.380000
2424.268951	589.490000
2425.786986	598.990000
2427.304740	595.840000
2428.818943	601.240000
2430.332865	596.810000
2431.846507	596.070000
2433.361504	601.170000
2434.872952	596.900000
2436.385755	609.810000
2437.896644	606.060000
2439.407255	611.040000
2440.915954	609.160000
2442.427639	616.820000
2443.935781	609.600000
2445.443645	618.020000
2446.951231	613.540000
2448.455276	616.980000
2449.962306	622.210000
2451.467428	625.120000
2452.972273	619.260000
2454.475211	622.740000
2455.977873	622.280000
2457.480258	632.740000
2458.980738	626.880000
2460.482571	621.070000
2461.982499	625.870000
2463.482152	619.270000
2464.981530	618.850000
2466.479005	626.200000
2467.974578	612.170000
2469.473131	613.130000
2470.968156	616.970000
2472.464533	624.390000
2473.957384	604.970000
2475.451588	603.250000
2476.945518	607.060000
2478.435924	603.770000
2479.929308	600.840000
2481.420794	602.350000
2482.910383	605.530000
2484.399700	607.370000
2485.887121	605.800000
2487.377518	602.440000
2488.864397	598.140000
2490.352627	596.730000
2491.837340	597.200000
2493.321784	599.460000
2494.807578	597.070000
2496.291481	595.060000
2497.776734	596.660000
2499.256854	595.740000
2500.739947	591.980000
2502.221149	588.890000
2503.702082	600.830000
2505.181126	591.250000
2506.659901	586.880000
2508.138408	595.330000
2509.616647	590.410000
2511.094617	592.010000
2512.569082	586.110000
2514.046517	588.160000
2515.520448	580.860000
2516.995729	582.060000
2518.470743	585.570000
2519.942256	588.540000
2521.415120	590.790000
2522.886101	588.300000
2524.358432	585.040000
2525.825649	582.910000
2527.295833	580.260000
2528.764136	585.430000
2530.232174	578.080000
2531.699947	581.660000
2533.167455	578.580000
2534.634698	582.720000
2536.098449	582.430000
2537.563550	593.360000
2539.026774	587.410000
2540.491347	591.010000
2541.952432	579.580000
2543.414866	584.240000
2544.877037	586.400000
2546.335722	591.540000
2547.798978	589.210000
2549.257139	593.320000
2550.716648	587.210000
2552.171063	588.150000
2553.630049	585.930000
2555.087163	587.580000
2556.542406	581.200000
2557.997387	582.770000
2559.450500	578.240000
2560.904961	578.180000
2562.357552	578.410000
2563.809884	584.310000
2565.260349	572.110000
2566.713769	584.210000
2568.162107	575.910000
2569.613400	578.910000
2571.062828	571.110000
2572.508783	572.350000
2573.957693	569.060000
2575.403133	576.540000
2576.849920	583.030000
2578.294845	572.010000
2579.739511	584.190000
2581.185525	578.990000
2582.628073	577.430000
2584.071968	580.150000
2585.512398	571.970000
2586.954175	570.600000
2588.394093	573.890000
2589.835358	568.890000
2591.273161	569.300000
2592.713914	559.530000
2594.149605	575.300000
2595.588245	572.940000
2597.025027	571.930000
2598.459954	572.530000
2599.897828	565.180000
2601.330645	572.870000
2602.764809	566.000000
2604.197119	569.290000
2605.630775	570.930000
2607.062578	563.280000
2608.494127	560.340000
2609.925424	567.240000
2611.354868	560.090000
2612.784060	565.510000
2614.211402	564.620000
2615.640089	563.890000
2617.068525	565.480000
2618.493513	561.860000
2619.919848	558.760000
2621.344334	565.950000
2622.770166	562.480000
2624.192554	566.830000
2625.616288	564.830000
2627.038175	562.950000
2628.459813	567.140000
2629.879605	561.920000
2631.300743	554.820000
2632.721631	560.670000
2634.139081	557.630000
2635.559470	568.640000
2636.976422	558.060000
2638.393125	560.550000
2639.809580	554.090000
2641.225787	560.460000
2642.641746	554.350000
2644.055864	565.200000
2645.469734	555.960000
2646.881766	559.030000
2648.295141	558.290000
2649.705087	557.670000
2651.117969	557.870000
2652.527422	558.740000
2653.936629	555.600000
2655.344000	558.800000
2656.754305	555.860000
2658.162775	553.300000
2659.569409	558.970000
2660.975798	553.960000
2662.380353	554.750000
2663.786252	564.140000
2665.190318	555.970000
2666.594139	569.790000
2667.997716	556.710000
2669.399462	570.350000
2670.802551	564.730000
2672.202222	563.470000
2673.603237	559.480000
2675.000836	549.460000
2676.401365	552.300000
2677.798478	551.690000
2679.196935	546.830000
2680.593565	549.200000
2681.989952	546.800000
2683.386097	548.020000
2684.780416	539.570000
2686.176078	539.300000
2687.568331	540.100000
2688.961926	543.950000
2690.353697	540.390000
2691.746811	539.510000
2693.138101	533.130000
2694.527568	543.300000
2695.916795	535.350000
2697.305783	533.750000
2698.696112	529.370000
2700.081458	545.690000
2701.469727	532.020000
2702.856176	532.510000
2704.242386	544.250000
2705.628357	530.760000
2707.010930	532.330000
2708.394845	537.280000
2709.778522	523.610000
2711.161960	538.010000
2712.542004	532.490000
2713.923388	528.620000
2715.302958	528.270000
2716.683868	528.870000
2718.062964	539.100000
2719.440246	527.110000
2720.818869	528.890000
2722.195679	526.740000
2723.572252	536.760000
2724.948590	541.360000
2726.323117	530.360000
2727.698984	533.650000
2729.071464	529.470000
2730.446860	533.190000
2731.817296	530.310000
2733.189073	532.150000
2734.560615	533.700000
2735.930349	537.910000
2737.301424	538.500000
2738.670690	543.200000
2740.039723	530.590000
2741.406950	529.910000
2742.773943	534.530000
2744.140704	528.320000
2745.507233	535.940000
2746.871956	540.050000
2748.236447	538.920000
2749.600707	532.570000
2750.964734	534.760000
2752.328530	540.790000
2753.688952	539.070000
2755.052284	538.120000
2756.410674	538.200000
2757.771974	533.980000
2759.129904	533.050000
2760.490742	527.580000
2761.849781	529.760000
2763.205451	527.990000
2764.564029	522.130000
2765.919240	517.790000
2767.274222	515.230000
2768.627408	528.470000
2769.983500	523.100000
2771.336227	527.700000
2772.688727	530.170000
2774.040998	526.900000
2775.394607	527.030000
2776.744856	522.290000
2778.093310	532.880000
2779.444670	523.400000
2780.792670	523.270000
2782.142008	528.840000
2783.489554	532.900000
2784.836874	532.350000
2786.183967	518.390000
2787.529269	524.640000
2788.874344	527.790000
2790.219194	524.230000
2791.563818	518.740000
2792.905090	517.230000
2794.247700	526.510000
2795.590084	525.940000
2796.932243	526.840000
2798.271053	523.550000
2799.612763	520.150000
2800.951125	527.440000
2802.290823	527.480000
2803.628737	518.110000
2804.964866	521.550000
2806.300771	529.990000
2807.638014	522.420000
2808.973473	527.120000
2810.308709	519.880000
2811.642162	529.510000
2812.976952	524.680000
2814.308402	528.230000
2815.642747	529.010000
2816.972194	530.390000
2818.302978	533.880000
2819.633540	531.050000
2820.962323	526.940000
2822.292442	532.010000
2823.620783	533.700000
2824.948903	526.990000
2826.275245	527.850000
2827.602924	530.150000
2828.927269	532.510000
2830.252951	522.350000
2831.576857	526.090000
2832.900544	525.610000
2834.225566	520.890000
2835.547258	523.020000
2836.868732	525.850000
2838.189987	528.040000
2839.511023	520.750000
2840.830286	526.520000
2842.150885	529.560000
2843.469713	519.460000
2844.788322	526.140000
2846.105160	526.600000
2847.421781	517.570000
2848.738185	521.290000
2850.052819	519.570000
2851.368789	519.020000
2852.681438	523.350000
2853.995422	519.320000
2855.309190	530.360000
2856.622741	531.840000
2857.934526	512.660000
2859.244544	520.010000
2860.555897	528.880000
2861.863935	520.890000
2863.173307	526.240000
2864.482465	523.640000
2865.791407	527.780000
2867.098585	539.140000
2868.404001	530.830000
2869.710750	532.660000
2871.015738	528.960000
2872.320512	521.480000
2873.623524	535.580000
2874.929417	522.570000
2876.230456	526.030000
2877.532829	521.520000
2878.833442	527.810000
2880.135389	527.840000
2881.437122	520.480000
2882.735552	537.020000
2884.035315	520.840000
2885.333321	522.320000
2886.631115	518.500000
2887.927153	522.780000
2889.224524	522.080000
2890.520139	511.400000
2891.815543	525.930000
2893.110736	519.070000
2894.402632	517.490000
2895.697404	524.190000
2896.988879	521.750000
2898.281687	519.990000
2899.574285	519.040000
2900.863589	519.940000
2902.154225	523.300000
2903.443110	515.020000
2904.733327	515.830000
2906.020253	515.790000
2907.308511	524.760000
2908.595020	519.240000
2909.881320	519.100000
2911.167413	519.320000
2912.451757	511.780000
2913.738972	529.450000
2915.021361	521.660000
2916.305082	511.450000
2917.587057	517.720000
2918.868824	524.830000
2920.148847	516.950000
2921.431739	525.500000
2922.712886	522.630000
2923.990751	528.550000
2925.271485	524.420000
2926.548938	520.830000
2927.826185	518.230000
2929.101690	526.500000
2930.380063	518.870000
2931.653622	515.010000
2932.930048	521.330000
2934.204733	518.880000
2935.477677	515.840000
2936.751953	511.220000
2938.024489	515.150000
2939.296820	517.510000
2940.565879	524.400000
2941.837803	518.760000
2943.107989	519.380000
2944.377971	510.920000
2945.647750	505.230000
2946.915793	519.620000
2948.182099	514.460000
2949.448204	522.150000
2950.715638	520.480000
2951.981338	517.990000
2953.246835	520.960000
2954.512130	521.150000
2955.774160	509.120000
2957.037520	522.590000
2958.300679	517.400000
2959.562106	515.310000
2960.824862	508.530000
2962.085886	518.180000
2963.345180	512.030000
2964.604274	518.380000
2965.863167	517.530000
2967.121860	516.320000
2968.380353	512.500000
2969.637117	513.180000
2970.893681	505.570000
2972.148518	500.150000
2973.404683	509.750000
2974.657594	514.530000
2975.911834	510.580000
2977.165875	515.070000
2978.418190	507.680000
2979.670306	510.780000
2980.920698	508.690000
2982.173945	511.200000
2983.422415	509.630000
2984.673740	510.140000
2985.921815	510.490000
2987.169694	509.540000
2988.417375	507.640000
2989.664859	511.590000
2990.910622	513.280000
2992.156189	516.460000
2993.403083	512.190000
2994.646733	509.000000
2995.891711	505.660000
2997.133445	515.280000
2998.378031	512.450000
2999.620898	516.180000
3000.860524	513.970000
3002.103000	513.250000
3003.342236	515.270000
3004.582800	515.050000
3005.821648	511.890000
3007.060300	517.290000
3008.297237	506.620000
3009.535502	507.150000
3010.772051	513.290000
3012.008407	509.100000
3013.244569	515.010000
3014.479017	519.700000
3015.713273	502.140000
3016.947335	509.070000
3018.179685	514.460000
3019.410323	518.690000
3020.643807	510.820000
3021.875579	515.450000
3023.105641	505.240000
3024.335510	513.460000
3025.563671	509.150000
3026.793157	522.250000
3028.020934	511.570000
3029.248520	519.830000
3030.477433	512.930000
3031.701603	503.970000
3032.928616	509.520000
3034.152405	511.810000
3035.377521	511.530000
3036.600930	514.450000
3037.824149	511.340000
3039.045663	503.290000
3040.270018	509.460000
3041.489638	507.480000
3042.710584	507.980000
3043.931341	510.590000
3045.150394	507.320000
3046.370772	513.340000
3047.587934	503.750000
3048.806422	507.680000
3050.023207	514.810000
3051.239805	505.770000
3052.456214	509.520000
3053.669411	507.820000
3054.885445	506.550000
3056.098267	507.610000
3057.313926	507.080000
3058.524862	510.610000
3059.737123	498.010000
3060.949198	503.950000
3062.161085	506.880000
3063.371276	515.180000
3064.581280	506.450000
3065.791098	495.590000
3066.999220	491.650000
3068.207157	495.550000
3069.413398	497.170000
3070.620964	507.560000
3071.826835	504.855000
3073.032522	502.150000
3074.238023	497.960000
3075.441831	495.890000
3076.646963	498.030000
3077.850402	508.090000
3079.052150	498.060000
3080.253713	497.240000
3081.455093	503.400000
3082.656289	506.420000
3083.855795	498.300000
3085.055118	506.590000
3086.255764	501.480000
3087.454720	506.660000
3088.650482	493.870000
3089.849073	505.280000
3091.044470	491.680000
3092.241190	497.560000
3093.434718	488.710000
3094.631074	501.250000
3095.825744	498.400000
3097.017223	497.140000
3098.213033	491.250000
3099.404149	493.290000
3100.596589	487.880000
3101.785841	494.920000
3102.977918	492.540000
3104.168312	487.040000
3105.355520	490.630000
3106.544051	494.160000
3107.733903	491.610000
3108.920572	492.870000
3110.107060	491.900000
3111.293370	495.340000
3112.481001	495.420000
3113.665450	493.730000
3114.848220	486.420000
3116.033812	484.270000
3117.217725	481.780000
3118.399959	492.680000
3119.582014	489.090000
3120.763891	484.420000
3121.945590	480.260000
3123.125612	483.840000
3124.303957	495.020000
3125.485122	483.960000
3126.663112	488.780000
3127.840926	486.680000
3129.018562	482.710000
3130.194523	481.830000
3131.370307	481.690000
3132.547413	486.970000
3133.722844	482.930000
3134.896602	478.090000
3136.068687	485.880000
3137.242094	481.700000
3138.415324	487.170000
3139.586883	480.980000
3140.759762	483.940000
3141.929474	487.080000
3143.100507	479.710000
3144.269870	484.930000
3145.437562	491.220000
3146.608070	486.070000
3147.773920	477.300000
3148.944078	485.320000
3150.109580	479.100000
3151.274907	486.570000
3152.440061	482.420000
3153.605042	484.090000
3154.771342	481.970000
3155.932990	480.760000
3157.095957	479.330000
3158.258752	480.110000
3159.421374	481.420000
3160.582331	470.150000
3161.743115	476.790000
3162.903727	476.680000
3164.062675	464.920000
3165.221452	473.230000
3166.380057	469.680000
3167.538489	473.540000
3168.696751	476.770000
3169.853350	475.260000
3171.008288	477.820000
3172.164545	472.510000
3173.319141	472.270000
3174.473567	478.110000
3175.626333	471.090000
3176.778928	467.580000
3177.931354	469.500000
3179.083610	476.600000
3180.235695	465.740000
3181.384635	465.630000
3182.536381	475.380000
3183.686469	466.570000
3184.834901	473.360000
3185.983163	478.190000
3187.131257	478.980000
3188.279182	475.410000
3189.425451	482.630000
3190.571552	479.750000
3191.715999	483.340000
3192.860278	485.630000
3194.004389	482.840000
3195.149817	478.490000
3196.292107	484.460000
3197.434230	485.610000
3198.576185	480.890000
3199.717973	474.160000
3200.859594	480.200000
3201.998080	478.740000
3203.137883	476.990000
3204.279004	485.400000
3205.416990	479.420000
3206.553327	477.780000
3207.689498	482.120000
3208.826986	477.900000
3209.962826	477.910000
3211.099983	481.300000
3212.232527	474.010000
3213.369353	481.660000
3214.501567	476.660000
3215.635098	477.540000
3216.768465	472.530000
3217.898704	473.310000
3219.031741	465.790000
3220.161652	466.760000
3221.292879	466.250000
3222.420982	468.500000
3223.551881	464.260000
3224.681136	474.950000
3225.808748	468.650000
3226.933237	472.860000
3228.062002	481.650000
3229.187645	466.130000
3230.313126	473.040000
3231.436965	468.880000
3232.563598	471.300000
3233.685634	470.730000
3234.808986	466.710000
3235.932176	470.390000
3237.055203	468.810000
3238.176592	472.160000
3239.297818	463.800000
3240.417407	466.880000
3241.536834	461.330000
3242.654623	464.420000
3243.775204	468.710000
3244.892672	469.280000
3246.009979	464.580000
3247.127126	467.360000
3248.242637	473.780000
3249.359462	465.730000
3250.473178	473.930000
3251.589683	478.930000
3252.704554	469.980000
3253.816316	476.050000
3254.927918	465.400000
3256.040836	477.020000
3257.153594	476.190000
3258.263246	468.860000
3259.374213	467.290000
3260.485021	469.380000
3261.594197	474.640000
3262.701743	479.060000
3263.810602	466.310000
3264.919304	463.540000
3266.024903	465.910000
3267.131816	471.990000
3268.237100	475.850000
3269.343698	476.900000
3270.447196	467.380000
3271.552009	475.420000
3272.656664	470.660000
3273.758220	472.360000
3274.859620	467.210000
3275.962334	475.060000
3277.064892	471.370000
3278.164353	474.090000
3279.266598	474.250000
3280.365747	470.070000
3281.463272	463.460000
3282.560641	470.830000
3283.660792	460.930000
3284.757851	461.960000
3285.854754	466.320000
3286.951502	471.000000
3288.043692	458.690000
3289.140130	464.350000
3290.234946	463.450000
3291.329608	471.070000
3292.422648	455.330000
3293.515533	461.040000
3294.606799	459.790000
3295.699376	457.200000
3296.790334	458.200000
3297.879672	458.250000
3298.968857	454.550000
3300.059355	456.890000
3301.146768	461.850000
3302.234028	457.410000
3303.322601	454.450000
3304.411022	461.170000
3305.494895	456.030000
3306.583010	463.410000
3307.668043	458.500000
3308.751461	459.730000
3309.836191	456.570000
3310.919305	461.200000
3312.003732	457.790000
3313.085080	460.800000
3314.167740	458.050000
3315.248786	462.790000
3316.329681	461.320000
3317.408962	460.500000
3318.488093	457.660000
3319.568536	461.060000
3320.645904	457.500000
3321.724584	454.390000
3322.801652	456.910000
3323.878571	455.620000
3324.953878	451.020000
3326.029036	459.210000
3327.105505	464.280000
3328.178904	452.390000
3329.252154	456.120000
3330.326714	458.050000
3331.399666	454.290000
3332.471009	457.070000
3333.543663	456.300000
3334.613251	452.850000
3335.684149	451.820000
3336.753440	455.040000
3337.824042	451.290000
3338.893037	447.110000
3339.960426	449.140000
3341.026210	447.240000
3342.096220	443.310000
3343.163167	447.890000
3344.227052	448.480000
3345.293705	448.140000
3346.358753	448.010000
3347.422198	450.990000
3348.485497	453.830000
3349.548649	454.510000
3350.611655	439.740000
3351.674515	443.100000
3352.735773	444.530000
3353.793974	439.480000
3354.856395	442.560000
3355.915761	432.640000
3356.974981	444.610000
3358.035511	442.910000
3359.091531	445.170000
3360.150315	447.970000
3361.204592	439.400000
3362.261633	448.000000
3363.317075	440.440000
3364.373827	445.820000
3365.428980	443.680000
3366.482536	448.600000
3367.534496	447.420000
3368.589217	450.160000
3369.640889	449.020000
3370.692418	443.880000
3371.745255	441.290000
3372.795045	446.370000
3373.846144	443.690000
3374.894197	442.760000
3375.945009	446.340000
3376.992777	435.470000
3378.040402	438.640000
3379.087884	436.840000
3380.133774	442.170000
3381.180972	433.540000
3382.225128	438.270000
3383.272042	445.010000
3384.317364	444.450000
3385.359645	443.740000
3386.401786	437.090000
3387.445234	441.210000
3388.488541	436.500000
3389.530259	442.150000
3390.571835	431.400000
3391.613270	436.270000
3392.653117	437.580000
3393.691375	435.950000
3394.730941	444.230000
3395.770367	444.220000
3396.808205	443.610000
3397.844456	439.520000
3398.880568	442.110000
3399.917987	442.990000
3400.952373	441.640000
3401.988066	441.470000
3403.023620	450.420000
3404.056143	440.830000
3405.091419	436.230000
3406.123664	440.110000
3407.155771	439.170000
3408.186294	442.140000
3409.218124	433.640000
3410.249816	433.730000
3411.278480	436.380000
3412.307007	442.650000
3413.336840	434.070000
3414.366536	438.740000
3415.393206	436.030000
3416.421183	434.280000
3417.446135	431.120000
3418.473837	437.810000
3419.498516	439.100000
3420.524501	442.640000
3421.548906	442.090000
3422.573175	437.110000
3423.595865	440.340000
3424.618419	431.730000
3425.642279	432.870000
3426.663119	435.200000
3427.683823	433.020000
3428.705834	440.160000
3429.724826	430.980000
3430.743682	431.880000
3431.763845	429.890000
3432.780991	431.090000
