-116.475622	6.602000
-113.806022	2.913000
-111.139357	0.947000
-108.473444	5.330000
-105.810463	-1.358000
-103.146053	1.901000
-100.484573	3.460000
-97.821664	-2.250000
-95.163861	-12.215000
-92.504629	0.202000
-89.846145	3.053000
-87.190585	1.627000
-84.533597	5.939000
-81.881707	3.826000
-79.228387	2.688000
-76.577986	3.022000
-73.926156	0.511000
-71.279417	5.339000
-68.631249	-4.166000
-65.983823	7.835000
-63.339311	-1.102000
-60.693371	-1.817000
-58.052512	1.790000
-55.410224	4.832000
-52.770845	-2.741000
-50.130036	-2.674000
-47.489968	1.041000
-44.854972	7.336000
-42.218548	5.546000
-39.585026	4.272000
-36.950076	4.316000
-34.320191	-2.460000
-31.686714	3.801000
-29.058299	9.514000
-26.430618	-2.771000
-23.801508	5.235000
-21.177455	9.299000
-18.549813	3.009000
-15.927224	-6.869000
-13.305367	-4.547000
-10.684240	3.228000
-8.063843	1.798000
-5.446335	16.403000
-2.827398	39.017000
-0.211346	80.065000
2.403977	85.948000
5.018573	44.460000
7.630286	6.588000
10.243428	4.265000
12.851536	9.679000
15.463226	3.710000
18.069885	-5.769000
20.677972	3.044000
23.285335	8.300000
25.887673	6.829000
28.493589	0.934000
31.094483	6.633000
33.696805	6.116000
36.294110	1.807000
38.894990	4.696000
41.490855	-2.140000
44.088149	-1.324000
46.684723	-0.817000
49.276288	-1.609000
51.869281	2.738000
54.459413	1.745000
57.050973	5.257000
59.639673	3.229000
62.229800	-4.843000
64.814928	10.675000
67.401484	1.173000
69.987326	1.771000
72.570314	2.758000
75.154728	-2.394000
77.732014	-2.963000
80.312866	6.270000
82.890869	-1.608000
85.468162	10.324000
88.046881	-0.679000
90.620618	3.563000
93.195783	3.871000
95.768104	2.699000
98.339717	3.384000
100.908490	10.201000
103.478690	-5.279000
106.046052	8.475000
108.614839	-3.846000
111.180790	10.516000
113.743906	2.064000
116.310578	9.077000
118.868029	3.380000
121.431165	12.258000
123.989341	10.896000
126.551072	14.746000
129.107846	19.689000
131.666047	35.479000
134.219294	54.256000
136.771844	66.590000
139.327944	106.992000
141.879096	142.179000
144.429551	159.501000
146.979308	202.081000
149.526246	205.519000
152.072489	219.272000
154.620157	227.965000
157.167129	236.856000
159.709166	232.172000
162.250509	233.917000
164.791159	228.811000
167.333235	223.871000
169.872499	235.501000
172.408955	225.813000
174.944719	229.168000
177.481909	232.312000
180.018408	227.209000
182.552101	227.746000
185.082990	227.775000
187.613192	224.029000
190.144818	222.038000
192.673643	233.481000
195.199669	225.121000
197.725009	225.715000
200.251774	221.771000
202.775743	236.041000
205.299027	217.442000
207.821626	233.013000
210.341432	218.644000
212.860555	218.347000
215.378995	221.234000
217.898859	230.502000
220.411722	224.455000
222.928116	228.157000
225.443828	225.444000
227.954650	228.368000
230.466897	226.337000
232.976362	226.615000
235.485148	229.098000
237.993255	233.686000
240.502787	222.473000
243.007438	228.984000
245.511413	233.484000
248.016812	230.644000
250.517336	227.392000
253.021384	234.975000
255.518460	223.696000
258.019060	227.800000
260.516888	226.917000
263.014043	226.932000
265.510525	227.043000
268.002144	231.497000
270.497283	234.143000
272.989655	229.448000
275.481357	236.586000
277.970296	229.005000
280.460659	222.242000
282.948259	221.063000
285.433100	216.570000
287.921456	228.565000
290.402872	230.028000
292.887802	222.159000
295.367887	223.248000
297.851484	225.962000
300.330238	226.750000
302.810416	221.621000
305.287841	217.366000
307.764603	224.511000
310.240702	225.774000
312.714052	218.572000
315.186740	224.282000
317.658767	218.830000
320.130133	218.731000
322.598754	225.782000
325.066717	223.789000
327.536101	227.979000
330.000663	219.309000
332.468729	220.570000
334.931975	226.688000
337.394563	221.073000
339.856495	222.363000
342.317770	221.759000
344.776311	230.581000
347.236274	223.481000
349.693504	227.691000
352.150080	224.470000
354.606002	217.373000
357.059194	212.353000
359.513809	219.476000
361.963622	219.003000
364.416931	227.253000
366.865442	223.456000
369.313301	226.239000
371.762583	218.948000
374.207071	212.745000
376.652981	221.932000
379.098241	214.015000
381.540783	217.262000
383.982677	214.899000
386.423924	221.471000
388.862455	223.579000
391.302408	216.884000
393.739647	217.187000
396.174174	221.691000
398.612189	213.960000
401.045427	222.866000
403.480086	218.414000
405.909973	214.135000
408.343345	214.568000
410.771947	217.844000
413.199907	223.186000
415.629289	220.258000
418.053905	206.212000
420.479943	218.424000
422.905340	219.966000
425.330097	215.263000
427.750096	219.687000
430.171516	215.845000
432.590239	211.349000
435.010383	212.441000
437.427832	216.521000
439.846701	214.300000
442.262877	219.237000
444.674305	220.443000
447.089211	209.300000
449.501426	213.628000
451.913007	220.218000
454.323954	218.757000
456.732215	212.393000
459.139843	208.305000
461.546839	221.424000
463.953204	213.540000
466.356886	214.235000
468.759938	217.826000
471.162360	216.656000
473.564152	214.598000
475.963267	214.578000
478.363801	212.659000
480.763706	215.251000
483.158888	215.113000
485.557537	212.672000
487.951466	210.276000
490.344769	214.868000
492.737446	221.403000
495.129498	211.576000
497.522968	211.742000
499.911726	210.654000
502.297818	213.785000
504.685330	205.751000
507.072219	212.839000
509.456444	202.991000
511.842087	206.907000
514.225069	213.009000
516.605390	209.929000
518.987130	208.484000
521.366211	208.114000
523.746711	208.566000
526.124553	214.063000
528.499740	206.764000
530.874309	213.115000
533.250296	208.945000
535.623631	210.305000
537.998383	213.709000
540.368450	212.473000
542.737901	209.043000
545.108770	212.143000
547.474959	203.896000
549.842566	213.496000
552.207527	208.173000
554.571875	215.593000
556.935610	204.003000
559.300763	213.105000
561.661244	210.914000
564.023143	210.840000
566.382401	209.282000
568.739022	210.258000
571.099087	203.265000
573.452461	210.017000
575.809280	208.703000
578.163464	208.459000
580.517039	215.368000
582.870007	210.129000
585.220342	198.772000
587.572095	207.011000
589.917171	203.436000
592.267711	207.116000
594.611577	201.378000
596.960905	204.742000
599.305584	198.223000
601.647639	209.711000
603.991111	202.868000
606.331960	208.257000
608.672207	207.287000
611.009833	209.930000
613.350894	203.799000
615.687317	211.229000
618.025157	201.007000
620.360380	197.854000
622.692987	198.245000
625.027010	201.831000
627.358419	210.497000
629.689230	197.414000
632.019444	195.241000
634.349059	202.032000
636.674051	209.879000
639.004485	203.343000
641.330298	198.967000
643.653503	203.718000
645.978125	196.719000
648.300141	210.706000
650.621563	204.191000
652.940383	200.943000
655.260618	203.924000
657.580260	203.914000
659.897301	202.378000
662.213750	199.784000
664.527601	195.984000
666.842868	204.756000
669.155538	202.783000
671.469623	206.347000
673.779108	205.522000
676.090009	206.140000
678.398317	201.013000
680.706037	197.983000
683.015171	201.060000
685.319713	194.639000
687.623669	195.259000
689.927039	203.820000
692.231823	200.629000
694.532021	199.065000
696.833633	201.842000
699.134661	208.135000
701.431106	192.171000
703.728967	195.432000
706.026244	195.028000
708.322938	193.229000
710.615056	203.623000
712.910585	195.278000
715.201540	195.568000
717.493910	198.568000
719.783705	198.873000
722.072919	196.435000
724.361554	196.992000
726.647616	200.305000
728.935093	199.132000
731.219998	197.283000
733.504326	198.484000
735.786085	203.118000
738.069258	201.926000
740.351854	195.824000
742.629894	196.276000
744.909349	207.782000
747.188227	204.126000
749.466531	203.274000
751.740285	201.336000
754.015452	203.718000
756.290046	200.045000
758.562081	201.668000
760.835529	197.363000
763.106419	199.900000
765.374753	196.901000
767.644500	204.641000
769.911693	196.445000
772.178315	190.127000
774.444367	194.868000
776.707868	200.790000
778.972782	202.619000
781.237126	197.159000
783.496941	190.325000
785.758168	208.702000
788.018828	189.991000
790.276942	201.946000
792.532511	203.096000
794.791471	204.526000
797.043932	200.878000
799.301759	206.258000
801.555068	196.976000
803.805837	198.294000
806.058018	197.881000
808.307660	207.712000
810.558715	209.065000
812.805258	199.505000
815.053213	188.761000
817.298634	204.348000
819.545466	186.739000
821.791737	205.942000
824.033503	186.897000
826.278653	192.981000
828.517330	187.278000
830.759389	197.341000
832.996950	195.009000
835.235923	201.231000
837.472369	190.750000
839.710226	203.269000
841.945558	195.424000
844.178367	196.211000
846.412587	196.524000
848.644284	201.556000
850.875427	194.210000
853.106015	203.080000
855.336049	200.689000
857.565529	195.808000
859.790527	197.527000
862.018900	192.084000
864.242793	199.851000
866.468098	199.531000
868.688927	194.366000
870.913128	196.193000
873.132856	192.741000
875.353994	199.748000
877.574582	196.580000
879.792661	205.258000
882.012149	204.348000
884.227171	201.793000
886.441645	186.029000
888.655572	195.778000
890.868952	195.993000
893.081784	199.071000
895.294070	196.649000
897.503853	197.356000
899.713091	188.873000
901.921784	202.426000
904.127978	191.791000
906.335581	200.502000
908.540686	195.141000
910.745248	193.711000
912.947315	194.631000
915.150791	205.174000
917.351773	190.380000
919.552213	194.256000
921.754062	186.128000
923.949520	196.940000
926.148337	197.849000
928.342715	199.681000
930.540451	192.404000
932.733751	194.749000
934.928460	199.789000
937.120683	193.730000
939.312367	197.090000
941.503514	203.248000
943.692178	196.629000
945.880306	194.385000
948.065953	195.394000
950.254952	193.901000
952.439528	202.227000
954.623569	199.097000
956.810960	190.659000
958.990047	205.224000
961.172485	205.203000
963.354389	203.323000
965.533818	202.893000
967.710775	208.377000
969.889140	201.000000
972.068912	204.954000
974.242335	208.189000
976.419104	208.133000
978.591466	208.916000
980.765236	211.724000
982.934602	196.674000
985.107312	204.858000
987.277557	202.083000
989.447273	215.513000
991.616460	208.659000
993.781250	210.827000
995.949381	203.486000
998.113118	210.282000
1000.278261	204.432000
1002.440945	203.339000
1004.603104	196.796000
1006.762806	213.055000
1008.921983	207.204000
1011.082567	208.506000
1013.240697	203.649000
1015.398302	218.608000
1017.555384	195.813000
1019.711942	202.495000
1021.864121	204.462000
1024.017707	206.603000
1026.170771	211.340000
1028.321386	204.565000
1030.473408	205.995000
1032.621056	208.952000
1034.772036	205.919000
1036.918645	211.345000
1039.064735	205.423000
1041.210307	203.588000
1043.357284	205.171000
1045.497972	200.337000
1047.641990	201.205000
1049.783567	208.685000
1051.924628	193.036000
1054.067093	210.543000
1056.203279	202.523000
1058.342790	202.600000
1060.477947	199.412000
1062.616428	201.152000
1064.750555	193.461000
1066.884169	203.772000
1069.019188	205.014000
1071.149857	204.082000
1073.281931	197.859000
1075.411576	206.933000
1077.540709	201.416000
1079.669330	199.346000
1081.797440	203.226000
1083.923124	194.356000
1086.048298	196.617000
1088.174876	209.577000
1090.297116	196.042000
1092.420761	207.284000
1094.540071	199.397000
1096.664611	204.532000
1098.782905	206.983000
1100.902604	201.922000
1103.019884	200.660000
1105.136658	195.054000
1107.252925	205.219000
1109.366776	205.813000
1111.482032	202.133000
1113.592964	206.092000
1115.707209	196.740000
1117.817133	205.367000
1119.928461	206.581000
1122.039284	203.417000
1124.145791	200.700000
1126.255608	201.023000
1128.361110	204.407000
1130.468015	201.256000
1132.568705	199.657000
1134.674607	201.953000
1136.776200	198.434000
1138.879196	202.231000
1140.981691	199.050000
1143.077979	189.508000
1145.179475	208.855000
1147.276667	207.355000
1149.373362	197.868000
1151.469558	197.105000
1153.565257	202.245000
1155.660457	203.843000
1157.753261	203.177000
1159.847468	199.457000
1161.935483	203.317000
1164.028696	206.384000
1166.115721	200.425000
1168.206045	206.595000
1170.292082	202.171000
1172.381416	207.106000
1174.464569	202.178000
1176.549124	210.016000
1178.635081	207.398000
1180.716756	204.204000
1182.799833	209.930000
1184.880524	214.030000
1186.960723	200.991000
1189.040431	204.114000
1191.119648	205.432000
1193.196483	213.359000
1195.270937	212.802000
1197.348682	209.840000
1199.422158	207.080000
1201.497034	215.737000
1203.567643	209.496000
1205.639653	213.344000
1207.709288	210.164000
1209.780323	214.447000
1211.850870	203.274000
1213.917156	219.246000
1215.984843	210.969000
1218.050158	211.191000
1220.116873	208.759000
1222.179332	217.489000
1224.245076	209.950000
1226.306566	220.140000
1228.369457	221.736000
1230.429980	214.984000
1232.490019	217.669000
1234.549576	215.422000
1236.606767	224.232000
1238.663477	216.648000
1240.717823	217.984000
1242.775451	222.854000
1244.830716	215.477000
1246.881740	227.837000
1248.934164	222.916000
1250.986108	224.070000
1253.035694	229.415000
1255.084801	223.299000
1257.133430	226.664000
1259.181580	228.142000
1261.229251	226.758000
1263.272692	233.175000
1265.319409	218.313000
1267.363772	236.084000
1269.407659	232.687000
1271.449194	241.051000
1273.488380	232.247000
1275.530839	239.216000
1277.569075	245.679000
1279.608710	248.564000
1281.647870	243.942000
1283.682811	249.357000
1285.719151	252.002000
1287.753147	266.510000
1289.788540	259.289000
1291.819721	260.331000
1293.852299	267.420000
1295.884406	272.063000
1297.914172	284.930000
1299.945336	288.611000
1301.972292	295.112000
1304.000646	321.523000
1306.024795	334.753000
1308.052210	355.735000
1310.075422	381.329000
1312.100032	431.072000
1314.122308	469.222000
1316.145981	543.786000
1318.167321	646.543000
1320.188193	811.015000
1322.208598	1080.702000
1324.224810	1633.673000
1326.242419	2843.938000
1328.257700	6034.924000
1330.276240	13914.056000
1332.290591	25239.388000
1334.302616	26594.290000
1336.317898	16283.877000
1338.328995	5823.196000
1340.341489	2285.310000
1342.349800	1295.589000
1344.361366	844.415000
1346.366894	631.885000
1348.375677	508.269000
1350.380282	444.440000
1352.388141	396.711000
1354.395538	357.402000
1356.396904	338.507000
1358.399666	306.193000
1360.401969	290.821000
1362.403812	278.647000
1364.405195	273.397000
1366.404265	259.934000
1368.402876	250.490000
1370.401029	252.781000
1372.398723	247.908000
1374.392255	246.727000
1376.387182	244.852000
1378.381653	236.368000
1380.375667	235.995000
1382.367374	238.382000
1384.358626	234.512000
1386.347572	234.518000
1388.337913	237.961000
1390.327799	233.095000
1392.315381	235.072000
1394.302510	226.353000
1396.287337	240.858000
1398.273559	230.887000
1400.257481	232.835000
1402.240950	232.550000
1404.223966	239.901000
1406.204685	225.510000
1408.186798	232.872000
1410.166615	227.141000
1412.145980	231.051000
1414.121207	232.328000
1416.099672	236.812000
1418.075844	231.701000
1420.051567	232.725000
1422.026840	226.094000
1423.999822	228.954000
1425.972356	237.616000
1427.944442	245.536000
1429.916081	236.179000
1431.883591	235.451000
1433.856175	238.683000
1435.820953	241.848000
1437.790804	241.968000
1439.756531	244.909000
1441.723650	241.865000
1443.688486	231.866000
1445.649202	237.884000
1447.614986	238.582000
1449.574815	237.993000
1451.536038	234.870000
1453.498653	238.858000
1455.457153	241.185000
1457.415210	232.896000
1459.372826	242.861000
1461.329999	232.100000
1463.284897	239.163000
1465.241188	229.974000
1467.195204	230.665000
1469.148779	234.719000
1471.100082	236.752000
1473.052778	236.023000
1475.003201	238.059000
1476.953186	235.005000
1478.902732	239.029000
1480.850009	232.197000
1482.795018	227.914000
1484.741420	235.313000
1486.687384	235.802000
1488.632911	233.763000
1490.576172	233.879000
1492.518998	233.233000
1494.459560	239.974000
1496.401513	232.406000
1498.341204	236.310000
1500.280461	225.282000
1502.219282	232.625000
1504.155844	236.013000
1506.093797	240.555000
1508.029491	237.539000
1509.964752	236.299000
1511.897757	235.828000
1513.830329	232.542000
1515.762469	234.626000
1517.694177	239.300000
1519.623631	235.689000
1521.554476	236.922000
1523.484889	235.176000
1525.411230	241.035000
1527.338962	238.162000
1529.264443	244.831000
1531.189495	234.427000
1533.114118	246.286000
1535.038312	241.445000
1536.960258	238.065000
1538.883595	236.043000
1540.804685	239.537000
1542.723531	234.966000
1544.643767	238.187000
1546.561760	239.395000
1548.479326	241.473000
1550.394650	231.604000
1552.311364	241.916000
1554.224023	239.239000
1556.139886	237.055000
1558.053509	242.739000
1559.964894	236.740000
1561.877669	246.279000
1563.786394	238.342000
1565.696508	236.050000
1567.606199	228.816000
1569.515467	240.264000
1571.422501	234.307000
1573.327302	241.178000
1575.233492	231.796000
1577.137450	233.352000
1579.040987	232.504000
1580.944104	235.537000
1582.844991	238.648000
1584.747267	234.367000
1586.647315	230.116000
1588.548750	236.804000
1590.446152	236.141000
1592.343135	226.367000
1594.239700	233.415000
1596.137653	231.992000
1598.029771	227.975000
1599.925082	226.865000
1601.819976	237.245000
1603.712648	225.644000
1605.604903	231.747000
1607.494939	229.752000
1609.384559	230.297000
1611.273764	229.170000
1613.162554	229.453000
1615.049126	232.526000
1616.937086	231.606000
1618.821029	232.759000
1620.706359	227.244000
1622.591276	230.787000
1624.473979	231.812000
1626.358069	233.201000
1628.238147	228.147000
1630.119613	236.712000
1631.998868	233.000000
1633.879509	227.495000
1635.754346	227.633000
1637.634164	221.407000
1639.509978	233.168000
1641.385381	233.400000
1643.262170	233.971000
1645.133163	227.477000
1647.007337	231.356000
1648.877512	233.847000
1650.750869	224.445000
1652.622022	230.059000
1654.490973	234.215000
1656.361309	233.031000
1658.227653	232.246000
1660.095382	235.498000
1661.960912	232.232000
1663.827828	229.667000
1665.690755	237.599000
1667.555067	226.211000
1669.417183	223.842000
1671.278894	236.744000
1673.141991	229.843000
1675.002892	227.872000
1676.861601	234.311000
1678.719906	233.751000
1680.579596	234.183000
1682.433518	235.255000
1684.290614	231.792000
1686.147307	230.501000
1688.000023	223.840000
1689.855911	229.932000
1691.707825	230.552000
1693.559338	220.375000
1695.410450	230.350000
1697.261162	228.662000
1699.111473	234.423000
1700.959599	234.321000
1702.809110	231.865000
1704.652872	237.265000
1706.501583	230.837000
1708.344548	235.533000
1710.190680	238.031000
1712.032849	224.967000
1713.878184	237.702000
1715.717778	230.764000
1717.558756	232.553000
1719.401117	232.448000
1721.239522	229.395000
1723.079310	224.410000
1724.916923	226.875000
1726.754140	231.098000
1728.589184	234.539000
1730.425611	225.204000
1732.259866	229.051000
1734.093726	233.677000
1735.927192	230.094000
1737.756713	224.964000
1739.589392	228.748000
1741.418127	223.733000
1743.250019	230.093000
1745.077969	230.202000
1746.905528	237.308000
1748.732694	227.924000
1750.559469	238.630000
1752.385852	221.774000
1754.208299	237.637000
1756.033901	226.537000
1757.855568	229.504000
1759.678617	231.504000
1761.499504	226.613000
1763.320003	227.283000
1765.141882	221.727000
1766.958063	236.413000
1768.777395	240.225000
1770.592800	235.887000
1772.411355	235.877000
1774.225985	235.636000
1776.040228	232.304000
1777.854085	235.451000
1779.667555	235.103000
1781.478872	238.681000
1783.291569	247.023000
1785.103881	232.896000
1786.912275	238.967000
1788.722049	245.657000
1790.527909	250.502000
1792.336914	240.266000
1794.142006	239.557000
1795.948479	240.465000
1797.754568	238.988000
1799.556746	230.559000
1801.362069	246.866000
1803.163483	240.513000
1804.966277	245.749000
1806.765165	236.646000
1808.565434	249.332000
1810.365321	243.820000
1812.163066	242.948000
1813.960431	245.071000
1815.757416	247.683000
1817.554020	241.030000
1819.348485	252.211000
1821.144329	248.349000
1822.934518	248.844000
1824.729604	239.233000
1826.519038	252.786000
1828.311608	248.220000
1830.102043	252.508000
1831.890344	251.211000
1833.681780	252.432000
1835.467570	245.595000
1837.254740	254.602000
1839.039778	248.180000
1840.827950	249.587000
1842.612236	245.325000
1844.394392	255.646000
1846.177928	250.466000
1847.959335	247.273000
1849.742121	250.631000
1851.521026	255.108000
1853.301311	250.967000
1855.079469	252.211000
1856.859006	255.714000
1858.636418	247.920000
1860.411706	259.620000
1862.188372	258.338000
1863.962916	245.016000
1865.738838	253.795000
1867.509139	248.036000
1869.282568	255.587000
1871.053877	256.117000
1872.824815	248.164000
1874.597131	258.917000
1876.363833	258.865000
1878.133661	259.636000
1879.899625	256.898000
1881.668712	267.777000
1883.433938	268.972000
1885.198796	250.677000
1886.965031	260.576000
1888.727407	258.083000
1890.489416	251.424000
1892.251057	267.016000
1894.012332	264.550000
1895.773239	261.470000
1897.533780	268.443000
1899.292211	260.975000
1901.050276	260.572000
1902.806234	272.894000
1904.563568	264.943000
1906.320537	257.602000
1908.075399	267.653000
1909.828157	267.064000
1911.580550	259.944000
1913.334320	259.974000
1915.085986	265.934000
1916.835550	261.172000
1918.586489	267.373000
1920.337066	267.376000
1922.083803	271.252000
1923.831917	266.225000
1925.577931	268.387000
1927.325320	262.749000
1929.070612	271.319000
1930.813806	261.606000
1932.558375	276.273000
1934.300849	277.110000
1936.042962	281.377000
1937.784715	264.435000
1939.526108	269.506000
1941.265408	275.337000
1943.004349	273.042000
1944.742931	271.580000
1946.479422	274.171000
1948.215555	277.908500
1949.953062	281.646000
1951.686747	265.665000
1953.421807	283.784000
1955.154778	272.754000
1956.887393	273.965000
1958.619652	276.274000
1960.351554	284.074000
1962.081370	277.276000
1963.809101	277.733000
1965.538207	288.213000
1967.266958	279.186000
1968.993625	279.147000
1970.719938	284.250000
1972.447624	276.511000
1974.169774	291.233000
1975.895025	278.062000
1977.616469	289.156000
1979.341014	290.896000
1981.063478	291.447000
1982.782140	288.212000
1984.503900	290.112000
1986.221858	287.029000
1987.941189	292.710000
1989.656721	285.586000
1991.377073	296.049000
1993.093627	291.408000
1994.806384	293.742000
1996.522237	295.472000
1998.236018	295.550000
1999.949449	287.079000
2001.660809	302.515000
2003.373541	299.035000
2005.082483	302.484000
2006.794517	301.532000
2008.501043	309.027000
2010.210660	298.621000
2011.918211	311.942000
2013.625413	307.730000
2015.330550	304.041000
2017.035341	306.883000
2018.741503	301.523000
2020.443883	310.334000
2022.147634	314.148000
2023.849323	308.824000
2025.550667	308.346000
2027.251665	304.598000
2028.950602	308.684000
2030.650911	308.176000
2032.347445	316.586000
2034.045350	310.929000
2035.741196	313.144000
2037.440128	304.681000
2039.133574	315.825000
2040.828391	309.853000
2042.522866	313.269000
2044.213572	315.969000
2045.907362	317.534000
2047.597385	325.957000
2049.288779	315.158000
2050.978120	320.423000
2052.668831	321.432000
2054.355779	308.589000
2056.042388	319.739000
2057.730366	321.643000
2059.414585	317.569000
2061.100175	311.349000
2062.785425	320.104000
2064.468626	313.762000
2066.153198	323.020000
2067.832307	311.126000
2069.516201	317.342000
2071.194634	315.839000
2072.876145	317.944000
2074.553904	322.043000
2076.231327	317.426000
2077.910119	307.025000
2079.586869	325.166000
2081.261577	317.240000
2082.937654	317.189000
2084.611691	320.168000
2086.285392	315.639000
2087.958758	322.507000
2089.630085	329.663000
2091.301078	321.581000
2092.971737	324.542000
2094.642062	331.221000
2096.312053	326.378000
2097.980008	325.674000
2099.647630	329.263000
2101.313217	321.935000
2102.980173	323.863000
2104.645096	325.334000
2106.309687	333.630000
2107.972246	331.647000
2109.636173	335.576000
2111.298069	331.621000
2112.959635	333.585000
2114.620869	335.005000
2116.280075	335.615000
2117.938950	343.300000
2119.597496	341.622000
2121.255711	344.380000
2122.910204	350.315000
2124.567761	338.514000
2126.224989	346.125000
2127.878495	337.392000
2129.533369	343.597000
2131.184524	344.422000
2132.838742	342.755000
2134.489243	345.004000
2136.141110	346.992000
2137.787569	353.681000
2139.438783	341.333000
2141.086283	348.857000
2142.735150	350.473000
2144.381998	348.560000
2146.028521	354.610000
2147.674718	356.279000
2149.317207	361.470000
2150.962754	359.271000
2152.604594	351.134000
2154.249491	349.697000
2155.890682	356.695000
2157.531551	353.847000
2159.172095	360.185000
2160.810627	361.722000
2162.450525	354.473000
2164.086723	366.771000
2165.724287	360.275000
2167.361529	359.593000
2168.996761	357.711000
2170.631672	361.803000
2172.266260	367.236000
2173.900528	363.596000
2175.531102	369.397000
2177.164728	363.901000
2178.794662	377.686000
2180.425961	365.585000
2182.055255	368.895000
2183.684230	370.784000
2185.312885	376.516000
2186.941221	370.129000
2188.567555	378.709000
2190.193570	374.571000
2191.817583	385.452000
2193.442962	368.083000
2195.066340	371.782000
2196.691083	365.883000
2198.312145	380.698000
2199.932890	372.846000
2201.555000	373.215000
2203.175112	375.750000
2204.793227	376.416000
2206.411027	377.810000
2208.028512	381.325000
2209.645681	377.319000
2211.262535	385.506000
2212.879073	379.607000
2214.493619	381.558000
2216.106172	387.438000
2217.720089	382.474000
2219.332015	384.624000
2220.945304	387.757000
2222.556603	383.592000
2224.165912	393.197000
2225.776585	389.905000
2227.385269	390.685000
2228.993640	381.570000
2230.600025	391.109000
2232.207773	396.973000
2233.813534	393.557000
2235.418984	402.750000
2237.022449	407.166000
2238.627277	388.712000
2240.230121	399.362000
2241.830982	393.553000
2243.433206	396.731000
2245.033448	409.493000
2246.635052	398.664000
2248.233003	399.342000
2249.832317	411.813000
2251.429651	403.696000
2253.026677	402.949000
2254.625065	400.926000
2256.219804	417.681000
2257.812566	407.856000
2259.406691	414.831000
2261.002177	404.440000
2262.594018	401.769000
2264.185553	410.541000
2265.778450	401.276000
2267.366037	409.608000
2268.958320	408.639000
2270.545297	415.281000
2272.135301	416.773000
2273.720001	409.417000
2275.309395	413.386000
2276.893487	419.935000
2278.478939	424.609000
2280.062423	427.737000
2281.648932	423.453000
2283.231808	418.371000
2284.814381	432.194000
2286.396650	415.862000
2287.975289	428.345000
2289.556953	418.881000
2291.134988	417.181000
2292.716046	412.657000
2294.293477	419.011000
2295.868945	425.365000
2297.447435	426.463000
2299.022301	417.300000
2300.596866	426.894000
2302.171131	421.843000
2303.745095	424.004000
2305.318758	429.843000
2306.892122	429.855000
2308.461867	431.682000
2310.031313	429.753000
2311.603777	431.910000
2313.170967	433.168000
2314.741175	443.001000
2316.307768	433.382000
2317.875721	429.492000
2319.441718	437.851000
2321.007418	434.191000
2322.572820	449.712000
2324.136269	444.439000
2325.701077	444.477000
2327.262277	444.956000
2328.826491	453.618000
2330.385443	450.450000
2331.947410	451.436000
2333.507425	442.901000
2335.067146	454.589000
2336.624917	453.192000
2338.182393	452.468000
2339.739575	458.983000
2341.294809	463.186000
2342.849750	455.520000
2344.404396	467.946000
2345.958749	459.575000
2347.512809	459.694000
2349.066574	460.074000
2350.618395	462.124000
2352.168274	468.924000
2353.721160	472.278000
2355.268803	467.827000
2356.819455	476.922000
2358.366515	468.714000
2359.914933	467.288000
2361.463060	471.442000
2363.007598	471.799000
2364.553494	468.945000
2366.097452	478.612000
2367.642767	467.631000
2369.184497	484.569000
2370.727584	477.366000
2372.268735	484.957000
2373.809597	480.964000
2375.350170	489.026000
2376.890454	487.430000
2378.430449	483.771000
2379.966866	484.289000
2381.506284	479.898000
2383.042124	489.144000
2384.579322	487.589000
2386.112944	485.606000
2387.649566	492.356000
2389.184258	490.867000
2390.717020	497.532000
2392.249495	496.792000
2393.780042	505.021000
2395.313587	499.802000
2396.841921	506.715000
2398.371612	501.129000
2399.901016	504.954000
2401.430136	507.306000
2402.958971	506.662000
2404.482600	510.150000
2406.010865	518.646000
2407.533928	512.237000
2409.061624	518.972000
2410.582481	514.459000
2412.107971	520.619000
2413.629900	521.205000
2415.153185	520.724000
2416.674548	525.549000
2418.193992	529.100000
2419.714791	524.674000
2421.233672	534.198000
2422.752270	526.150000
2424.268951	524.480000
2425.786986	531.100000
2427.304740	532.300000
2428.818943	530.932000
2430.332865	533.703000
2431.846507	537.932000
2433.361504	543.420000
2434.872952	551.349000
2436.385755	551.561000
2437.896644	551.352000
2439.407255	557.848000
2440.915954	548.407000
2442.427639	551.562000
2443.935781	551.255000
2445.443645	556.840000
2446.951231	552.185000
2448.455276	559.727000
2449.962306	566.186000
2451.467428	561.449000
2452.972273	573.734000
2454.475211	574.631000
2455.977873	569.536000
2457.480258	580.630000
2458.980738	578.738000
2460.482571	581.934000
2461.982499	578.884000
2463.482152	587.537000
2464.981530	584.968000
2466.479005	586.820000
2467.974578	586.346000
2469.473131	581.167000
2470.968156	582.358000
2472.464533	582.013000
2473.957384	581.686000
2475.451588	589.518000
2476.945518	583.419000
2478.435924	573.861000
2479.929308	581.671000
2481.420794	585.956000
2482.910383	588.632000
2484.399700	589.720000
2485.887121	581.991000
2487.377518	590.225000
2488.864397	590.245000
2490.352627	577.862000
2491.837340	586.913000
2493.321784	582.212000
2494.807578	592.696000
2496.291481	586.767000
2497.776734	596.402000
2499.256854	586.322000
2500.739947	592.561000
2502.221149	593.333000
2503.702082	582.250000
2505.181126	589.945000
2506.659901	586.217000
2508.138408	585.746000
2509.616647	587.188000
2511.094617	586.107000
2512.569082	582.453000
2514.046517	587.719000
2515.520448	590.053000
2516.995729	590.013000
2518.470743	585.227000
2519.942256	583.971000
2521.415120	592.655000
2522.886101	584.751000
2524.358432	583.822000
2525.825649	588.941000
2527.295833	581.272000
2528.764136	593.406000
2530.232174	589.606000
2531.699947	584.426000
2533.167455	587.948000
2534.634698	594.349000
2536.098449	596.206000
2537.563550	587.424000
2539.026774	593.396000
2540.491347	601.474000
2541.952432	599.767000
2543.414866	601.412000
2544.877037	608.439000
2546.335722	604.973000
2547.798978	604.362000
2549.257139	604.476000
2550.716648	607.160000
2552.171063	605.484000
2553.630049	607.972000
2555.087163	607.886000
2556.542406	606.105000
2557.997387	610.732000
2559.450500	606.491000
2560.904961	607.326000
2562.357552	610.231000
2563.809884	611.056000
2565.260349	612.404000
2566.713769	625.451000
2568.162107	613.242000
2569.613400	617.030000
2571.062828	622.923000
2572.508783	612.264000
2573.957693	622.823000
2575.403133	619.736000
2576.849920	621.627000
2578.294845	619.534000
2579.739511	622.540000
2581.185525	625.051000
2582.628073	619.577000
2584.071968	623.526000
2585.512398	621.048000
2586.954175	632.478000
2588.394093	633.543000
2589.835358	635.522000
2591.273161	635.995000
2592.713914	629.939000
2594.149605	639.695000
2595.588245	639.833000
2597.025027	644.856000
2598.459954	639.428000
2599.897828	637.328000
2601.330645	642.806000
2602.764809	638.866000
2604.197119	650.054000
2605.630775	646.593000
2607.062578	642.829000
2608.494127	640.617000
2609.925424	646.751000
2611.354868	649.290000
2612.784060	649.770000
2614.211402	646.693000
2615.640089	652.412000
2617.068525	655.067000
2618.493513	659.543000
2619.919848	655.823000
2621.344334	651.814000
2622.770166	658.819000
2624.192554	661.724000
2625.616288	662.017000
2627.038175	662.480000
2628.459813	666.681000
2629.879605	655.957000
2631.300743	657.191000
2632.721631	668.064000
2634.139081	653.262000
2635.559470	663.332000
2636.976422	660.701000
2638.393125	659.397000
2639.809580	666.077000
2641.225787	675.646000
2642.641746	667.395000
2644.055864	664.547000
2645.469734	671.302000
2646.881766	669.080000
2648.295141	666.101000
2649.705087	672.808000
2651.117969	666.023000
2652.527422	677.385000
2653.936629	676.774000
2655.344000	673.131000
2656.754305	675.335000
2658.162775	666.209000
2659.569409	680.477000
2660.975798	684.152000
2662.380353	671.241000
2663.786252	688.709000
2665.190318	680.461000
2666.594139	682.179000
2667.997716	686.017000
2669.399462	688.805000
2670.802551	690.377000
2672.202222	683.143000
2673.603237	677.036000
2675.000836	678.778000
2676.401365	675.278000
2677.798478	678.181000
2679.196935	664.914000
2680.593565	676.512000
2681.989952	664.789000
2683.386097	672.496000
2684.780416	663.982000
2686.176078	672.688000
2687.568331	666.522000
2688.961926	672.659000
2690.353697	669.980000
2691.746811	668.919000
2693.138101	665.984000
2694.527568	680.818000
2695.916795	671.477000
2697.305783	662.196000
2698.696112	667.064000
2700.081458	672.120000
2701.469727	671.248000
2702.856176	661.830000
2704.242386	668.635000
2705.628357	666.947000
2707.010930	669.003000
2708.394845	671.127000
2709.778522	678.538000
2711.161960	679.938000
2712.542004	663.358000
2713.923388	678.646000
2715.302958	678.192000
2716.683868	676.271000
2718.062964	675.904000
2719.440246	675.867000
2720.818869	679.550000
2722.195679	685.873000
2723.572252	681.667000
2724.948590	686.168000
2726.323117	689.136000
2727.698984	687.376000
2729.071464	685.354000
2730.446860	691.579000
2731.817296	684.310000
2733.189073	696.008000
2734.560615	692.027000
2735.930349	690.687000
2737.301424	696.441000
2738.670690	693.164000
2740.039723	694.349000
2741.406950	700.767000
2742.773943	701.061000
2744.140704	698.002000
2745.507233	700.420000
2746.871956	715.623000
2748.236447	706.794000
2749.600707	694.991000
2750.964734	712.211000
2752.328530	705.191000
2753.688952	720.242000
2755.052284	708.126000
2756.410674	713.809000
2757.771974	714.347000
2759.129904	708.062000
2760.490742	704.969000
2761.849781	708.766000
2763.205451	711.604000
2764.564029	707.450000
2765.919240	713.267000
2767.274222	716.197000
2768.627408	715.219000
2769.983500	710.602000
2771.336227	722.064000
2772.688727	714.191000
2774.040998	716.491000
2775.394607	720.183000
2776.744856	722.668000
2778.093310	713.968000
2779.444670	716.717000
2780.792670	712.124000
2782.142008	722.897000
2783.489554	717.749000
2784.836874	732.305000
2786.183967	728.172000
2787.529269	731.429000
2788.874344	730.088000
2790.219194	726.246000
2791.563818	728.431000
2792.905090	730.478000
2794.247700	738.001000
2795.590084	733.875000
2796.932243	736.645000
2798.271053	744.105000
2799.612763	742.761000
2800.951125	737.391000
2802.290823	748.342000
2803.628737	750.977000
2804.964866	741.247000
2806.300771	740.261000
2807.638014	742.905000
2808.973473	752.550000
2810.308709	752.216000
2811.642162	752.787000
2812.976952	749.858000
2814.308402	760.625000
2815.642747	760.363000
2816.972194	758.876000
2818.302978	764.059000
2819.633540	771.116000
2820.962323	764.814000
2822.292442	769.780000
2823.620783	763.617000
2824.948903	769.838000
2826.275245	766.879000
2827.602924	773.124000
2828.927269	772.308000
2830.252951	772.452000
2831.576857	779.497000
2832.900544	771.250000
2834.225566	774.478000
2835.547258	773.233000
2836.868732	762.810000
2838.189987	779.023000
2839.511023	775.811000
2840.830286	778.516000
2842.150885	785.554000
2843.469713	785.827000
2844.788322	773.336000
2846.105160	776.722000
2847.421781	773.600000
2848.738185	781.367000
2850.052819	779.016000
2851.368789	786.911000
2852.681438	782.077000
2853.995422	784.972000
2855.309190	786.943000
2856.622741	788.709000
2857.934526	794.584000
2859.244544	792.919000
2860.555897	791.807000
2861.863935	807.632000
2863.173307	797.278000
2864.482465	803.840000
2865.791407	802.688000
2867.098585	809.911000
2868.404001	811.978000
2869.710750	810.916000
2871.015738	814.405000
2872.320512	815.618000
2873.623524	815.842000
2874.929417	820.866000
2876.230456	819.203000
2877.532829	829.059000
2878.833442	827.134000
2880.135389	823.825000
2881.437122	825.156000
2882.735552	833.048000
2884.035315	834.802000
2885.333321	830.084000
2886.631115	837.846000
2887.927153	824.944000
2889.224524	834.822000
2890.520139	831.894000
2891.815543	830.171000
2893.110736	849.341000
2894.402632	837.620000
2895.697404	836.647000
2896.988879	847.042000
2898.281687	833.686000
2899.574285	824.676000
2900.863589	847.558000
2902.154225	834.026000
2903.443110	835.631000
2904.733327	845.327000
2906.020253	843.033000
2907.308511	847.048000
2908.595020	854.926000
2909.881320	848.993000
2911.167413	848.146000
2912.451757	852.481000
2913.738972	837.728000
2915.021361	854.692000
2916.305082	857.234000
2917.587057	845.296000
2918.868824	854.094000
2920.148847	849.811000
2921.431739	859.543000
2922.712886	857.542000
2923.990751	863.700000
2925.271485	861.243000
2926.548938	862.332000
2927.826185	860.453000
2929.101690	860.142000
2930.380063	860.762000
2931.653622	857.985000
2932.930048	861.725000
2934.204733	860.273000
2935.477677	863.435000
2936.751953	859.969000
2938.024489	861.338000
2939.296820	863.892000
2940.565879	877.371000
2941.837803	864.467000
2943.107989	873.008000
2944.377971	867.347000
2945.647750	867.538000
2946.915793	867.622000
2948.182099	866.753000
2949.448204	876.549000
2950.715638	884.138000
2951.981338	877.169000
2953.246835	883.700000
2954.512130	884.068000
2955.774160	869.735000
2957.037520	889.645000
2958.300679	887.156000
2959.562106	895.342000
2960.824862	888.017000
2962.085886	897.109000
2963.345180	881.846000
2964.604274	896.820000
2965.863167	888.513000
2967.121860	901.053000
2968.380353	885.798000
2969.637117	895.413000
2970.893681	898.866000
2972.148518	897.710000
2973.404683	898.963000
2974.657594	915.356000
2975.911834	904.620000
2977.165875	916.567000
2978.418190	907.024000
2979.670306	908.142000
2980.920698	899.893000
2982.173945	909.994000
2983.422415	908.356000
2984.673740	915.791000
2985.921815	914.284000
2987.169694	917.219000
2988.417375	918.330000
2989.664859	922.351000
2990.910622	921.518000
2992.156189	917.099000
2993.403083	927.656000
2994.646733	914.443000
2995.891711	933.006000
2997.133445	930.140000
2998.378031	929.907000
2999.620898	933.116000
3000.860524	928.460000
3002.103000	937.330000
3003.342236	933.162000
3004.582800	934.658000
3005.821648	945.004000
3007.060300	939.062000
3008.297237	941.364000
3009.535502	929.394000
3010.772051	949.984000
3012.008407	943.766000
3013.244569	952.038000
3014.479017	951.669000
3015.713273	948.305000
3016.947335	954.083000
3018.179685	962.011000
3019.410323	953.155000
3020.643807	955.945000
3021.875579	958.149000
3023.105641	964.857000
3024.335510	967.982000
3025.563671	961.220000
3026.793157	974.020000
3028.020934	968.880000
3029.248520	969.645000
3030.477433	973.612000
3031.701603	967.424000
3032.928616	979.554000
3034.152405	973.732000
3035.377521	969.688000
3036.600930	979.566000
3037.824149	978.510000
3039.045663	978.996000
3040.270018	976.998000
3041.489638	986.287000
3042.710584	982.009000
3043.931341	982.459000
3045.150394	982.738000
3046.370772	998.010000
3047.587934	981.386000
3048.806422	985.354000
3050.023207	993.402000
3051.239805	993.899000
3052.456214	986.129000
3053.669411	986.525000
3054.885445	994.342000
3056.098267	989.723000
3057.313926	999.902000
3058.524862	1006.820000
3059.737123	995.717000
3060.949198	1010.776000
3062.161085	998.258000
3063.371276	1006.684000
3064.581280	1014.850000
3065.791098	996.302000
3066.999220	1015.070000
3068.207157	1008.977000
3069.413398	1006.477000
3070.620964	1014.465000
3071.826835	1020.954000
3073.032522	1027.443000
3074.238023	1017.637000
3075.441831	1020.504000
3076.646963	1011.246000
3077.850402	1041.841000
3079.052150	1030.913000
3080.253713	1032.397000
3081.455093	1030.021000
3082.656289	1028.810000
3083.855795	1023.087000
3085.055118	1029.348000
3086.255764	1030.902000
3087.454720	1032.886000
3088.650482	1021.256000
3089.849073	1032.225000
3091.044470	1026.848000
3092.241190	1040.296000
3093.434718	1022.200000
3094.631074	1028.545000
3095.825744	1025.871000
3097.017223	1030.307000
3098.213033	1028.766000
3099.404149	1032.650000
3100.596589	1032.108000
3101.785841	1030.901000
3102.977918	1038.687000
3104.168312	1030.012000
3105.355520	1050.753000
3106.544051	1039.915000
3107.733903	1041.676000
3108.920572	1038.793000
3110.107060	1046.722000
3111.293370	1046.489000
3112.481001	1040.140000
3113.665450	1041.559000
3114.848220	1044.474000
3116.033812	1041.499000
3117.217725	1034.426000
3118.399959	1046.782000
3119.582014	1046.281000
3120.763891	1051.773000
3121.945590	1049.073000
3123.125612	1047.629000
3124.303957	1053.727000
3125.485122	1044.989000
3126.663112	1049.511000
3127.840926	1054.229000
3129.018562	1042.981000
3130.194523	1045.654000
3131.370307	1056.830000
3132.547413	1057.396000
3133.722844	1050.184000
3134.896602	1041.668000
3136.068687	1049.977000
3137.242094	1057.859000
3138.415324	1064.111000
3139.586883	1057.741000
3140.759762	1068.559000
3141.929474	1057.671000
3143.100507	1063.069000
3144.269870	1066.578000
3145.437562	1066.796000
3146.608070	1070.685000
3147.773920	1064.051000
3148.944078	1053.648000
3150.109580	1074.324000
3151.274907	1073.004000
3152.440061	1058.538000
3153.605042	1072.346000
3154.771342	1066.712000
3155.932990	1062.647000
3157.095957	1056.951000
3158.258752	1067.403000
3159.421374	1055.018000
3160.582331	1044.822000
3161.743115	1046.147000
3162.903727	1053.253000
3164.062675	1038.841000
3165.221452	1046.944000
3166.380057	1046.316000
3167.538489	1041.260000
3168.696751	1049.976000
3169.853350	1043.039000
3171.008288	1045.441000
3172.164545	1050.200000
3173.319141	1035.871000
3174.473567	1051.882000
3175.626333	1046.369000
3176.778928	1051.707000
3177.931354	1048.636000
3179.083610	1059.098000
3180.235695	1050.514000
3181.384635	1053.333000
3182.536381	1069.945000
3183.686469	1054.461000
3184.834901	1072.315000
3185.983163	1065.481000
3187.131257	1078.466000
3188.279182	1093.091000
3189.425451	1083.393000
3190.571552	1095.539000
3191.715999	1090.993000
3192.860278	1090.749000
3194.004389	1098.984000
3195.149817	1090.069000
3196.292107	1102.527000
3197.434230	1094.858000
3198.576185	1098.366000
3199.717973	1096.605000
3200.859594	1093.435000
3201.998080	1108.852000
3203.137883	1098.426000
3204.279004	1108.333000
3205.416990	1105.839000
3206.553327	1104.797000
3207.689498	1096.595000
3208.826986	1115.731000
3209.962826	1106.558000
3211.099983	1107.492000
3212.232527	1100.175000
3213.369353	1125.620000
3214.501567	1111.710000
3215.635098	1110.953000
3216.768465	1107.082000
3217.898704	1106.120000
3219.031741	1103.661000
3220.161652	1097.422000
3221.292879	1090.120000
3222.420982	1090.244000
3223.551881	1091.921000
3224.681136	1097.088000
3225.808748	1086.031000
3226.933237	1089.314000
3228.062002	1104.767000
3229.187645	1093.066000
3230.313126	1090.839000
3231.436965	1104.831000
3232.563598	1093.528000
3233.685634	1102.906000
3234.808986	1097.691000
3235.932176	1100.943000
3237.055203	1098.744000
3238.176592	1104.546000
3239.297818	1105.466000
3240.417407	1110.996000
3241.536834	1095.628000
3242.654623	1117.722000
3243.775204	1106.506000
3244.892672	1116.692000
3246.009979	1121.962000
3247.127126	1127.229000
3248.242637	1126.063000
3249.359462	1138.806000
3250.473178	1137.415000
3251.589683	1143.367000
3252.704554	1141.677000
3253.816316	1143.521000
3254.927918	1138.905000
3256.040836	1145.562000
3257.153594	1148.026000
3258.263246	1144.143000
3259.374213	1146.604000
3260.485021	1143.631000
3261.594197	1149.176000
3262.701743	1155.899000
3263.810602	1137.609000
3264.919304	1148.038000
3266.024903	1155.972000
3267.131816	1167.560000
3268.237100	1156.368000
3269.343698	1167.406000
3270.447196	1164.158000
3271.552009	1164.041000
3272.656664	1158.763000
3273.758220	1159.852000
3274.859620	1164.198000
3275.962334	1170.362000
3277.064892	1167.851000
3278.164353	1171.658000
3279.266598	1174.148000
3280.365747	1163.057000
3281.463272	1175.083000
3282.560641	1179.054000
3283.660792	1166.476000
3284.757851	1178.537000
3285.854754	1168.083000
3286.951502	1172.541000
3288.043692	1169.662000
3289.140130	1168.004000
3290.234946	1159.835000
3291.329608	1180.073000
3292.422648	1171.188000
3293.515533	1175.106000
3294.606799	1171.560000
3295.699376	1166.245000
3296.790334	1177.117000
3297.879672	1167.932000
3298.968857	1168.741000
3300.059355	1171.971000
3301.146768	1174.881000
3302.234028	1179.890000
3303.322601	1166.570000
3304.411022	1183.174000
3305.494895	1177.909000
3306.583010	1189.508000
3307.668043	1188.593000
3308.751461	1193.278000
3309.836191	1189.079000
3310.919305	1196.929000
3312.003732	1203.485000
3313.085080	1200.753000
3314.167740	1205.012000
3315.248786	1192.133000
3316.329681	1195.640000
3317.408962	1199.675000
3318.488093	1194.003000
3319.568536	1191.151000
3320.645904	1201.465000
3321.724584	1201.778000
3322.801652	1206.156000
3323.878571	1204.506000
3324.953878	1205.375000
3326.029036	1214.107000
3327.105505	1216.193000
3328.178904	1216.723000
3329.252154	1215.239000
3330.326714	1205.548000
3331.399666	1203.471000
3332.471009	1217.381000
3333.543663	1205.127000
3334.613251	1200.296000
3335.684149	1200.695000
3336.753440	1200.348000
3337.824042	1193.851000
3338.893037	1207.984000
3339.960426	1192.571000
3341.026210	1195.617000
3342.096220	1195.004000
3343.163167	1193.761000
3344.227052	1195.166000
3345.293705	1199.031000
3346.358753	1191.477000
3347.422198	1203.173000
3348.485497	1201.557000
3349.548649	1195.817000
3350.611655	1204.063000
3351.674515	1201.110000
3352.735773	1204.056000
3353.793974	1209.267000
3354.856395	1206.424000
3355.915761	1199.102000
3356.974981	1206.621000
3358.035511	1201.751000
3359.091531	1202.642000
3360.150315	1219.815000
3361.204592	1212.375000
3362.261633	1218.595000
3363.317075	1228.741000
3364.373827	1217.832000
3365.428980	1215.094000
3366.482536	1221.964000
3367.534496	1219.325000
3368.589217	1233.461000
3369.640889	1220.408000
3370.692418	1231.689000
3371.745255	1227.328000
3372.795045	1234.148000
3373.846144	1221.534000
3374.894197	1228.551000
3375.945009	1230.113000
3376.992777	1231.910000
3378.040402	1237.792000
3379.087884	1231.432000
3380.133774	1237.882000
3381.180972	1225.889000
3382.225128	1232.508000
3383.272042	1239.020000
3384.317364	1222.740000
3385.359645	1225.711000
3386.401786	1240.184000
3387.445234	1241.663000
3388.488541	1233.501000
3389.530259	1229.187000
3390.571835	1238.359000
3391.613270	1238.737000
3392.653117	1236.768000
3393.691375	1233.752000
3394.730941	1246.163000
3395.770367	1238.694000
3396.808205	1246.495000
3397.844456	1237.399000
3398.880568	1233.799000
3399.917987	1240.266000
3400.952373	1235.835000
3401.988066	1243.013000
3403.023620	1245.404000
3404.056143	1243.795000
3405.091419	1238.206000
3406.123664	1240.126000
3407.155771	1242.347000
3408.186294	1255.201000
3409.218124	1243.630000
3410.249816	1249.911000
3411.278480	1243.222000
3412.307007	1255.863000
3413.336840	1246.040000
3414.366536	1248.018000
3415.393206	1243.003000
3416.421183	1250.819000
3417.446135	1251.292000
3418.473837	1252.868000
3419.498516	1259.685000
3420.524501	1258.336000
3421.548906	1252.165000
3422.573175	1247.793000
3423.595865	1255.232000
3424.618419	1250.492000
3425.642279	1249.928000
3426.663119	1254.116000
3427.683823	1242.039000
3428.705834	1251.574000
3429.724826	1239.212000
3430.743682	1248.597000
3431.763845	1236.230000
3432.780991	1247.600000
