-116.475622	47.800000
-113.806022	45.900000
-111.139357	36.900000
-108.473444	31.700000
-105.810463	34.500000
-103.146053	60.300000
-100.484573	41.400000
-97.821664	49.900000
-95.163861	55.300000
-92.504629	22.500000
-89.846145	67.900000
-87.190585	27.700000
-84.533597	50.300000
-81.881707	46.100000
-79.228387	50.300000
-76.577986	41.300000
-73.926156	49.500000
-71.279417	60.700000
-68.631249	49.200000
-65.983823	54.900000
-63.339311	36.000000
-60.693371	40.600000
-58.052512	37.200000
-55.410224	55.800000
-52.770845	36.500000
-50.130036	55.100000
-47.489968	47.200000
-44.854972	50.200000
-42.218548	55.500000
-39.585026	61.000000
-36.950076	42.000000
-34.320191	67.100000
-31.686714	56.800000
-29.058299	59.400000
-26.430618	61.000000
-23.801508	59.600000
-21.177455	82.400000
-18.549813	75.800000
-15.927224	106.200000
-13.305367	144.400000
-10.684240	204.900000
-8.063843	429.200000
-5.446335	1533.300000
-2.827398	4613.200000
-0.211346	10139.700000
2.403977	10500.800000
5.018573	5155.900000
7.630286	479.100000
10.243428	143.200000
12.851536	91.300000
15.463226	92.000000
18.069885	87.000000
20.677972	76.400000
23.285335	68.800000
25.887673	98.400000
28.493589	72.400000
31.094483	64.500000
33.696805	63.600000
36.294110	80.600000
38.894990	79.600000
41.490855	93.600000
44.088149	74.000000
46.684723	81.700000
49.276288	64.800000
51.869281	94.300000
54.459413	73.700000
57.050973	80.300000
59.639673	67.300000
62.229800	91.900000
64.814928	98.600000
67.401484	100.600000
69.987326	105.200000
72.570314	108.700000
75.154728	94.400000
77.732014	106.300000
80.312866	81.400000
82.890869	106.800000
85.468162	104.400000
88.046881	110.900000
90.620618	111.000000
93.195783	124.400000
95.768104	117.300000
98.339717	140.400000
100.908490	141.200000
103.478690	155.100000
106.046052	175.800000
108.614839	221.100000
111.180790	240.400000
113.743906	321.300000
116.310578	385.600000
118.868029	542.400000
121.431165	756.900000
123.989341	1104.900000
126.551072	1623.300000
129.107846	2369.500000
131.666047	3548.600000
134.219294	5295.700000
136.771844	7688.500000
139.327944	10792.000000
141.879096	14152.100000
144.429551	17372.100000
146.979308	19753.000000
149.526246	21632.800000
152.072489	22532.800000
154.620157	23037.600000
157.167129	23313.800000
159.709166	23043.600000
162.250509	22987.200000
164.791159	22984.300000
167.333235	22630.700000
169.872499	22761.100000
172.408955	22563.300000
174.944719	22360.000000
177.481909	22328.800000
180.018408	22097.300000
182.552101	22077.700000
185.082990	21911.400000
187.613192	21793.500000
190.144818	21779.800000
192.673643	21765.800000
195.199669	21816.400000
197.725009	21684.000000
200.251774	21560.800000
202.775743	21580.400000
205.299027	21657.900000
207.821626	21540.300000
210.341432	21415.600000
212.860555	21423.400000
215.378995	21437.400000
217.898859	21392.800000
220.411722	21497.700000
222.928116	21523.700000
225.443828	21614.500000
227.954650	21559.000000
230.466897	21794.700000
232.976362	21519.300000
235.485148	21662.200000
237.993255	21766.100000
240.502787	21852.200000
243.007438	21783.000000
245.511413	21729.100000
248.016812	21939.600000
250.517336	21960.500000
253.021384	21948.600000
255.518460	21961.600000
258.019060	22057.600000
260.516888	22062.900000
263.014043	21967.900000
265.510525	22148.800000
268.002144	22140.100000
270.497283	22216.300000
272.989655	22243.400000
275.481357	22223.900000
277.970296	22255.700000
280.460659	22115.900000
282.948259	22071.700000
285.433100	22179.200000
287.921456	22180.200000
290.402872	22064.800000
292.887802	22022.000000
295.367887	22130.100000
297.851484	22020.800000
300.330238	22226.600000
302.810416	22234.000000
305.287841	22149.300000
307.764603	22009.900000
310.240702	22094.800000
312.714052	22165.700000
315.186740	22165.700000
317.658767	22053.700000
320.130133	22306.000000
322.598754	22371.200000
325.066717	22453.200000
327.536101	22138.200000
330.000663	22208.600000
332.468729	22053.800000
334.931975	21988.900000
337.394563	22053.000000
339.856495	21866.100000
342.317770	21933.500000
344.776311	21907.100000
347.236274	21572.000000
349.693504	21453.100000
352.150080	21395.600000
354.606002	21357.000000
357.059194	21077.300000
359.513809	20921.100000
361.963622	20748.500000
364.416931	20540.000000
366.865442	20261.600000
369.313301	20057.400000
371.762583	19896.500000
374.207071	19762.900000
376.652981	19434.100000
379.098241	19200.100000
381.540783	19151.600000
383.982677	18908.000000
386.423924	18767.200000
388.862455	18640.500000
391.302408	18294.400000
393.739647	18175.700000
396.174174	17923.400000
398.612189	17996.500000
401.045427	17631.300000
403.480086	17501.400000
405.909973	17411.900000
408.343345	17283.200000
410.771947	17109.200000
413.199907	16969.900000
415.629289	16874.500000
418.053905	16931.900000
420.479943	16753.700000
422.905340	16652.500000
425.330097	16621.700000
427.750096	16649.900000
430.171516	16662.900000
432.590239	16469.600000
435.010383	16578.100000
437.427832	16574.100000
439.846701	16440.100000
442.262877	16455.700000
444.674305	16511.000000
447.089211	16474.300000
449.501426	16358.500000
451.913007	16543.100000
454.323954	16486.200000
456.732215	16464.800000
459.139843	16395.600000
461.546839	16393.100000
463.953204	16301.400000
466.356886	16318.800000
468.759938	16241.700000
471.162360	16128.700000
473.564152	16287.600000
475.963267	16102.800000
478.363801	16110.200000
480.763706	16107.400000
483.158888	15979.000000
485.557537	16093.300000
487.951466	15820.800000
490.344769	15888.200000
492.737446	15810.100000
495.129498	15798.000000
497.522968	15676.100000
499.911726	15659.400000
502.297818	15657.600000
504.685330	15493.100000
507.072219	15418.300000
509.456444	15490.100000
511.842087	15462.700000
514.225069	15391.900000
516.605390	15293.800000
518.987130	15398.600000
521.366211	15329.200000
523.746711	15360.500000
526.124553	15213.600000
528.499740	15337.500000
530.874309	15083.700000
533.250296	15119.800000
535.623631	15036.800000
537.998383	14867.900000
540.368450	14769.400000
542.737901	14627.400000
545.108770	14477.400000
547.474959	14174.600000
549.842566	14168.100000
552.207527	13996.500000
554.571875	13657.000000
556.935610	13520.000000
559.300763	13486.900000
561.661244	13241.700000
564.023143	13086.600000
566.382401	12850.400000
568.739022	12706.300000
571.099087	12514.300000
573.452461	12286.700000
575.809280	12072.100000
578.163464	11904.200000
580.517039	11683.100000
582.870007	11496.000000
585.220342	11319.000000
587.572095	11187.300000
589.917171	10995.800000
592.267711	10778.600000
594.611577	10584.800000
596.960905	10574.700000
599.305584	10372.800000
601.647639	10308.900000
603.991111	10086.100000
606.331960	10056.000000
608.672207	9911.900000
611.009833	9938.000000
613.350894	9801.500000
615.687317	9766.600000
618.025157	9703.900000
620.360380	9667.800000
622.692987	9732.500000
625.027010	9689.100000
627.358419	9823.400000
629.689230	9743.500000
632.019444	9713.200000
634.349059	9707.900000
636.674051	9672.600000
639.004485	9731.600000
641.330298	9740.200000
643.653503	9755.000000
645.978125	9648.500000
648.300141	9739.300000
650.621563	9714.200000
652.940383	9792.500000
655.260618	9835.200000
657.580260	9981.600000
659.897301	9936.200000
662.213750	10067.500000
664.527601	10112.900000
666.842868	10245.700000
669.155538	10368.100000
671.469623	10408.900000
673.779108	10508.900000
676.090009	10640.200000
678.398317	10658.000000
680.706037	10833.600000
683.015171	10944.300000
685.319713	11158.100000
687.623669	11102.900000
689.927039	11241.200000
692.231823	11451.300000
694.532021	11493.400000
696.833633	11722.500000
699.134661	11672.500000
701.431106	11834.600000
703.728967	11988.600000
706.026244	12039.300000
708.322938	12118.000000
710.615056	12259.700000
712.910585	12411.300000
715.201540	12597.900000
717.493910	12600.900000
719.783705	12728.400000
722.072919	12828.600000
724.361554	12938.600000
726.647616	13013.500000
728.935093	13252.500000
731.219998	13250.100000
733.504326	13482.100000
735.786085	13535.700000
738.069258	13501.300000
740.351854	13598.900000
742.629894	13819.600000
744.909349	13963.300000
747.188227	14101.300000
749.466531	14225.400000
751.740285	14358.200000
754.015452	14435.500000
756.290046	14655.600000
758.562081	14718.400000
760.835529	14870.900000
763.106419	15010.200000
765.374753	15032.100000
767.644500	15145.200000
769.911693	15323.300000
772.178315	15477.100000
774.444367	15682.300000
776.707868	15637.300000
778.972782	15715.900000
781.237126	15953.300000
783.496941	15953.600000
785.758168	16002.600000
788.018828	16143.800000
790.276942	16299.800000
792.532511	16386.100000
794.791471	16443.200000
797.043932	16487.200000
799.301759	16553.000000
801.555068	16657.300000
803.805837	16730.000000
806.058018	16757.800000
808.307660	16831.400000
810.558715	16884.200000
812.805258	16880.600000
815.053213	16897.300000
817.298634	16975.100000
819.545466	17086.100000
821.791737	17254.200000
824.033503	17305.700000
826.278653	17447.200000
828.517330	17465.600000
830.759389	17544.000000
832.996950	17681.300000
835.235923	17931.300000
837.472369	17949.500000
839.710226	18041.000000
841.945558	18172.100000
844.178367	18446.400000
846.412587	18656.600000
848.644284	18782.700000
850.875427	19020.100000
853.106015	19314.000000
855.336049	19641.800000
857.565529	19837.300000
859.790527	20190.200000
862.018900	20461.600000
864.242793	20788.500000
866.468098	21205.900000
868.688927	21725.100000
870.913128	21956.700000
873.132856	22287.600000
875.353994	22740.900000
877.574582	23233.800000
879.792661	23804.900000
882.012149	24019.700000
884.227171	24408.700000
886.441645	24857.100000
888.655572	25169.500000
890.868952	25257.200000
893.081784	25412.700000
895.294070	25555.000000
897.503853	25733.600000
899.713091	25747.900000
901.921784	25707.600000
904.127978	25714.500000
906.335581	25424.600000
908.540686	25060.200000
910.745248	24878.400000
912.947315	24558.800000
915.150791	24043.700000
917.351773	23624.100000
919.552213	23017.400000
921.754062	22645.900000
923.949520	21861.600000
926.148337	21389.100000
928.342715	20849.100000
930.540451	19987.800000
932.733751	19640.300000
934.928460	19187.800000
937.120683	18611.000000
939.312367	18204.300000
941.503514	17808.600000
943.692178	17520.700000
945.880306	17503.200000
948.065953	17182.400000
950.254952	17039.400000
952.439528	17024.900000
954.623569	16889.300000
956.810960	16903.200000
958.990047	16952.500000
961.172485	17012.200000
963.354389	16872.300000
965.533818	16986.100000
967.710775	17106.800000
969.889140	17006.800000
972.068912	16997.100000
974.242335	16913.700000
976.419104	16725.000000
978.591466	16638.800000
980.765236	16492.800000
982.934602	16249.900000
985.107312	16108.000000
987.277557	15876.800000
989.447273	15556.200000
991.616460	15335.900000
993.781250	14971.700000
995.949381	14813.400000
998.113118	14397.500000
1000.278261	14218.100000
1002.440945	14010.900000
1004.603104	13752.600000
1006.762806	13600.200000
1008.921983	13232.700000
1011.082567	13014.300000
1013.240697	12692.200000
1015.398302	12602.600000
1017.555384	12396.300000
1019.711942	12066.200000
1021.864121	11969.500000
1024.017707	11760.800000
1026.170771	11660.100000
1028.321386	11469.500000
1030.473408	11287.900000
1032.621056	11217.400000
1034.772036	11034.200000
1036.918645	10941.700000
1039.064735	10881.300000
1041.210307	10776.900000
1043.357284	10597.600000
1045.497972	10444.400000
1047.641990	10321.200000
1049.783567	10335.500000
1051.924628	10172.500000
1054.067093	10083.500000
1056.203279	9926.400000
1058.342790	9828.700000
1060.477947	9695.400000
1062.616428	9677.700000
1064.750555	9537.400000
1066.884169	9389.200000
1069.019188	9305.700000
1071.149857	9173.900000
1073.281931	9035.900000
1075.411576	8899.200000
1077.540709	8821.900000
1079.669330	8608.100000
1081.797440	8629.100000
1083.923124	8520.200000
1086.048298	8347.700000
1088.174876	8204.500000
1090.297116	8049.700000
1092.420761	7911.900000
1094.540071	7725.900000
1096.664611	7615.300000
1098.782905	7445.100000
1100.902604	7275.700000
1103.019884	7167.300000
1105.136658	6936.200000
1107.252925	6888.700000
1109.366776	6670.500000
1111.482032	6462.700000
1113.592964	6323.800000
1115.707209	6181.400000
1117.817133	6011.900000
1119.928461	5865.900000
1122.039284	5705.300000
1124.145791	5560.800000
1126.255608	5453.400000
1128.361110	5303.900000
1130.468015	5163.100000
1132.568705	5005.000000
1134.674607	4955.800000
1136.776200	4801.500000
1138.879196	4720.400000
1140.981691	4553.800000
1143.077979	4453.000000
1145.179475	4351.800000
1147.276667	4273.000000
1149.373362	4121.000000
1151.469558	4104.500000
1153.565257	3959.600000
1155.660457	3873.400000
1157.753261	3769.100000
1159.847468	3691.500000
1161.935483	3573.900000
1164.028696	3483.600000
1166.115721	3454.500000
1168.206045	3350.300000
1170.292082	3250.300000
1172.381416	3232.100000
1174.464569	3144.600000
1176.549124	3054.300000
1178.635081	2997.200000
1180.716756	2953.300000
1182.799833	2867.400000
1184.880524	2798.000000
1186.960723	2781.800000
1189.040431	2762.700000
1191.119648	2679.000000
1193.196483	2633.000000
1195.270937	2584.000000
1197.348682	2568.100000
1199.422158	2541.800000
1201.497034	2505.000000
1203.567643	2473.600000
1205.639653	2415.900000
1207.709288	2429.100000
1209.780323	2348.100000
1211.850870	2335.800000
1213.917156	2346.600000
1215.984843	2322.700000
1218.050158	2325.200000
1220.116873	2303.900000
1222.179332	2247.600000
1224.245076	2226.700000
1226.306566	2232.300000
1228.369457	2204.500000
1230.429980	2216.600000
1232.490019	2197.300000
1234.549576	2139.300000
1236.606767	2184.600000
1238.663477	2178.000000
1240.717823	2155.900000
1242.775451	2141.500000
1244.830716	2138.400000
1246.881740	2110.600000
1248.934164	2098.100000
1250.986108	2097.500000
1253.035694	2111.500000
1255.084801	2086.100000
1257.133430	2101.300000
1259.181580	2091.700000
1261.229251	2090.800000
1263.272692	2080.800000
1265.319409	2040.300000
1267.363772	2037.700000
1269.407659	2060.100000
1271.449194	2009.400000
1273.488380	2015.700000
1275.530839	2035.500000
1277.569075	2040.800000
1279.608710	2022.800000
1281.647870	2027.200000
1283.682811	2032.500000
1285.719151	2034.400000
1287.753147	2041.300000
1289.788540	2011.000000
1291.819721	2012.500000
1293.852299	2013.400000
1295.884406	1999.700000
1297.914172	2007.700000
1299.945336	1963.200000
1301.972292	1990.600000
1304.000646	2003.000000
1306.024795	2004.300000
1308.052210	2008.900000
1310.075422	2021.800000
1312.100032	2005.700000
1314.122308	2020.900000
1316.145981	1977.500000
1318.167321	1997.800000
1320.188193	1954.600000
1322.208598	1983.800000
1324.224810	1973.300000
1326.242419	1985.700000
1328.257700	1988.900000
1330.276240	2015.800000
1332.290591	1990.300000
1334.302616	1974.300000
1336.317898	1940.700000
1338.328995	1979.100000
1340.341489	1961.100000
1342.349800	1985.200000
1344.361366	1981.200000
1346.366894	1994.900000
1348.375677	1958.500000
1350.380282	2017.100000
1352.388141	1982.700000
1354.395538	1988.000000
1356.396904	1994.000000
1358.399666	1994.400000
1360.401969	2006.100000
1362.403812	1987.300000
1364.405195	2035.900000
1366.404265	1991.300000
1368.402876	1971.300000
1370.401029	2002.300000
1372.398723	1978.900000
1374.392255	1974.100000
1376.387182	1994.800000
1378.381653	1988.800000
1380.375667	2008.500000
1382.367374	2014.200000
1384.358626	1994.400000
1386.347572	1992.300000
1388.337913	2009.900000
1390.327799	2010.400000
1392.315381	2003.700000
1394.302510	2002.300000
1396.287337	1969.200000
1398.273559	1982.500000
1400.257481	1991.300000
1402.240950	1997.300000
1404.223966	1948.100000
1406.204685	1993.300000
1408.186798	1980.100000
1410.166615	1939.000000
1412.145980	1944.000000
1414.121207	1965.000000
1416.099672	1947.800000
1418.075844	1981.200000
1420.051567	1968.700000
1422.026840	1960.500000
1423.999822	1926.200000
1425.972356	1965.600000
1427.944442	1903.000000
1429.916081	1918.400000
1431.883591	1948.700000
1433.856175	1915.600000
1435.820953	1887.800000
1437.790804	1928.600000
1439.756531	1878.200000
1441.723650	1900.000000
1443.688486	1835.600000
1445.649202	1879.300000
1447.614986	1868.000000
1449.574815	1857.800000
1451.536038	1851.000000
1453.498653	1863.300000
1455.457153	1813.500000
1457.415210	1849.500000
1459.372826	1845.800000
1461.329999	1820.000000
1463.284897	1841.300000
1465.241188	1820.900000
1467.195204	1783.600000
1469.148779	1826.900000
1471.100082	1811.700000
1473.052778	1763.000000
1475.003201	1779.100000
1476.953186	1804.800000
1478.902732	1804.200000
1480.850009	1795.900000
1482.795018	1778.400000
1484.741420	1772.800000
1486.687384	1764.400000
1488.632911	1796.700000
1490.576172	1764.000000
1492.518998	1783.200000
1494.459560	1771.100000
1496.401513	1763.700000
1498.341204	1752.100000
1500.280461	1778.500000
1502.219282	1749.500000
1504.155844	1732.100000
1506.093797	1733.600000
1508.029491	1737.500000
1509.964752	1735.200000
1511.897757	1696.600000
1513.830329	1704.200000
1515.762469	1738.800000
1517.694177	1693.800000
1519.623631	1729.500000
1521.554476	1702.000000
1523.484889	1726.000000
1525.411230	1705.800000
1527.338962	1747.600000
1529.264443	1689.900000
1531.189495	1695.100000
1533.114118	1704.400000
1535.038312	1703.000000
1536.960258	1664.600000
1538.883595	1685.500000
1540.804685	1707.100000
1542.723531	1714.600000
1544.643767	1696.800000
1546.561760	1699.200000
1548.479326	1659.300000
1550.394650	1639.200000
1552.311364	1698.900000
1554.224023	1698.600000
1556.139886	1681.900000
1558.053509	1684.800000
1559.964894	1646.200000
1561.877669	1617.700000
1563.786394	1673.200000
1565.696508	1668.400000
1567.606199	1633.900000
1569.515467	1651.400000
1571.422501	1632.100000
1573.327302	1641.100000
1575.233492	1598.400000
1577.137450	1598.300000
1579.040987	1637.500000
1580.944104	1629.500000
1582.844991	1592.700000
1584.747267	1601.600000
1586.647315	1589.300000
1588.548750	1614.300000
1590.446152	1604.500000
1592.343135	1587.800000
1594.239700	1580.100000
1596.137653	1610.700000
1598.029771	1611.700000
1599.925082	1592.100000
1601.819976	1590.600000
1603.712648	1607.600000
1605.604903	1571.600000
1607.494939	1604.000000
1609.384559	1581.400000
1611.273764	1599.000000
1613.162554	1590.900000
1615.049126	1577.400000
1616.937086	1562.600000
1618.821029	1562.400000
1620.706359	1584.400000
1622.591276	1580.300000
1624.473979	1572.800000
1626.358069	1564.500000
1628.238147	1530.000000
1630.119613	1588.200000
1631.998868	1552.500000
1633.879509	1533.500000
1635.754346	1544.600000
1637.634164	1539.400000
1639.509978	1557.700000
1641.385381	1551.600000
1643.262170	1520.300000
1645.133163	1530.900000
1647.007337	1539.900000
1648.877512	1535.800000
1650.750869	1544.600000
1652.622022	1542.600000
1654.490973	1530.300000
1656.361309	1508.600000
1658.227653	1529.600000
1660.095382	1529.700000
1661.960912	1551.600000
1663.827828	1544.900000
1665.690755	1500.000000
1667.555067	1503.700000
1669.417183	1495.500000
1671.278894	1500.000000
1673.141991	1480.600000
1675.002892	1518.300000
1676.861601	1518.800000
1678.719906	1495.500000
1680.579596	1506.600000
1682.433518	1490.800000
1684.290614	1500.100000
1686.147307	1501.600000
1688.000023	1505.500000
1689.855911	1486.700000
1691.707825	1493.100000
1693.559338	1489.700000
1695.410450	1491.700000
1697.261162	1453.200000
1699.111473	1492.000000
1700.959599	1442.000000
1702.809110	1476.200000
1704.652872	1468.700000
1706.501583	1480.900000
1708.344548	1471.300000
1710.190680	1464.000000
1712.032849	1457.200000
1713.878184	1474.900000
1715.717778	1476.600000
1717.558756	1489.200000
1719.401117	1449.900000
1721.239522	1434.900000
1723.079310	1438.600000
1724.916923	1454.600000
1726.754140	1473.600000
1728.589184	1439.300000
1730.425611	1467.800000
1732.259866	1474.700000
1734.093726	1452.800000
1735.927192	1442.400000
1737.756713	1472.900000
1739.589392	1477.900000
1741.418127	1432.300000
1743.250019	1421.800000
1745.077969	1432.300000
1746.905528	1443.300000
1748.732694	1468.500000
1750.559469	1432.700000
1752.385852	1439.100000
1754.208299	1413.000000
1756.033901	1412.200000
1757.855568	1429.800000
1759.678617	1416.000000
1761.499504	1413.900000
1763.320003	1435.000000
1765.141882	1414.500000
1766.958063	1433.100000
1768.777395	1427.500000
1770.592800	1417.400000
1772.411355	1424.700000
1774.225985	1459.700000
1776.040228	1414.200000
1777.854085	1452.400000
1779.667555	1440.300000
1781.478872	1439.500000
1783.291569	1412.900000
1785.103881	1430.600000
1786.912275	1385.000000
1788.722049	1463.900000
1790.527909	1393.200000
1792.336914	1410.000000
1794.142006	1438.100000
1795.948479	1391.500000
1797.754568	1384.700000
1799.556746	1400.000000
1801.362069	1401.900000
1803.163483	1402.000000
1804.966277	1389.500000
1806.765165	1400.600000
1808.565434	1392.500000
1810.365321	1386.300000
1812.163066	1387.600000
1813.960431	1399.800000
1815.757416	1405.800000
1817.554020	1390.700000
1819.348485	1367.200000
1821.144329	1384.900000
1822.934518	1366.100000
1824.729604	1387.700000
1826.519038	1400.100000
1828.311608	1405.800000
1830.102043	1372.600000
1831.890344	1379.400000
1833.681780	1396.600000
1835.467570	1378.900000
1837.254740	1393.100000
1839.039778	1389.900000
1840.827950	1386.200000
1842.612236	1357.700000
1844.394392	1378.100000
1846.177928	1396.500000
1847.959335	1345.500000
1849.742121	1361.600000
1851.521026	1365.000000
1853.301311	1372.500000
1855.079469	1350.300000
1856.859006	1372.300000
1858.636418	1384.600000
1860.411706	1396.100000
1862.188372	1387.600000
1863.962916	1381.500000
1865.738838	1350.400000
1867.509139	1379.700000
1869.282568	1353.900000
1871.053877	1364.500000
1872.824815	1377.000000
1874.597131	1409.700000
1876.363833	1377.100000
1878.133661	1377.500000
1879.899625	1372.300000
1881.668712	1355.800000
1883.433938	1355.400000
1885.198796	1377.900000
1886.965031	1362.200000
1888.727407	1345.300000
1890.489416	1345.500000
1892.251057	1356.800000
1894.012332	1359.300000
1895.773239	1343.500000
1897.533780	1354.900000
1899.292211	1365.800000
1901.050276	1314.300000
1902.806234	1361.100000
1904.563568	1349.700000
1906.320537	1360.900000
1908.075399	1342.800000
1909.828157	1359.700000
1911.580550	1342.900000
1913.334320	1334.400000
1915.085986	1336.200000
1916.835550	1367.900000
1918.586489	1299.600000
1920.337066	1358.700000
1922.083803	1328.500000
1923.831917	1353.400000
1925.577931	1340.400000
1927.325320	1318.700000
1929.070612	1320.800000
1930.813806	1339.600000
1932.558375	1302.600000
1934.300849	1340.800000
1936.042962	1332.700000
1937.784715	1340.500000
1939.526108	1342.200000
1941.265408	1337.000000
1943.004349	1373.300000
1944.742931	1330.200000
1946.479422	1342.900000
1948.215555	1331.550000
1949.953062	1320.200000
1951.686747	1352.400000
1953.421807	1345.300000
1955.154778	1350.000000
1956.887393	1322.800000
1958.619652	1312.300000
1960.351554	1339.600000
1962.081370	1354.000000
1963.809101	1332.300000
1965.538207	1347.200000
1967.266958	1329.600000
1968.993625	1340.800000
1970.719938	1319.700000
1972.447624	1330.000000
1974.169774	1312.700000
1975.895025	1329.100000
1977.616469	1338.000000
1979.341014	1336.100000
1981.063478	1333.400000
1982.782140	1348.200000
1984.503900	1350.100000
1986.221858	1349.500000
1987.941189	1340.400000
1989.656721	1320.700000
1991.377073	1310.300000
1993.093627	1330.600000
1994.806384	1289.800000
1996.522237	1344.400000
1998.236018	1332.600000
1999.949449	1359.400000
2001.660809	1323.600000
2003.373541	1354.800000
2005.082483	1331.200000
2006.794517	1334.900000
2008.501043	1338.700000
2010.210660	1321.400000
2011.918211	1335.100000
2013.625413	1345.400000
2015.330550	1352.800000
2017.035341	1336.000000
2018.741503	1361.500000
2020.443883	1317.200000
2022.147634	1342.200000
2023.849323	1366.500000
2025.550667	1339.400000
2027.251665	1321.000000
2028.950602	1327.000000
2030.650911	1350.200000
2032.347445	1330.700000
2034.045350	1355.900000
2035.741196	1325.400000
2037.440128	1353.000000
2039.133574	1347.800000
2040.828391	1322.000000
2042.522866	1327.200000
2044.213572	1343.700000
2045.907362	1308.500000
2047.597385	1330.000000
2049.288779	1296.400000
2050.978120	1341.900000
2052.668831	1313.800000
2054.355779	1310.500000
2056.042388	1308.100000
2057.730366	1299.600000
2059.414585	1309.000000
2061.100175	1301.600000
2062.785425	1315.800000
2064.468626	1301.800000
2066.153198	1311.300000
2067.832307	1332.400000
2069.516201	1312.500000
2071.194634	1289.900000
2072.876145	1297.400000
2074.553904	1307.900000
2076.231327	1318.100000
2077.910119	1304.600000
2079.586869	1319.600000
2081.261577	1274.300000
2082.937654	1301.300000
2084.611691	1299.800000
2086.285392	1296.900000
2087.958758	1322.000000
2089.630085	1269.800000
2091.301078	1280.900000
2092.971737	1268.200000
2094.642062	1300.600000
2096.312053	1276.500000
2097.980008	1297.700000
2099.647630	1295.200000
2101.313217	1305.200000
2102.980173	1277.900000
2104.645096	1300.200000
2106.309687	1293.500000
2107.972246	1274.800000
2109.636173	1314.200000
2111.298069	1339.200000
2112.959635	1301.400000
2114.620869	1313.000000
2116.280075	1306.300000
2117.938950	1335.800000
2119.597496	1292.500000
2121.255711	1325.800000
2122.910204	1317.200000
2124.567761	1305.900000
2126.224989	1292.400000
2127.878495	1304.200000
2129.533369	1297.600000
2131.184524	1327.600000
2132.838742	1292.800000
2134.489243	1299.300000
2136.141110	1333.600000
2137.787569	1295.300000
2139.438783	1285.800000
2141.086283	1295.400000
2142.735150	1285.700000
2144.381998	1312.500000
2146.028521	1301.200000
2147.674718	1314.100000
2149.317207	1298.800000
2150.962754	1283.600000
2152.604594	1250.900000
2154.249491	1303.800000
2155.890682	1282.700000
2157.531551	1306.500000
2159.172095	1270.200000
2160.810627	1287.000000
2162.450525	1287.400000
2164.086723	1307.600000
2165.724287	1273.500000
2167.361529	1266.000000
2168.996761	1251.800000
2170.631672	1250.700000
2172.266260	1224.600000
2173.900528	1312.100000
2175.531102	1245.500000
2177.164728	1281.600000
2178.794662	1287.000000
2180.425961	1262.100000
2182.055255	1263.200000
2183.684230	1274.800000
2185.312885	1270.700000
2186.941221	1263.400000
2188.567555	1250.800000
2190.193570	1248.600000
2191.817583	1244.900000
2193.442962	1263.200000
2195.066340	1230.200000
2196.691083	1248.500000
2198.312145	1247.700000
2199.932890	1250.400000
2201.555000	1223.700000
2203.175112	1273.400000
2204.793227	1222.200000
2206.411027	1202.800000
2208.028512	1243.000000
2209.645681	1240.700000
2211.262535	1224.600000
2212.879073	1216.000000
2214.493619	1220.300000
2216.106172	1255.800000
2217.720089	1243.800000
2219.332015	1243.400000
2220.945304	1211.400000
2222.556603	1230.000000
2224.165912	1235.400000
2225.776585	1227.100000
2227.385269	1207.300000
2228.993640	1254.400000
2230.600025	1218.800000
2232.207773	1235.000000
2233.813534	1208.500000
2235.418984	1250.800000
2237.022449	1226.000000
2238.627277	1236.300000
2240.230121	1226.400000
2241.830982	1239.700000
2243.433206	1219.200000
2245.033448	1222.500000
2246.635052	1224.800000
2248.233003	1236.200000
2249.832317	1216.000000
2251.429651	1254.400000
2253.026677	1219.800000
2254.625065	1227.100000
2256.219804	1233.200000
2257.812566	1240.800000
2259.406691	1215.600000
2261.002177	1227.500000
2262.594018	1202.100000
2264.185553	1222.800000
2265.778450	1208.700000
2267.366037	1211.100000
2268.958320	1226.700000
2270.545297	1220.000000
2272.135301	1192.600000
2273.720001	1231.000000
2275.309395	1184.800000
2276.893487	1224.900000
2278.478939	1199.300000
2280.062423	1247.500000
2281.648932	1192.500000
2283.231808	1212.000000
2284.814381	1196.300000
2286.396650	1187.800000
2287.975289	1205.800000
2289.556953	1199.300000
2291.134988	1209.800000
2292.716046	1222.800000
2294.293477	1215.250000
2295.868945	1207.700000
2297.447435	1165.100000
2299.022301	1206.000000
2300.596866	1174.000000
2302.171131	1183.600000
2303.745095	1177.900000
2305.318758	1208.100000
2306.892122	1188.700000
2308.461867	1196.100000
2310.031313	1196.800000
2311.603777	1212.500000
2313.170967	1207.100000
2314.741175	1221.500000
2316.307768	1181.000000
2317.875721	1227.100000
2319.441718	1198.600000
2321.007418	1233.300000
2322.572820	1200.000000
2324.136269	1194.000000
2325.701077	1212.800000
2327.262277	1222.400000
2328.826491	1213.800000
2330.385443	1252.900000
2331.947410	1239.900000
2333.507425	1224.300000
2335.067146	1181.300000
2336.624917	1203.100000
2338.182393	1179.700000
2339.739575	1231.900000
2341.294809	1218.900000
2342.849750	1191.000000
2344.404396	1183.500000
2345.958749	1202.800000
2347.512809	1205.800000
2349.066574	1220.300000
2350.618395	1206.700000
2352.168274	1233.200000
2353.721160	1210.500000
2355.268803	1228.500000
2356.819455	1217.900000
2358.366515	1204.000000
2359.914933	1202.700000
2361.463060	1232.200000
2363.007598	1202.400000
2364.553494	1186.500000
2366.097452	1194.900000
2367.642767	1223.900000
2369.184497	1204.000000
2370.727584	1224.800000
2372.268735	1211.200000
2373.809597	1196.600000
2375.350170	1219.800000
2376.890454	1205.900000
2378.430449	1213.800000
2379.966866	1232.100000
2381.506284	1194.800000
2383.042124	1216.800000
2384.579322	1214.100000
2386.112944	1185.000000
2387.649566	1187.400000
2389.184258	1239.800000
2390.717020	1180.300000
2392.249495	1197.900000
2393.780042	1218.000000
2395.313587	1212.300000
2396.841921	1240.400000
2398.371612	1212.000000
2399.901016	1224.900000
2401.430136	1231.500000
2402.958971	1208.100000
2404.482600	1200.900000
2406.010865	1216.100000
2407.533928	1231.200000
2409.061624	1204.000000
2410.582481	1210.300000
2412.107971	1221.000000
2413.629900	1217.700000
2415.153185	1242.300000
2416.674548	1259.800000
2418.193992	1244.200000
2419.714791	1243.000000
2421.233672	1217.600000
2422.752270	1207.100000
2424.268951	1192.700000
2425.786986	1214.500000
2427.304740	1216.600000
2428.818943	1243.600000
2430.332865	1204.500000
2431.846507	1215.800000
2433.361504	1216.600000
2434.872952	1217.500000
2436.385755	1206.900000
2437.896644	1222.400000
2439.407255	1223.400000
2440.915954	1195.700000
2442.427639	1200.700000
2443.935781	1217.800000
2445.443645	1190.600000
2446.951231	1206.300000
2448.455276	1187.600000
2449.962306	1215.000000
2451.467428	1205.500000
2452.972273	1203.500000
2454.475211	1171.000000
2455.977873	1195.900000
2457.480258	1188.300000
2458.980738	1180.500000
2460.482571	1194.700000
2461.982499	1185.900000
2463.482152	1177.600000
2464.981530	1166.200000
2466.479005	1141.800000
2467.974578	1155.000000
2469.473131	1146.900000
2470.968156	1178.400000
2472.464533	1152.900000
2473.957384	1140.400000
2475.451588	1152.100000
2476.945518	1137.600000
2478.435924	1152.300000
2479.929308	1143.200000
2481.420794	1144.200000
2482.910383	1145.200000
2484.399700	1168.000000
2485.887121	1141.900000
2487.377518	1163.400000
2488.864397	1145.800000
2490.352627	1145.400000
2491.837340	1171.100000
2493.321784	1149.800000
2494.807578	1168.000000
2496.291481	1173.500000
2497.776734	1163.100000
2499.256854	1156.300000
2500.739947	1151.600000
2502.221149	1130.100000
2503.702082	1154.600000
2505.181126	1167.700000
2506.659901	1165.300000
2508.138408	1167.700000
2509.616647	1151.300000
2511.094617	1157.300000
2512.569082	1133.700000
2514.046517	1151.000000
2515.520448	1159.500000
2516.995729	1172.400000
2518.470743	1151.100000
2519.942256	1155.000000
2521.415120	1174.400000
2522.886101	1164.900000
2524.358432	1156.900000
2525.825649	1142.800000
2527.295833	1147.000000
2528.764136	1134.400000
2530.232174	1165.900000
2531.699947	1142.900000
2533.167455	1154.300000
2534.634698	1152.000000
2536.098449	1158.300000
2537.563550	1162.300000
2539.026774	1169.000000
2540.491347	1188.100000
2541.952432	1173.400000
2543.414866	1166.000000
2544.877037	1166.600000
2546.335722	1150.100000
2547.798978	1197.400000
2549.257139	1178.900000
2550.716648	1175.900000
2552.171063	1154.900000
2553.630049	1180.000000
2555.087163	1135.200000
2556.542406	1163.900000
2557.997387	1140.800000
2559.450500	1177.500000
2560.904961	1148.500000
2562.357552	1143.100000
2563.809884	1166.700000
2565.260349	1161.700000
2566.713769	1150.300000
2568.162107	1157.400000
2569.613400	1156.200000
2571.062828	1143.200000
2572.508783	1165.200000
2573.957693	1143.100000
2575.403133	1133.000000
2576.849920	1150.700000
2578.294845	1151.700000
2579.739511	1155.200000
2581.185525	1165.500000
2582.628073	1137.600000
2584.071968	1132.500000
2585.512398	1171.700000
2586.954175	1119.500000
2588.394093	1146.200000
2589.835358	1119.200000
2591.273161	1137.100000
2592.713914	1108.400000
2594.149605	1139.700000
2595.588245	1124.600000
2597.025027	1126.000000
2598.459954	1117.400000
2599.897828	1111.900000
2601.330645	1131.100000
2602.764809	1128.700000
2604.197119	1113.800000
2605.630775	1127.700000
2607.062578	1134.600000
2608.494127	1118.100000
2609.925424	1120.000000
2611.354868	1146.800000
2612.784060	1121.600000
2614.211402	1139.700000
2615.640089	1092.700000
2617.068525	1107.000000
2618.493513	1134.900000
2619.919848	1122.900000
2621.344334	1086.500000
2622.770166	1112.800000
2624.192554	1135.800000
2625.616288	1119.300000
2627.038175	1124.100000
2628.459813	1082.600000
2629.879605	1104.700000
2631.300743	1136.500000
2632.721631	1118.300000
2634.139081	1094.700000
2635.559470	1121.300000
2636.976422	1132.200000
2638.393125	1096.300000
2639.809580	1090.300000
2641.225787	1092.700000
2642.641746	1106.200000
2644.055864	1120.900000
2645.469734	1142.100000
2646.881766	1104.700000
2648.295141	1127.000000
2649.705087	1131.600000
2651.117969	1111.200000
2652.527422	1115.100000
2653.936629	1102.500000
2655.344000	1097.700000
2656.754305	1095.000000
2658.162775	1123.500000
2659.569409	1113.000000
2660.975798	1130.600000
2662.380353	1144.200000
2663.786252	1116.500000
2665.190318	1098.600000
2666.594139	1123.200000
2667.997716	1109.700000
2669.399462	1108.000000
2670.802551	1132.800000
2672.202222	1100.900000
2673.603237	1144.700000
2675.000836	1104.400000
2676.401365	1101.200000
2677.798478	1122.500000
2679.196935	1104.300000
2680.593565	1112.700000
2681.989952	1137.300000
2683.386097	1095.500000
2684.780416	1109.900000
2686.176078	1093.500000
2687.568331	1117.300000
2688.961926	1083.600000
2690.353697	1104.500000
2691.746811	1111.000000
2693.138101	1090.100000
2694.527568	1116.100000
2695.916795	1112.800000
2697.305783	1083.200000
2698.696112	1112.200000
2700.081458	1075.000000
2701.469727	1113.400000
2702.856176	1072.200000
2704.242386	1092.900000
2705.628357	1078.600000
2707.010930	1096.700000
2708.394845	1069.600000
2709.778522	1103.100000
2711.161960	1071.500000
2712.542004	1066.400000
2713.923388	1115.200000
2715.302958	1057.000000
2716.683868	1090.600000
2718.062964	1076.000000
2719.440246	1093.900000
2720.818869	1136.600000
2722.195679	1096.100000
2723.572252	1077.500000
2724.948590	1106.400000
2726.323117	1098.400000
2727.698984	1097.700000
2729.071464	1105.500000
2730.446860	1114.000000
2731.817296	1106.400000
2733.189073	1081.400000
2734.560615	1078.100000
2735.930349	1057.400000
2737.301424	1095.700000
2738.670690	1074.300000
2740.039723	1075.500000
2741.406950	1047.200000
2742.773943	1073.400000
2744.140704	1092.300000
2745.507233	1066.500000
2746.871956	1115.200000
2748.236447	1098.600000
2749.600707	1067.300000
2750.964734	1088.800000
2752.328530	1096.100000
2753.688952	1093.200000
2755.052284	1079.600000
2756.410674	1072.300000
2757.771974	1077.800000
2759.129904	1070.700000
2760.490742	1093.400000
2761.849781	1067.500000
2763.205451	1074.500000
2764.564029	1060.900000
2765.919240	1050.400000
2767.274222	1062.100000
2768.627408	1046.200000
2769.983500	1071.100000
2771.336227	1078.500000
2772.688727	1051.900000
2774.040998	1058.400000
2775.394607	1097.100000
2776.744856	1059.400000
2778.093310	1069.700000
2779.444670	1059.400000
2780.792670	1065.000000
2782.142008	1011.300000
2783.489554	1049.900000
2784.836874	1054.400000
2786.183967	1071.000000
2787.529269	1028.400000
2788.874344	1038.300000
2790.219194	1048.300000
2791.563818	1040.300000
2792.905090	1052.000000
2794.247700	1074.700000
2795.590084	1034.900000
2796.932243	1057.800000
2798.271053	1037.900000
2799.612763	1052.900000
2800.951125	1049.000000
2802.290823	1053.900000
2803.628737	995.700000
2804.964866	1024.400000
2806.300771	1048.100000
2807.638014	1050.500000
2808.973473	1030.900000
2810.308709	1055.000000
2811.642162	1056.200000
2812.976952	1059.900000
2814.308402	1047.200000
2815.642747	1053.100000
2816.972194	1043.900000
2818.302978	1052.300000
2819.633540	1025.300000
2820.962323	1030.500000
2822.292442	1066.700000
2823.620783	1022.000000
2824.948903	1049.600000
2826.275245	1049.000000
2827.602924	1047.200000
2828.927269	1029.200000
2830.252951	1018.000000
2831.576857	1030.400000
2832.900544	1054.800000
2834.225566	1043.800000
2835.547258	1025.600000
2836.868732	1032.600000
2838.189987	1023.300000
2839.511023	1026.700000
2840.830286	1026.700000
2842.150885	1048.800000
2843.469713	1026.600000
2844.788322	1020.500000
2846.105160	1037.000000
2847.421781	1022.100000
2848.738185	1047.600000
2850.052819	1050.800000
2851.368789	1020.400000
2852.681438	1043.700000
2853.995422	1019.900000
2855.309190	1045.500000
2856.622741	1026.400000
2857.934526	1021.600000
2859.244544	994.800000
2860.555897	1040.000000
2861.863935	1010.200000
2863.173307	1044.600000
2864.482465	1038.400000
2865.791407	1026.200000
2867.098585	1013.500000
2868.404001	1059.700000
2869.710750	1034.700000
2871.015738	1062.500000
2872.320512	1029.300000
2873.623524	1060.200000
2874.929417	1030.200000
2876.230456	1045.100000
2877.532829	1032.900000
2878.833442	1058.400000
2880.135389	1039.300000
2881.437122	1022.700000
2882.735552	1033.700000
2884.035315	1061.900000
2885.333321	1017.900000
2886.631115	1057.900000
2887.927153	1030.900000
2889.224524	1032.000000
2890.520139	1027.400000
2891.815543	1027.600000
2893.110736	1051.600000
2894.402632	1045.400000
2895.697404	1034.300000
2896.988879	1021.900000
2898.281687	1016.100000
2899.574285	1055.000000
2900.863589	1033.000000
2902.154225	1036.900000
2903.443110	1025.500000
2904.733327	1028.800000
2906.020253	1029.900000
2907.308511	1046.000000
2908.595020	1024.800000
2909.881320	1011.600000
2911.167413	1024.300000
2912.451757	1021.000000
2913.738972	1030.400000
2915.021361	1053.400000
2916.305082	1043.800000
2917.587057	1054.100000
2918.868824	1043.500000
2920.148847	1002.500000
2921.431739	1048.600000
2922.712886	1046.600000
2923.990751	993.300000
2925.271485	1031.300000
2926.548938	1030.700000
2927.826185	1025.100000
2929.101690	1004.100000
2930.380063	1021.000000
2931.653622	1014.700000
2932.930048	1040.800000
2934.204733	1030.400000
2935.477677	1058.900000
2936.751953	1012.200000
2938.024489	1011.300000
2939.296820	1008.900000
2940.565879	990.800000
2941.837803	1022.000000
2943.107989	1017.500000
2944.377971	984.000000
2945.647750	1027.300000
2946.915793	1017.100000
2948.182099	1037.500000
2949.448204	1005.900000
2950.715638	1008.700000
2951.981338	1033.000000
2953.246835	988.500000
2954.512130	1008.300000
2955.774160	994.200000
2957.037520	977.800000
2958.300679	997.300000
2959.562106	1023.800000
2960.824862	1039.500000
2962.085886	993.200000
2963.345180	1012.600000
2964.604274	1021.600000
2965.863167	999.500000
2967.121860	1019.600000
2968.380353	1000.000000
2969.637117	1004.500000
2970.893681	1021.800000
2972.148518	1014.000000
2973.404683	1009.100000
2974.657594	991.200000
2975.911834	1038.300000
2977.165875	995.800000
2978.418190	1027.400000
2979.670306	1001.100000
2980.920698	1018.400000
2982.173945	1005.000000
2983.422415	996.400000
2984.673740	1022.900000
2985.921815	1031.800000
2987.169694	1001.400000
2988.417375	1000.300000
2989.664859	1010.100000
2990.910622	1032.000000
2992.156189	1000.900000
2993.403083	1004.500000
2994.646733	971.600000
2995.891711	1015.000000
2997.133445	983.200000
2998.378031	1025.000000
2999.620898	1003.800000
3000.860524	991.800000
3002.103000	997.600000
3003.342236	1004.700000
3004.582800	1009.700000
3005.821648	1012.800000
3007.060300	983.600000
3008.297237	1018.600000
3009.535502	1008.400000
3010.772051	1000.900000
3012.008407	991.300000
3013.244569	1024.200000
3014.479017	979.400000
3015.713273	1008.000000
3016.947335	985.500000
3018.179685	1009.600000
3019.410323	991.000000
3020.643807	1016.200000
3021.875579	1004.600000
3023.105641	1010.100000
3024.335510	1017.700000
3025.563671	1004.200000
3026.793157	1031.200000
3028.020934	1007.400000
3029.248520	988.800000
3030.477433	985.700000
3031.701603	993.900000
3032.928616	1012.400000
3034.152405	1003.300000
3035.377521	1004.700000
3036.600930	1028.200000
3037.824149	1000.900000
3039.045663	1027.100000
3040.270018	1028.800000
3041.489638	987.300000
3042.710584	1012.700000
3043.931341	985.500000
3045.150394	989.200000
3046.370772	1024.000000
3047.587934	994.300000
3048.806422	1015.400000
3050.023207	1004.900000
3051.239805	1018.300000
3052.456214	994.800000
3053.669411	1012.500000
3054.885445	1015.500000
3056.098267	994.600000
3057.313926	994.900000
3058.524862	1005.500000
3059.737123	1009.800000
3060.949198	1020.000000
3062.161085	1015.400000
3063.371276	1021.600000
3064.581280	989.600000
3065.791098	994.400000
3066.999220	1014.000000
3068.207157	986.000000
3069.413398	1008.000000
3070.620964	995.300000
3071.826835	994.100000
3073.032522	992.900000
3074.238023	1012.800000
3075.441831	996.800000
3076.646963	993.500000
3077.850402	988.000000
3079.052150	1017.000000
3080.253713	976.800000
3081.455093	985.600000
3082.656289	1012.400000
3083.855795	974.600000
3085.055118	993.200000
3086.255764	1011.400000
3087.454720	1003.700000
3088.650482	995.500000
3089.849073	1009.200000
3091.044470	992.400000
3092.241190	999.200000
3093.434718	978.800000
3094.631074	1005.200000
3095.825744	981.800000
3097.017223	997.500000
3098.213033	1004.300000
3099.404149	987.900000
3100.596589	1006.100000
3101.785841	993.300000
3102.977918	998.200000
3104.168312	981.400000
3105.355520	981.000000
3106.544051	977.300000
3107.733903	1004.200000
3108.920572	958.800000
3110.107060	970.800000
3111.293370	988.400000
3112.481001	991.800000
3113.665450	986.500000
3114.848220	987.300000
3116.033812	993.000000
3117.217725	998.100000
3118.399959	992.700000
3119.582014	972.600000
3120.763891	970.200000
3121.945590	987.800000
3123.125612	977.700000
3124.303957	966.900000
3125.485122	1004.700000
3126.663112	988.400000
3127.840926	967.400000
3129.018562	977.700000
3130.194523	980.300000
3131.370307	966.100000
3132.547413	977.300000
3133.722844	985.800000
3134.896602	977.000000
3136.068687	965.900000
3137.242094	975.600000
3138.415324	1010.000000
3139.586883	993.500000
3140.759762	994.300000
3141.929474	981.200000
3143.100507	1022.000000
3144.269870	999.600000
3145.437562	1007.400000
3146.608070	981.900000
3147.773920	995.900000
3148.944078	970.100000
3150.109580	1001.100000
3151.274907	993.700000
3152.440061	990.300000
3153.605042	965.500000
3154.771342	1005.000000
3155.932990	974.100000
3157.095957	965.900000
3158.258752	952.000000
3159.421374	984.900000
3160.582331	945.300000
3161.743115	939.800000
3162.903727	957.400000
3164.062675	963.400000
3165.221452	971.600000
3166.380057	957.700000
3167.538489	977.800000
3168.696751	946.700000
3169.853350	967.100000
3171.008288	953.600000
3172.164545	956.300000
3173.319141	977.900000
3174.473567	943.100000
3175.626333	970.600000
3176.778928	940.400000
3177.931354	951.000000
3179.083610	948.800000
3180.235695	980.300000
3181.384635	948.000000
3182.536381	997.400000
3183.686469	963.000000
3184.834901	949.800000
3185.983163	954.200000
3187.131257	972.600000
3188.279182	970.300000
3189.425451	954.100000
3190.571552	973.400000
3191.715999	1020.700000
3192.860278	967.800000
3194.004389	1002.100000
3195.149817	979.200000
3196.292107	1002.600000
3197.434230	981.200000
3198.576185	985.000000
3199.717973	979.300000
3200.859594	982.900000
3201.998080	932.700000
3203.137883	992.500000
3204.279004	951.400000
3205.416990	994.500000
3206.553327	956.400000
3207.689498	995.400000
3208.826986	989.300000
3209.962826	979.000000
3211.099983	976.600000
3212.232527	960.800000
3213.369353	977.300000
3214.501567	972.500000
3215.635098	956.200000
3216.768465	962.600000
3217.898704	979.700000
3219.031741	977.900000
3220.161652	931.700000
3221.292879	941.200000
3222.420982	947.500000
3223.551881	943.600000
3224.681136	919.300000
3225.808748	936.700000
3226.933237	937.100000
3228.062002	989.000000
3229.187645	941.500000
3230.313126	923.600000
3231.436965	901.300000
3232.563598	961.400000
3233.685634	917.200000
3234.808986	948.800000
3235.932176	952.000000
3237.055203	949.100000
3238.176592	938.500000
3239.297818	938.100000
3240.417407	931.000000
3241.536834	927.100000
3242.654623	953.600000
3243.775204	945.100000
3244.892672	918.300000
3246.009979	965.100000
3247.127126	955.200000
3248.242637	956.500000
3249.359462	955.900000
3250.473178	956.400000
3251.589683	952.900000
3252.704554	956.300000
3253.816316	961.200000
3254.927918	964.900000
3256.040836	951.700000
3257.153594	940.100000
3258.263246	927.200000
3259.374213	964.300000
3260.485021	956.200000
3261.594197	942.300000
3262.701743	969.700000
3263.810602	965.700000
3264.919304	960.500000
3266.024903	970.200000
3267.131816	953.500000
3268.237100	965.700000
3269.343698	972.800000
3270.447196	973.900000
3271.552009	958.700000
3272.656664	972.000000
3273.758220	954.200000
3274.859620	964.200000
3275.962334	980.400000
3277.064892	988.600000
3278.164353	952.800000
3279.266598	972.200000
3280.365747	955.800000
3281.463272	953.900000
3282.560641	962.500000
3283.660792	964.400000
3284.757851	940.900000
3285.854754	945.100000
3286.951502	959.400000
3288.043692	968.700000
3289.140130	949.200000
3290.234946	979.100000
3291.329608	944.200000
3292.422648	947.200000
3293.515533	966.600000
3294.606799	977.000000
3295.699376	947.600000
3296.790334	968.200000
3297.879672	946.700000
3298.968857	985.900000
3300.059355	965.800000
3301.146768	960.800000
3302.234028	949.800000
3303.322601	965.400000
3304.411022	932.600000
3305.494895	964.500000
3306.583010	968.500000
3307.668043	956.800000
3308.751461	923.600000
3309.836191	944.400000
3310.919305	956.200000
3312.003732	960.000000
3313.085080	939.900000
3314.167740	969.100000
3315.248786	958.100000
3316.329681	973.600000
3317.408962	954.900000
3318.488093	952.000000
3319.568536	960.200000
3320.645904	970.000000
3321.724584	944.900000
3322.801652	978.700000
3323.878571	960.400000
3324.953878	965.100000
3326.029036	956.700000
3327.105505	968.600000
3328.178904	968.600000
3329.252154	983.300000
3330.326714	946.300000
3331.399666	947.400000
3332.471009	956.100000
3333.543663	963.900000
3334.613251	951.400000
3335.684149	964.000000
3336.753440	935.900000
3337.824042	955.700000
3338.893037	946.300000
3339.960426	942.300000
3341.026210	933.200000
3342.096220	939.100000
3343.163167	946.000000
3344.227052	958.100000
3345.293705	907.900000
3346.358753	941.300000
3347.422198	929.200000
3348.485497	941.000000
3349.548649	937.800000
3350.611655	949.400000
3351.674515	931.300000
3352.735773	953.000000
3353.793974	928.500000
3354.856395	953.600000
3355.915761	936.400000
3356.974981	965.200000
3358.035511	951.200000
3359.091531	991.100000
3360.150315	962.400000
3361.204592	980.300000
3362.261633	932.500000
3363.317075	980.000000
3364.373827	949.100000
3365.428980	955.600000
3366.482536	940.900000
3367.534496	972.700000
3368.589217	938.200000
3369.640889	977.300000
3370.692418	945.300000
3371.745255	956.300000
3372.795045	943.500000
3373.846144	971.000000
3374.894197	934.900000
3375.945009	952.400000
3376.992777	963.700000
3378.040402	960.300000
3379.087884	961.200000
3380.133774	991.700000
3381.180972	944.000000
3382.225128	943.700000
3383.272042	961.400000
3384.317364	950.700000
3385.359645	956.000000
3386.401786	967.800000
3387.445234	961.600000
3388.488541	963.900000
3389.530259	943.300000
3390.571835	972.600000
3391.613270	929.200000
3392.653117	955.000000
3393.691375	950.800000
3394.730941	976.700000
3395.770367	944.800000
3396.808205	975.100000
3397.844456	963.200000
3398.880568	944.500000
3399.917987	916.900000
3400.952373	960.000000
3401.988066	959.400000
3403.023620	953.800000
3404.056143	959.300000
3405.091419	964.700000
3406.123664	944.100000
3407.155771	960.300000
3408.186294	976.300000
3409.218124	949.400000
3410.249816	963.900000
3411.278480	948.700000
3412.307007	970.300000
3413.336840	943.600000
3414.366536	952.900000
3415.393206	949.900000
3416.421183	962.000000
3417.446135	970.900000
3418.473837	959.400000
3419.498516	969.300000
3420.524501	933.900000
3421.548906	972.500000
3422.573175	940.600000
3423.595865	951.800000
3424.618419	941.500000
3425.642279	938.900000
3426.663119	946.500000
3427.683823	939.900000
3428.705834	929.100000
3429.724826	954.400000
3430.743682	939.000000
3431.763845	946.300000
3432.780991	958.800000
