-116.475622	58.300000
-113.806022	37.000000
-111.139357	58.300000
-108.473444	62.700000
-105.810463	74.500000
-103.146053	61.000000
-100.484573	79.800000
-97.821664	56.700000
-95.163861	76.900000
-92.504629	38.900000
-89.846145	64.900000
-87.190585	58.600000
-84.533597	65.600000
-81.881707	67.800000
-79.228387	55.600000
-76.577986	62.500000
-73.926156	56.200000
-71.279417	71.800000
-68.631249	65.900000
-65.983823	73.200000
-63.339311	59.700000
-60.693371	63.200000
-58.052512	65.700000
-55.410224	51.700000
-52.770845	26.800000
-50.130036	81.600000
-47.489968	79.100000
-44.854972	68.900000
-42.218548	76.700000
-39.585026	83.000000
-36.950076	71.300000
-34.320191	72.900000
-31.686714	73.200000
-29.058299	94.500000
-26.430618	73.700000
-23.801508	82.700000
-21.177455	92.800000
-18.549813	84.100000
-15.927224	115.200000
-13.305367	126.200000
-10.684240	211.600000
-8.063843	420.000000
-5.446335	1365.300000
-2.827398	4022.300000
-0.211346	8373.500000
2.403977	8548.600000
5.018573	3819.000000
7.630286	465.300000
10.243428	159.400000
12.851536	107.500000
15.463226	114.700000
18.069885	106.500000
20.677972	88.800000
23.285335	92.200000
25.887673	100.600000
28.493589	104.600000
31.094483	96.200000
33.696805	101.700000
36.294110	105.500000
38.894990	75.800000
41.490855	90.300000
44.088149	97.200000
46.684723	110.300000
49.276288	117.000000
51.869281	87.100000
54.459413	111.500000
57.050973	98.700000
59.639673	123.700000
62.229800	109.700000
64.814928	101.200000
67.401484	107.200000
69.987326	129.300000
72.570314	125.400000
75.154728	124.500000
77.732014	124.700000
80.312866	121.300000
82.890869	135.100000
85.468162	137.800000
88.046881	138.000000
90.620618	140.700000
93.195783	163.300000
95.768104	165.600000
98.339717	176.600000
100.908490	182.700000
103.478690	199.500000
106.046052	234.500000
108.614839	278.700000
111.180790	297.800000
113.743906	378.900000
116.310578	479.600000
118.868029	613.000000
121.431165	863.300000
123.989341	1224.700000
126.551072	1775.000000
129.107846	2701.600000
131.666047	4110.700000
134.219294	6008.600000
136.771844	8817.500000
139.327944	12375.200000
141.879096	16278.900000
144.429551	20312.500000
146.979308	23338.800000
149.526246	25741.500000
152.072489	26974.400000
154.620157	27656.900000
157.167129	28007.800000
159.709166	27760.100000
162.250509	27621.300000
164.791159	27699.800000
167.333235	27428.300000
169.872499	27615.400000
172.408955	27242.500000
174.944719	27262.400000
177.481909	27092.000000
180.018408	26904.500000
182.552101	26977.800000
185.082990	26711.700000
187.613192	26599.200000
190.144818	26449.200000
192.673643	26594.300000
195.199669	26506.100000
197.725009	26280.500000
200.251774	26605.400000
202.775743	26458.000000
205.299027	26387.800000
207.821626	26499.500000
210.341432	26389.300000
212.860555	26308.100000
215.378995	26149.900000
217.898859	26267.800000
220.411722	26290.000000
222.928116	26471.600000
225.443828	26390.900000
227.954650	26458.500000
230.466897	26575.900000
232.976362	26515.000000
235.485148	26568.200000
237.993255	26800.000000
240.502787	26843.100000
243.007438	26839.900000
245.511413	26783.200000
248.016812	26822.600000
250.517336	26958.500000
253.021384	26995.500000
255.518460	27088.300000
258.019060	27124.100000
260.516888	27328.300000
263.014043	27128.700000
265.510525	27274.700000
268.002144	27213.500000
270.497283	27359.400000
272.989655	27345.900000
275.481357	27293.500000
277.970296	27499.300000
280.460659	27371.100000
282.948259	27171.300000
285.433100	27303.100000
287.921456	27313.700000
290.402872	27174.700000
292.887802	27280.100000
295.367887	27327.500000
297.851484	27183.300000
300.330238	27389.400000
302.810416	27509.100000
305.287841	27401.800000
307.764603	27203.100000
310.240702	27464.500000
312.714052	27256.600000
315.186740	27452.600000
317.658767	27381.200000
320.130133	27690.000000
322.598754	27744.600000
325.066717	27803.900000
327.536101	27540.600000
330.000663	27557.800000
332.468729	27394.300000
334.931975	27452.400000
337.394563	27423.200000
339.856495	27164.600000
342.317770	27266.200000
344.776311	27031.400000
347.236274	26793.600000
349.693504	26865.200000
352.150080	26759.800000
354.606002	26609.100000
357.059194	26206.800000
359.513809	25978.300000
361.963622	25855.500000
364.416931	25652.000000
366.865442	25412.000000
369.313301	25189.500000
371.762583	24982.300000
374.207071	24911.000000
376.652981	24516.600000
379.098241	24248.500000
381.540783	24259.400000
383.982677	23883.400000
386.423924	23738.200000
388.862455	23550.600000
391.302408	23206.400000
393.739647	23078.700000
396.174174	22850.200000
398.612189	22923.600000
401.045427	22544.200000
403.480086	22298.400000
405.909973	22257.600000
408.343345	22158.900000
410.771947	22193.600000
413.199907	21782.700000
415.629289	21722.000000
418.053905	21711.600000
420.479943	21661.100000
422.905340	21537.600000
425.330097	21547.300000
427.750096	21430.000000
430.171516	21430.500000
432.590239	21399.200000
435.010383	21413.800000
437.427832	21396.800000
439.846701	21314.500000
442.262877	21361.600000
444.674305	21409.600000
447.089211	21309.300000
449.501426	21189.000000
451.913007	21299.200000
454.323954	21389.700000
456.732215	21286.200000
459.139843	21295.200000
461.546839	21399.500000
463.953204	21122.400000
466.356886	21151.900000
468.759938	21241.900000
471.162360	21023.000000
473.564152	20998.600000
475.963267	21033.800000
478.363801	20950.500000
480.763706	20916.900000
483.158888	20837.700000
485.557537	20922.700000
487.951466	20651.200000
490.344769	20734.900000
492.737446	20628.700000
495.129498	20578.000000
497.522968	20292.200000
499.911726	20387.400000
502.297818	20441.800000
504.685330	20322.600000
507.072219	20272.600000
509.456444	20209.400000
511.842087	20305.600000
514.225069	20155.800000
516.605390	20025.800000
518.987130	20231.700000
521.366211	20112.600000
523.746711	20041.200000
526.124553	19921.700000
528.499740	20004.300000
530.874309	19995.500000
533.250296	19930.300000
535.623631	19699.100000
537.998383	19670.800000
540.368450	19478.900000
542.737901	19449.600000
545.108770	19173.000000
547.474959	18937.000000
549.842566	18886.500000
552.207527	18636.900000
554.571875	18465.000000
556.935610	18260.000000
559.300763	18042.600000
561.661244	17894.800000
564.023143	17715.200000
566.382401	17458.000000
568.739022	17210.800000
571.099087	17107.100000
573.452461	16812.200000
575.809280	16716.400000
578.163464	16421.000000
580.517039	16242.900000
582.870007	15941.700000
585.220342	15729.600000
587.572095	15649.600000
589.917171	15411.900000
592.267711	15217.800000
594.611577	15096.300000
596.960905	14977.400000
599.305584	14791.900000
601.647639	14735.500000
603.991111	14568.300000
606.331960	14478.400000
608.672207	14339.900000
611.009833	14400.500000
613.350894	14238.000000
615.687317	14259.000000
618.025157	14140.600000
620.360380	14035.400000
622.692987	14039.700000
625.027010	14180.600000
627.358419	14214.800000
629.689230	14104.300000
632.019444	14037.900000
634.349059	14081.500000
636.674051	14103.600000
639.004485	14130.100000
641.330298	14103.200000
643.653503	14229.200000
645.978125	14140.700000
648.300141	14180.300000
650.621563	14181.500000
652.940383	14302.000000
655.260618	14334.900000
657.580260	14452.900000
659.897301	14508.400000
662.213750	14630.200000
664.527601	14622.200000
666.842868	14751.900000
669.155538	14934.300000
671.469623	14921.200000
673.779108	15108.700000
676.090009	15339.600000
678.398317	15282.000000
680.706037	15470.600000
683.015171	15631.900000
685.319713	15838.700000
687.623669	15786.500000
689.927039	15883.200000
692.231823	16166.900000
694.532021	16146.800000
696.833633	16401.200000
699.134661	16505.900000
701.431106	16585.700000
703.728967	16825.500000
706.026244	16872.000000
708.322938	16923.000000
710.615056	17112.200000
712.910585	17127.100000
715.201540	17467.900000
717.493910	17478.300000
719.783705	17714.900000
722.072919	17715.800000
724.361554	17879.000000
726.647616	18079.700000
728.935093	18236.000000
731.219998	18250.300000
733.504326	18428.300000
735.786085	18578.100000
738.069258	18628.300000
740.351854	18732.300000
742.629894	18842.600000
744.909349	18977.700000
747.188227	19292.800000
749.466531	19428.000000
751.740285	19544.100000
754.015452	19675.300000
756.290046	19882.700000
758.562081	19940.300000
760.835529	20144.300000
763.106419	20354.100000
765.374753	20468.300000
767.644500	20441.100000
769.911693	20599.400000
772.178315	20762.900000
774.444367	21106.900000
776.707868	20981.800000
778.972782	21235.000000
781.237126	21311.700000
783.496941	21434.400000
785.758168	21531.300000
788.018828	21700.400000
790.276942	21817.000000
792.532511	21878.300000
794.791471	22031.200000
797.043932	22039.900000
799.301759	22150.000000
801.555068	22210.600000
803.805837	22250.100000
806.058018	22301.700000
808.307660	22345.200000
810.558715	22385.000000
812.805258	22486.200000
815.053213	22489.200000
817.298634	22716.600000
819.545466	22669.700000
821.791737	22861.200000
824.033503	22993.800000
826.278653	23022.000000
828.517330	23217.100000
830.759389	23226.000000
832.996950	23457.800000
835.235923	23718.500000
837.472369	23650.300000
839.710226	23841.800000
841.945558	23956.600000
844.178367	24376.000000
846.412587	24449.100000
848.644284	24712.300000
850.875427	24941.400000
853.106015	25248.800000
855.336049	25587.300000
857.565529	25856.400000
859.790527	26213.100000
862.018900	26544.900000
864.242793	26975.400000
866.468098	27364.400000
868.688927	27916.700000
870.913128	28201.400000
873.132856	28465.400000
875.353994	29003.900000
877.574582	29674.100000
879.792661	30270.800000
882.012149	30575.600000
884.227171	30980.400000
886.441645	31253.100000
888.655572	31753.200000
890.868952	31901.700000
893.081784	32031.300000
895.294070	32074.700000
897.503853	32359.500000
899.713091	32149.400000
901.921784	32376.100000
904.127978	32188.000000
906.335581	31892.600000
908.540686	31506.300000
910.745248	31523.800000
912.947315	31004.800000
915.150791	30537.300000
917.351773	30018.800000
919.552213	29454.600000
921.754062	28863.800000
923.949520	28236.400000
926.148337	27617.300000
928.342715	27082.800000
930.540451	26252.500000
932.733751	25773.700000
934.928460	25240.500000
937.120683	24612.600000
939.312367	24398.300000
941.503514	23849.600000
943.692178	23705.300000
945.880306	23456.400000
948.065953	23176.700000
950.254952	23094.800000
952.439528	23071.700000
954.623569	23058.400000
956.810960	22941.000000
958.990047	23026.000000
961.172485	22919.200000
963.354389	23010.000000
965.533818	23086.800000
967.710775	23057.400000
969.889140	22986.700000
972.068912	23183.600000
974.242335	22925.500000
976.419104	22784.200000
978.591466	22697.100000
980.765236	22538.400000
982.934602	22154.100000
985.107312	22088.500000
987.277557	21675.000000
989.447273	21381.900000
991.616460	21094.500000
993.781250	20868.100000
995.949381	20570.700000
998.113118	20220.500000
1000.278261	19966.900000
1002.440945	19629.300000
1004.603104	19430.800000
1006.762806	19273.300000
1008.921983	18817.600000
1011.082567	18598.200000
1013.240697	18376.000000
1015.398302	18058.000000
1017.555384	17726.700000
1019.711942	17503.000000
1021.864121	17376.100000
1024.017707	17075.700000
1026.170771	16907.900000
1028.321386	16816.700000
1030.473408	16653.700000
1032.621056	16559.800000
1034.772036	16347.600000
1036.918645	16249.000000
1039.064735	16085.600000
1041.210307	15934.700000
1043.357284	15838.400000
1045.497972	15729.800000
1047.641990	15590.000000
1049.783567	15495.200000
1051.924628	15393.700000
1054.067093	15152.800000
1056.203279	15218.700000
1058.342790	15022.200000
1060.477947	14872.500000
1062.616428	14880.800000
1064.750555	14631.300000
1066.884169	14675.400000
1069.019188	14411.100000
1071.149857	14449.000000
1073.281931	14310.700000
1075.411576	14212.400000
1077.540709	14138.400000
1079.669330	13860.500000
1081.797440	13861.100000
1083.923124	13705.500000
1086.048298	13539.800000
1088.174876	13430.900000
1090.297116	13317.400000
1092.420761	13123.800000
1094.540071	12975.700000
1096.664611	12807.600000
1098.782905	12663.100000
1100.902604	12530.200000
1103.019884	12344.500000
1105.136658	12185.300000
1107.252925	11947.300000
1109.366776	11800.100000
1111.482032	11475.700000
1113.592964	11441.500000
1115.707209	11201.900000
1117.817133	11025.500000
1119.928461	10859.700000
1122.039284	10708.300000
1124.145791	10539.400000
1126.255608	10411.400000
1128.361110	10320.100000
1130.468015	10111.100000
1132.568705	10011.100000
1134.674607	9917.800000
1136.776200	9816.500000
1138.879196	9672.800000
1140.981691	9446.600000
1143.077979	9271.600000
1145.179475	9292.500000
1147.276667	9074.300000
1149.373362	9031.900000
1151.469558	8919.000000
1153.565257	8824.300000
1155.660457	8783.400000
1157.753261	8587.800000
1159.847468	8538.200000
1161.935483	8477.400000
1164.028696	8359.400000
1166.115721	8301.800000
1168.206045	8155.800000
1170.292082	8085.500000
1172.381416	8038.300000
1174.464569	7965.200000
1176.549124	7888.700000
1178.635081	7794.300000
1180.716756	7770.300000
1182.799833	7665.400000
1184.880524	7614.500000
1186.960723	7574.800000
1189.040431	7501.300000
1191.119648	7450.300000
1193.196483	7358.900000
1195.270937	7388.900000
1197.348682	7323.900000
1199.422158	7246.600000
1201.497034	7276.500000
1203.567643	7256.200000
1205.639653	7199.700000
1207.709288	7168.200000
1209.780323	7124.000000
1211.850870	7149.800000
1213.917156	7150.400000
1215.984843	7080.500000
1218.050158	7112.100000
1220.116873	7043.800000
1222.179332	7081.600000
1224.245076	7019.600000
1226.306566	7004.300000
1228.369457	7046.500000
1230.429980	6911.400000
1232.490019	6950.100000
1234.549576	6964.900000
1236.606767	6926.000000
1238.663477	6981.500000
1240.717823	6905.200000
1242.775451	6914.800000
1244.830716	6979.900000
1246.881740	6860.800000
1248.934164	6855.300000
1250.986108	6859.500000
1253.035694	6873.900000
1255.084801	6890.400000
1257.133430	6910.300000
1259.181580	6887.800000
1261.229251	6946.900000
1263.272692	6876.700000
1265.319409	6876.200000
1267.363772	6857.500000
1269.407659	6888.500000
1271.449194	6880.300000
1273.488380	6829.100000
1275.530839	6829.800000
1277.569075	6911.800000
1279.608710	6842.800000
1281.647870	6792.000000
1283.682811	6863.200000
1285.719151	6853.300000
1287.753147	6832.600000
1289.788540	6838.800000
1291.819721	6840.400000
1293.852299	6858.700000
1295.884406	6894.600000
1297.914172	6853.100000
1299.945336	6838.500000
1301.972292	6831.200000
1304.000646	6820.300000
1306.024795	6863.700000
1308.052210	6879.200000
1310.075422	6817.400000
1312.100032	6834.800000
1314.122308	6863.200000
1316.145981	6834.300000
1318.167321	6805.000000
1320.188193	6764.300000
1322.208598	6805.500000
1324.224810	6782.700000
1326.242419	6675.600000
1328.257700	6756.000000
1330.276240	6744.300000
1332.290591	6736.600000
1334.302616	6738.200000
1336.317898	6710.300000
1338.328995	6762.300000
1340.341489	6704.400000
1342.349800	6736.700000
1344.361366	6625.600000
1346.366894	6675.200000
1348.375677	6641.000000
1350.380282	6646.800000
1352.388141	6581.200000
1354.395538	6717.500000
1356.396904	6693.300000
1358.399666	6664.400000
1360.401969	6725.100000
1362.403812	6682.000000
1364.405195	6616.300000
1366.404265	6712.400000
1368.402876	6641.900000
1370.401029	6672.900000
1372.398723	6589.300000
1374.392255	6607.200000
1376.387182	6636.600000
1378.381653	6663.000000
1380.375667	6632.600000
1382.367374	6697.300000
1384.358626	6695.400000
1386.347572	6767.400000
1388.337913	6722.300000
1390.327799	6696.400000
1392.315381	6732.500000
1394.302510	6770.400000
1396.287337	6759.000000
1398.273559	6795.900000
1400.257481	6722.300000
1402.240950	6758.800000
1404.223966	6770.200000
1406.204685	6715.300000
1408.186798	6696.300000
1410.166615	6751.900000
1412.145980	6644.900000
1414.121207	6715.600000
1416.099672	6705.700000
1418.075844	6722.100000
1420.051567	6737.500000
1422.026840	6685.900000
1423.999822	6739.200000
1425.972356	6754.700000
1427.944442	6727.600000
1429.916081	6752.200000
1431.883591	6703.200000
1433.856175	6748.600000
1435.820953	6731.700000
1437.790804	6724.300000
1439.756531	6720.400000
1441.723650	6780.800000
1443.688486	6584.300000
1445.649202	6762.200000
1447.614986	6682.700000
1449.574815	6695.800000
1451.536038	6689.900000
1453.498653	6635.900000
1455.457153	6631.800000
1457.415210	6707.300000
1459.372826	6670.000000
1461.329999	6638.600000
1463.284897	6667.500000
1465.241188	6684.400000
1467.195204	6622.700000
1469.148779	6588.800000
1471.100082	6590.900000
1473.052778	6649.200000
1475.003201	6522.700000
1476.953186	6576.000000
1478.902732	6558.500000
1480.850009	6569.700000
1482.795018	6535.800000
1484.741420	6585.900000
1486.687384	6620.600000
1488.632911	6644.600000
1490.576172	6555.100000
1492.518998	6626.100000
1494.459560	6504.100000
1496.401513	6572.800000
1498.341204	6619.200000
1500.280461	6515.400000
1502.219282	6548.700000
1504.155844	6548.800000
1506.093797	6540.400000
1508.029491	6557.600000
1509.964752	6542.300000
1511.897757	6501.700000
1513.830329	6530.700000
1515.762469	6574.100000
1517.694177	6481.500000
1519.623631	6529.700000
1521.554476	6505.900000
1523.484889	6543.400000
1525.411230	6517.600000
1527.338962	6532.000000
1529.264443	6515.900000
1531.189495	6475.800000
1533.114118	6511.000000
1535.038312	6468.300000
1536.960258	6589.900000
1538.883595	6481.900000
1540.804685	6467.500000
1542.723531	6479.900000
1544.643767	6554.500000
1546.561760	6504.600000
1548.479326	6570.600000
1550.394650	6478.900000
1552.311364	6557.500000
1554.224023	6542.700000
1556.139886	6504.700000
1558.053509	6586.800000
1559.964894	6568.600000
1561.877669	6494.000000
1563.786394	6472.600000
1565.696508	6484.300000
1567.606199	6402.300000
1569.515467	6442.300000
1571.422501	6473.700000
1573.327302	6413.000000
1575.233492	6449.800000
1577.137450	6454.800000
1579.040987	6414.300000
1580.944104	6340.300000
1582.844991	6469.200000
1584.747267	6410.800000
1586.647315	6441.000000
1588.548750	6385.300000
1590.446152	6389.300000
1592.343135	6434.000000
1594.239700	6423.300000
1596.137653	6472.500000
1598.029771	6404.600000
1599.925082	6423.700000
1601.819976	6465.700000
1603.712648	6408.100000
1605.604903	6375.600000
1607.494939	6348.100000
1609.384559	6420.300000
1611.273764	6335.300000
1613.162554	6344.200000
1615.049126	6326.100000
1616.937086	6367.300000
1618.821029	6385.300000
1620.706359	6325.500000
1622.591276	6396.300000
1624.473979	6360.400000
1626.358069	6316.100000
1628.238147	6324.700000
1630.119613	6349.900000
1631.998868	6335.700000
1633.879509	6334.800000
1635.754346	6307.800000
1637.634164	6354.600000
1639.509978	6277.200000
1641.385381	6321.600000
1643.262170	6337.400000
1645.133163	6332.900000
1647.007337	6343.300000
1648.877512	6364.200000
1650.750869	6305.800000
1652.622022	6348.500000
1654.490973	6304.900000
1656.361309	6264.600000
1658.227653	6279.000000
1660.095382	6254.500000
1661.960912	6291.000000
1663.827828	6254.000000
1665.690755	6202.100000
1667.555067	6186.600000
1669.417183	6216.800000
1671.278894	6212.900000
1673.141991	6186.400000
1675.002892	6204.300000
1676.861601	6192.900000
1678.719906	6216.300000
1680.579596	6184.400000
1682.433518	6200.200000
1684.290614	6162.800000
1686.147307	6170.700000
1688.000023	6168.300000
1689.855911	6195.200000
1691.707825	6163.500000
1693.559338	6159.600000
1695.410450	6165.900000
1697.261162	6107.400000
1699.111473	6144.300000
1700.959599	6159.800000
1702.809110	6196.400000
1704.652872	6136.800000
1706.501583	6102.400000
1708.344548	6150.800000
1710.190680	6132.600000
1712.032849	6138.200000
1713.878184	6124.200000
1715.717778	6148.300000
1717.558756	6110.400000
1719.401117	6104.300000
1721.239522	6031.900000
1723.079310	6124.700000
1724.916923	6080.300000
1726.754140	6103.100000
1728.589184	6124.300000
1730.425611	6080.000000
1732.259866	6063.600000
1734.093726	6080.900000
1735.927192	6111.300000
1737.756713	6070.700000
1739.589392	6040.300000
1741.418127	6101.100000
1743.250019	6035.600000
1745.077969	6064.900000
1746.905528	6039.200000
1748.732694	6066.800000
1750.559469	6064.600000
1752.385852	6066.400000
1754.208299	6051.200000
1756.033901	5996.100000
1757.855568	6066.600000
1759.678617	6079.700000
1761.499504	6086.800000
1763.320003	6070.300000
1765.141882	6076.200000
1766.958063	6048.000000
1768.777395	6077.200000
1770.592800	6062.900000
1772.411355	6048.300000
1774.225985	6035.200000
1776.040228	6026.700000
1777.854085	6040.500000
1779.667555	6060.000000
1781.478872	6096.400000
1783.291569	5979.500000
1785.103881	6041.800000
1786.912275	5989.700000
1788.722049	6009.000000
1790.527909	6004.700000
1792.336914	6021.400000
1794.142006	6010.000000
1795.948479	5956.300000
1797.754568	5986.000000
1799.556746	5984.100000
1801.362069	5970.300000
1803.163483	5936.900000
1804.966277	5975.500000
1806.765165	5950.200000
1808.565434	5974.100000
1810.365321	5951.300000
1812.163066	5889.300000
1813.960431	5913.200000
1815.757416	5915.400000
1817.554020	5917.200000
1819.348485	5874.800000
1821.144329	5894.300000
1822.934518	5895.800000
1824.729604	5929.800000
1826.519038	5843.700000
1828.311608	5873.900000
1830.102043	5895.100000
1831.890344	5909.700000
1833.681780	5950.400000
1835.467570	5850.000000
1837.254740	5908.400000
1839.039778	5864.100000
1840.827950	5808.600000
1842.612236	5810.100000
1844.394392	5872.200000
1846.177928	5858.500000
1847.959335	5804.600000
1849.742121	5851.600000
1851.521026	5817.500000
1853.301311	5762.700000
1855.079469	5766.500000
1856.859006	5805.500000
1858.636418	5777.400000
1860.411706	5775.700000
1862.188372	5714.600000
1863.962916	5774.400000
1865.738838	5742.000000
1867.509139	5719.500000
1869.282568	5748.700000
1871.053877	5748.200000
1872.824815	5769.500000
1874.597131	5725.700000
1876.363833	5800.900000
1878.133661	5718.900000
1879.899625	5791.400000
1881.668712	5725.300000
1883.433938	5752.500000
1885.198796	5716.300000
1886.965031	5752.900000
1888.727407	5762.800000
1890.489416	5695.200000
1892.251057	5738.300000
1894.012332	5642.500000
1895.773239	5710.000000
1897.533780	5722.700000
1899.292211	5707.200000
1901.050276	5705.100000
1902.806234	5676.200000
1904.563568	5715.700000
1906.320537	5655.100000
1908.075399	5667.500000
1909.828157	5635.000000
1911.580550	5663.800000
1913.334320	5615.600000
1915.085986	5687.100000
1916.835550	5695.000000
1918.586489	5575.500000
1920.337066	5658.000000
1922.083803	5695.800000
1923.831917	5649.700000
1925.577931	5639.600000
1927.325320	5654.300000
1929.070612	5634.700000
1930.813806	5606.200000
1932.558375	5625.100000
1934.300849	5645.800000
1936.042962	5625.400000
1937.784715	5632.300000
1939.526108	5620.700000
1941.265408	5689.100000
1943.004349	5658.100000
1944.742931	5635.800000
1946.479422	5679.100000
1948.215555	5683.300000
1949.953062	5687.500000
1951.686747	5693.300000
1953.421807	5666.700000
1955.154778	5724.800000
1956.887393	5652.500000
1958.619652	5621.700000
1960.351554	5725.000000
1962.081370	5704.200000
1963.809101	5690.200000
1965.538207	5736.900000
1967.266958	5641.000000
1968.993625	5738.600000
1970.719938	5702.800000
1972.447624	5708.500000
1974.169774	5754.200000
1975.895025	5722.400000
1977.616469	5726.700000
1979.341014	5738.900000
1981.063478	5742.800000
1982.782140	5722.100000
1984.503900	5792.000000
1986.221858	5702.000000
1987.941189	5667.900000
1989.656721	5684.800000
1991.377073	5773.600000
1993.093627	5742.300000
1994.806384	5671.400000
1996.522237	5722.600000
1998.236018	5669.200000
1999.949449	5749.500000
2001.660809	5705.500000
2003.373541	5708.900000
2005.082483	5683.800000
2006.794517	5731.200000
2008.501043	5669.300000
2010.210660	5714.900000
2011.918211	5696.600000
2013.625413	5721.800000
2015.330550	5726.800000
2017.035341	5703.500000
2018.741503	5709.600000
2020.443883	5708.800000
2022.147634	5698.500000
2023.849323	5689.200000
2025.550667	5667.400000
2027.251665	5682.800000
2028.950602	5662.400000
2030.650911	5676.600000
2032.347445	5647.800000
2034.045350	5724.200000
2035.741196	5682.300000
2037.440128	5716.300000
2039.133574	5705.700000
2040.828391	5703.700000
2042.522866	5702.500000
2044.213572	5706.700000
2045.907362	5704.800000
2047.597385	5653.900000
2049.288779	5669.800000
2050.978120	5650.700000
2052.668831	5659.100000
2054.355779	5615.700000
2056.042388	5579.000000
2057.730366	5623.200000
2059.414585	5589.000000
2061.100175	5539.200000
2062.785425	5608.200000
2064.468626	5528.900000
2066.153198	5560.800000
2067.832307	5503.000000
2069.516201	5565.000000
2071.194634	5525.200000
2072.876145	5519.900000
2074.553904	5525.900000
2076.231327	5572.900000
2077.910119	5527.000000
2079.586869	5522.800000
2081.261577	5537.600000
2082.937654	5535.900000
2084.611691	5595.000000
2086.285392	5514.500000
2087.958758	5533.300000
2089.630085	5505.800000
2091.301078	5512.100000
2092.971737	5461.500000
2094.642062	5554.300000
2096.312053	5457.500000
2097.980008	5502.400000
2099.647630	5513.200000
2101.313217	5497.500000
2102.980173	5546.600000
2104.645096	5475.400000
2106.309687	5600.500000
2107.972246	5555.600000
2109.636173	5613.500000
2111.298069	5539.700000
2112.959635	5511.900000
2114.620869	5558.300000
2116.280075	5598.300000
2117.938950	5607.300000
2119.597496	5550.500000
2121.255711	5610.200000
2122.910204	5597.100000
2124.567761	5512.800000
2126.224989	5586.200000
2127.878495	5525.200000
2129.533369	5556.000000
2131.184524	5580.500000
2132.838742	5554.600000
2134.489243	5545.300000
2136.141110	5621.100000
2137.787569	5520.200000
2139.438783	5560.800000
2141.086283	5543.400000
2142.735150	5496.400000
2144.381998	5528.000000
2146.028521	5498.900000
2147.674718	5612.200000
2149.317207	5525.100000
2150.962754	5526.600000
2152.604594	5510.000000
2154.249491	5470.800000
2155.890682	5468.800000
2157.531551	5453.500000
2159.172095	5453.400000
2160.810627	5424.700000
2162.450525	5412.000000
2164.086723	5430.300000
2165.724287	5362.400000
2167.361529	5416.300000
2168.996761	5389.600000
2170.631672	5451.900000
2172.266260	5373.000000
2173.900528	5357.600000
2175.531102	5406.100000
2177.164728	5409.500000
2178.794662	5396.800000
2180.425961	5353.000000
2182.055255	5358.300000
2183.684230	5411.600000
2185.312885	5275.700000
2186.941221	5323.900000
2188.567555	5346.400000
2190.193570	5303.100000
2191.817583	5324.800000
2193.442962	5304.100000
2195.066340	5282.000000
2196.691083	5260.300000
2198.312145	5318.100000
2199.932890	5213.100000
2201.555000	5261.700000
2203.175112	5275.300000
2204.793227	5218.300000
2206.411027	5253.700000
2208.028512	5218.900000
2209.645681	5251.600000
2211.262535	5193.800000
2212.879073	5262.500000
2214.493619	5204.000000
2216.106172	5235.700000
2217.720089	5234.200000
2219.332015	5240.800000
2220.945304	5236.500000
2222.556603	5218.000000
2224.165912	5199.000000
2225.776585	5269.400000
2227.385269	5234.100000
2228.993640	5222.300000
2230.600025	5197.500000
2232.207773	5189.100000
2233.813534	5261.400000
2235.418984	5214.500000
2237.022449	5243.400000
2238.627277	5217.200000
2240.230121	5151.200000
2241.830982	5212.600000
2243.433206	5184.600000
2245.033448	5231.700000
2246.635052	5189.300000
2248.233003	5181.000000
2249.832317	5219.800000
2251.429651	5213.900000
2253.026677	5130.500000
2254.625065	5149.000000
2256.219804	5196.000000
2257.812566	5183.800000
2259.406691	5123.400000
2261.002177	5141.500000
2262.594018	5069.700000
2264.185553	5097.500000
2265.778450	5071.100000
2267.366037	5070.600000
2268.958320	5144.100000
2270.545297	5126.400000
2272.135301	5128.300000
2273.720001	5071.600000
2275.309395	5133.100000
2276.893487	5041.200000
2278.478939	5109.200000
2280.062423	5096.300000
2281.648932	5071.900000
2283.231808	5044.400000
2284.814381	5017.700000
2286.396650	5077.600000
2287.975289	5079.100000
2289.556953	4992.600000
2291.134988	5006.900000
2292.716046	5040.900000
2294.293477	5013.700000
2295.868945	4986.500000
2297.447435	4924.300000
2299.022301	5026.900000
2300.596866	4996.600000
2302.171131	4982.700000
2303.745095	4985.000000
2305.318758	5037.100000
2306.892122	4953.500000
2308.461867	4926.100000
2310.031313	4975.900000
2311.603777	4969.500000
2313.170967	5048.400000
2314.741175	4912.600000
2316.307768	4949.100000
2317.875721	4938.600000
2319.441718	4967.600000
2321.007418	4925.900000
2322.572820	4971.300000
2324.136269	4957.900000
2325.701077	4970.500000
2327.262277	4979.400000
2328.826491	5001.000000
2330.385443	5023.000000
2331.947410	5022.600000
2333.507425	4991.900000
2335.067146	5000.500000
2336.624917	5003.400000
2338.182393	4936.900000
2339.739575	5048.300000
2341.294809	4957.600000
2342.849750	5012.500000
2344.404396	5018.000000
2345.958749	4992.200000
2347.512809	5019.100000
2349.066574	5076.900000
2350.618395	4988.800000
2352.168274	4995.400000
2353.721160	5014.000000
2355.268803	5019.400000
2356.819455	4985.900000
2358.366515	5008.300000
2359.914933	4972.600000
2361.463060	5019.100000
2363.007598	4955.700000
2364.553494	5007.700000
2366.097452	5001.400000
2367.642767	4938.900000
2369.184497	4975.100000
2370.727584	4998.800000
2372.268735	4967.000000
2373.809597	4985.000000
2375.350170	4981.400000
2376.890454	4974.600000
2378.430449	5018.300000
2379.966866	4931.000000
2381.506284	4992.200000
2383.042124	5026.300000
2384.579322	4959.000000
2386.112944	4958.300000
2387.649566	4950.300000
2389.184258	4941.800000
2390.717020	4901.100000
2392.249495	4976.100000
2393.780042	4910.800000
2395.313587	4984.400000
2396.841921	4926.400000
2398.371612	4941.500000
2399.901016	4944.100000
2401.430136	4898.800000
2402.958971	4943.600000
2404.482600	4949.600000
2406.010865	4975.700000
2407.533928	4961.100000
2409.061624	4980.600000
2410.582481	4882.400000
2412.107971	4935.300000
2413.629900	4970.800000
2415.153185	4955.400000
2416.674548	4999.800000
2418.193992	4909.400000
2419.714791	4931.700000
2421.233672	4891.000000
2422.752270	4950.000000
2424.268951	4973.800000
2425.786986	4924.200000
2427.304740	4900.400000
2428.818943	4942.300000
2430.332865	4908.100000
2431.846507	4890.500000
2433.361504	4907.700000
2434.872952	4879.000000
2436.385755	4856.900000
2437.896644	4881.500000
2439.407255	4845.500000
2440.915954	4860.900000
2442.427639	4898.800000
2443.935781	4849.500000
2445.443645	4890.000000
2446.951231	4854.800000
2448.455276	4832.800000
2449.962306	4847.700000
2451.467428	4777.400000
2452.972273	4765.700000
2454.475211	4790.400000
2455.977873	4795.600000
2457.480258	4698.300000
2458.980738	4763.600000
2460.482571	4646.200000
2461.982499	4654.300000
2463.482152	4666.700000
2464.981530	4705.900000
2466.479005	4705.400000
2467.974578	4696.300000
2469.473131	4669.400000
2470.968156	4638.200000
2472.464533	4637.700000
2473.957384	4636.600000
2475.451588	4628.700000
2476.945518	4648.800000
2478.435924	4605.500000
2479.929308	4662.800000
2481.420794	4653.500000
2482.910383	4699.100000
2484.399700	4650.800000
2485.887121	4647.100000
2487.377518	4630.100000
2488.864397	4653.600000
2490.352627	4670.800000
2491.837340	4640.800000
2493.321784	4573.200000
2494.807578	4672.800000
2496.291481	4606.900000
2497.776734	4629.100000
2499.256854	4642.300000
2500.739947	4665.000000
2502.221149	4614.500000
2503.702082	4683.800000
2505.181126	4662.800000
2506.659901	4633.000000
2508.138408	4630.100000
2509.616647	4621.500000
2511.094617	4653.500000
2512.569082	4647.900000
2514.046517	4631.100000
2515.520448	4638.600000
2516.995729	4633.600000
2518.470743	4631.400000
2519.942256	4644.600000
2521.415120	4695.400000
2522.886101	4669.700000
2524.358432	4636.700000
2525.825649	4624.200000
2527.295833	4676.800000
2528.764136	4648.900000
2530.232174	4661.500000
2531.699947	4635.700000
2533.167455	4682.300000
2534.634698	4658.800000
2536.098449	4650.500000
2537.563550	4592.800000
2539.026774	4684.500000
2540.491347	4615.700000
2541.952432	4652.500000
2543.414866	4662.100000
2544.877037	4670.000000
2546.335722	4661.000000
2547.798978	4673.300000
2549.257139	4650.700000
2550.716648	4627.100000
2552.171063	4628.200000
2553.630049	4590.600000
2555.087163	4636.500000
2556.542406	4628.300000
2557.997387	4653.000000
2559.450500	4588.100000
2560.904961	4556.800000
2562.357552	4546.900000
2563.809884	4585.900000
2565.260349	4568.200000
2566.713769	4600.500000
2568.162107	4573.800000
2569.613400	4570.300000
2571.062828	4549.100000
2572.508783	4563.200000
2573.957693	4597.900000
2575.403133	4521.000000
2576.849920	4544.700000
2578.294845	4495.700000
2579.739511	4511.200000
2581.185525	4511.500000
2582.628073	4515.900000
2584.071968	4481.300000
2585.512398	4486.300000
2586.954175	4440.400000
2588.394093	4465.900000
2589.835358	4447.800000
2591.273161	4447.400000
2592.713914	4456.100000
2594.149605	4483.100000
2595.588245	4415.200000
2597.025027	4444.200000
2598.459954	4450.800000
2599.897828	4443.900000
2601.330645	4483.500000
2602.764809	4455.800000
2604.197119	4476.800000
2605.630775	4464.000000
2607.062578	4422.700000
2608.494127	4419.700000
2609.925424	4363.000000
2611.354868	4428.600000
2612.784060	4432.200000
2614.211402	4458.200000
2615.640089	4362.300000
2617.068525	4421.600000
2618.493513	4354.700000
2619.919848	4356.400000
2621.344334	4339.500000
2622.770166	4382.400000
2624.192554	4384.000000
2625.616288	4385.100000
2627.038175	4356.000000
2628.459813	4391.300000
2629.879605	4369.900000
2631.300743	4340.300000
2632.721631	4368.700000
2634.139081	4346.000000
2635.559470	4362.500000
2636.976422	4367.900000
2638.393125	4292.700000
2639.809580	4296.900000
2641.225787	4339.800000
2642.641746	4325.900000
2644.055864	4297.100000
2645.469734	4317.400000
2646.881766	4300.300000
2648.295141	4285.200000
2649.705087	4340.500000
2651.117969	4315.700000
2652.527422	4326.100000
2653.936629	4339.700000
2655.344000	4308.000000
2656.754305	4319.400000
2658.162775	4275.200000
2659.569409	4307.700000
2660.975798	4294.200000
2662.380353	4314.300000
2663.786252	4328.000000
2665.190318	4307.500000
2666.594139	4361.800000
2667.997716	4314.400000
2669.399462	4392.700000
2670.802551	4373.200000
2672.202222	4346.500000
2673.603237	4319.200000
2675.000836	4360.800000
2676.401365	4316.600000
2677.798478	4330.400000
2679.196935	4329.300000
2680.593565	4302.700000
2681.989952	4339.600000
2683.386097	4345.500000
2684.780416	4328.200000
2686.176078	4259.700000
2687.568331	4328.700000
2688.961926	4256.700000
2690.353697	4329.700000
2691.746811	4255.800000
2693.138101	4235.500000
2694.527568	4270.700000
2695.916795	4243.100000
2697.305783	4238.500000
2698.696112	4242.400000
2700.081458	4197.800000
2701.469727	4178.000000
2702.856176	4218.100000
2704.242386	4197.100000
2705.628357	4198.400000
2707.010930	4222.100000
2708.394845	4239.600000
2709.778522	4174.500000
2711.161960	4207.900000
2712.542004	4174.200000
2713.923388	4185.800000
2715.302958	4198.100000
2716.683868	4205.700000
2718.062964	4175.800000
2719.440246	4184.300000
2720.818869	4202.600000
2722.195679	4230.100000
2723.572252	4182.600000
2724.948590	4186.600000
2726.323117	4204.700000
2727.698984	4172.800000
2729.071464	4189.100000
2730.446860	4223.100000
2731.817296	4163.100000
2733.189073	4159.100000
2734.560615	4123.300000
2735.930349	4171.600000
2737.301424	4204.400000
2738.670690	4179.100000
2740.039723	4174.900000
2741.406950	4217.000000
2742.773943	4189.000000
2744.140704	4147.700000
2745.507233	4186.600000
2746.871956	4179.500000
2748.236447	4221.600000
2749.600707	4181.800000
2750.964734	4158.100000
2752.328530	4165.900000
2753.688952	4154.700000
2755.052284	4121.000000
2756.410674	4136.600000
2757.771974	4118.800000
2759.129904	4180.100000
2760.490742	4095.200000
2761.849781	4111.300000
2763.205451	4058.000000
2764.564029	4072.000000
2765.919240	4069.700000
2767.274222	4056.500000
2768.627408	4003.000000
2769.983500	4068.100000
2771.336227	4120.000000
2772.688727	4120.700000
2774.040998	4094.600000
2775.394607	4047.600000
2776.744856	4057.300000
2778.093310	4022.900000
2779.444670	3999.400000
2780.792670	4006.800000
2782.142008	4056.100000
2783.489554	4068.900000
2784.836874	4011.700000
2786.183967	3997.500000
2787.529269	3969.500000
2788.874344	3961.500000
2790.219194	3960.400000
2791.563818	3946.900000
2792.905090	3960.900000
2794.247700	3925.000000
2795.590084	3892.600000
2796.932243	3964.700000
2798.271053	3916.200000
2799.612763	3948.000000
2800.951125	3958.700000
2802.290823	3916.900000
2803.628737	3942.100000
2804.964866	3918.600000
2806.300771	3922.600000
2807.638014	3892.700000
2808.973473	3878.000000
2810.308709	3949.100000
2811.642162	3867.200000
2812.976952	3895.700000
2814.308402	3899.500000
2815.642747	3959.800000
2816.972194	3893.000000
2818.302978	3891.600000
2819.633540	3876.500000
2820.962323	3891.600000
2822.292442	3854.200000
2823.620783	3908.200000
2824.948903	3899.500000
2826.275245	3892.600000
2827.602924	3905.800000
2828.927269	3889.200000
2830.252951	3829.000000
2831.576857	3809.300000
2832.900544	3837.100000
2834.225566	3826.300000
2835.547258	3801.700000
2836.868732	3815.800000
2838.189987	3814.400000
2839.511023	3848.300000
2840.830286	3812.500000
2842.150885	3778.700000
2843.469713	3788.600000
2844.788322	3822.400000
2846.105160	3773.900000
2847.421781	3799.100000
2848.738185	3760.900000
2850.052819	3799.200000
2851.368789	3800.000000
2852.681438	3787.900000
2853.995422	3749.300000
2855.309190	3769.200000
2856.622741	3743.000000
2857.934526	3782.900000
2859.244544	3776.800000
2860.555897	3768.500000
2861.863935	3771.700000
2863.173307	3797.500000
2864.482465	3807.000000
2865.791407	3763.300000
2867.098585	3839.300000
2868.404001	3833.400000
2869.710750	3814.900000
2871.015738	3795.100000
2872.320512	3777.900000
2873.623524	3862.500000
2874.929417	3807.800000
2876.230456	3799.300000
2877.532829	3771.900000
2878.833442	3846.300000
2880.135389	3829.900000
2881.437122	3810.400000
2882.735552	3838.700000
2884.035315	3821.600000
2885.333321	3773.700000
2886.631115	3790.200000
2887.927153	3793.800000
2889.224524	3807.300000
2890.520139	3739.000000
2891.815543	3787.500000
2893.110736	3826.900000
2894.402632	3788.800000
2895.697404	3766.000000
2896.988879	3795.800000
2898.281687	3768.400000
2899.574285	3767.800000
2900.863589	3768.100000
2902.154225	3726.200000
2903.443110	3778.100000
2904.733327	3709.600000
2906.020253	3797.800000
2907.308511	3753.900000
2908.595020	3741.800000
2909.881320	3774.100000
2911.167413	3773.000000
2912.451757	3774.300000
2913.738972	3784.100000
2915.021361	3735.500000
2916.305082	3732.000000
2917.587057	3705.400000
2918.868824	3707.600000
2920.148847	3713.900000
2921.431739	3662.400000
2922.712886	3733.000000
2923.990751	3702.900000
2925.271485	3703.900000
2926.548938	3705.000000
2927.826185	3707.800000
2929.101690	3709.700000
2930.380063	3700.400000
2931.653622	3667.100000
2932.930048	3649.500000
2934.204733	3699.600000
2935.477677	3663.600000
2936.751953	3659.400000
2938.024489	3666.900000
2939.296820	3651.300000
2940.565879	3632.500000
2941.837803	3628.000000
2943.107989	3622.700000
2944.377971	3633.500000
2945.647750	3620.700000
2946.915793	3605.700000
2948.182099	3634.100000
2949.448204	3576.200000
2950.715638	3666.400000
2951.981338	3640.000000
2953.246835	3611.100000
2954.512130	3566.600000
2955.774160	3641.100000
2957.037520	3596.000000
2958.300679	3622.600000
2959.562106	3617.300000
2960.824862	3637.000000
2962.085886	3601.600000
2963.345180	3600.900000
2964.604274	3626.300000
2965.863167	3623.300000
2967.121860	3657.100000
2968.380353	3589.300000
2969.637117	3557.900000
2970.893681	3614.800000
2972.148518	3579.600000
2973.404683	3585.500000
2974.657594	3548.200000
2975.911834	3599.600000
2977.165875	3597.900000
2978.418190	3589.300000
2979.670306	3578.300000
2980.920698	3532.500000
2982.173945	3575.800000
2983.422415	3554.100000
2984.673740	3581.500000
2985.921815	3557.000000
2987.169694	3496.600000
2988.417375	3504.600000
2989.664859	3521.200000
2990.910622	3531.600000
2992.156189	3539.300000
2993.403083	3503.500000
2994.646733	3502.600000
2995.891711	3553.600000
2997.133445	3531.000000
2998.378031	3484.500000
2999.620898	3493.100000
3000.860524	3540.200000
3002.103000	3510.800000
3003.342236	3486.400000
3004.582800	3518.400000
3005.821648	3495.300000
3007.060300	3448.100000
3008.297237	3476.400000
3009.535502	3462.500000
3010.772051	3514.400000
3012.008407	3448.400000
3013.244569	3480.400000
3014.479017	3453.900000
3015.713273	3457.100000
3016.947335	3476.000000
3018.179685	3435.000000
3019.410323	3434.900000
3020.643807	3420.500000
3021.875579	3439.200000
3023.105641	3473.300000
3024.335510	3458.300000
3025.563671	3436.500000
3026.793157	3462.900000
3028.020934	3436.600000
3029.248520	3464.300000
3030.477433	3422.100000
3031.701603	3409.400000
3032.928616	3415.900000
3034.152405	3432.900000
3035.377521	3405.800000
3036.600930	3420.600000
3037.824149	3434.300000
3039.045663	3358.200000
3040.270018	3409.500000
3041.489638	3417.100000
3042.710584	3420.700000
3043.931341	3371.400000
3045.150394	3414.100000
3046.370772	3361.800000
3047.587934	3373.900000
3048.806422	3322.200000
3050.023207	3382.800000
3051.239805	3354.400000
3052.456214	3356.700000
3053.669411	3364.000000
3054.885445	3341.900000
3056.098267	3342.000000
3057.313926	3319.400000
3058.524862	3335.200000
3059.737123	3361.200000
3060.949198	3338.400000
3062.161085	3337.600000
3063.371276	3318.500000
3064.581280	3340.400000
3065.791098	3351.600000
3066.999220	3326.500000
3068.207157	3270.400000
3069.413398	3315.700000
3070.620964	3291.700000
3071.826835	3303.700000
3073.032522	3315.700000
3074.238023	3320.100000
3075.441831	3350.700000
3076.646963	3287.000000
3077.850402	3346.300000
3079.052150	3307.100000
3080.253713	3261.600000
3081.455093	3333.500000
3082.656289	3289.300000
3083.855795	3324.800000
3085.055118	3301.300000
3086.255764	3280.800000
3087.454720	3278.200000
3088.650482	3312.800000
3089.849073	3264.100000
3091.044470	3302.200000
3092.241190	3304.600000
3093.434718	3249.400000
3094.631074	3310.400000
3095.825744	3282.500000
3097.017223	3242.400000
3098.213033	3238.000000
3099.404149	3225.600000
3100.596589	3314.400000
3101.785841	3268.900000
3102.977918	3243.300000
3104.168312	3263.000000
3105.355520	3272.000000
3106.544051	3239.800000
3107.733903	3228.200000
3108.920572	3216.000000
3110.107060	3219.800000
3111.293370	3243.000000
3112.481001	3201.700000
3113.665450	3204.800000
3114.848220	3187.100000
3116.033812	3230.700000
3117.217725	3213.400000
3118.399959	3197.000000
3119.582014	3218.100000
3120.763891	3174.800000
3121.945590	3204.500000
3123.125612	3175.000000
3124.303957	3168.000000
3125.485122	3197.300000
3126.663112	3237.000000
3127.840926	3143.900000
3129.018562	3187.500000
3130.194523	3191.200000
3131.370307	3201.700000
3132.547413	3169.500000
3133.722844	3163.200000
3134.896602	3189.800000
3136.068687	3220.400000
3137.242094	3205.800000
3138.415324	3224.900000
3139.586883	3163.600000
3140.759762	3172.900000
3141.929474	3212.400000
3143.100507	3175.800000
3144.269870	3225.700000
3145.437562	3207.600000
3146.608070	3207.800000
3147.773920	3232.300000
3148.944078	3177.700000
3150.109580	3150.600000
3151.274907	3141.000000
3152.440061	3158.800000
3153.605042	3158.700000
3154.771342	3162.800000
3155.932990	3165.800000
3157.095957	3113.400000
3158.258752	3114.800000
3159.421374	3160.000000
3160.582331	3073.300000
3161.743115	3080.500000
3162.903727	3044.800000
3164.062675	3100.900000
3165.221452	3067.800000
3166.380057	3087.300000
3167.538489	3037.100000
3168.696751	3099.200000
3169.853350	3101.400000
3171.008288	3058.600000
3172.164545	3044.400000
3173.319141	3087.800000
3174.473567	3042.700000
3175.626333	3059.000000
3176.778928	3032.100000
3177.931354	3035.500000
3179.083610	3051.700000
3180.235695	3060.000000
3181.384635	3027.800000
3182.536381	3012.900000
3183.686469	3045.800000
3184.834901	3028.400000
3185.983163	3036.900000
3187.131257	3076.700000
3188.279182	3055.400000
3189.425451	3038.800000
3190.571552	3092.900000
3191.715999	3120.500000
3192.860278	3091.800000
3194.004389	3085.600000
3195.149817	3036.900000
3196.292107	3061.900000
3197.434230	3019.800000
3198.576185	3071.000000
3199.717973	3032.100000
3200.859594	3036.000000
3201.998080	3036.700000
3203.137883	3055.400000
3204.279004	3063.300000
3205.416990	3031.300000
3206.553327	2995.300000
3207.689498	3045.800000
3208.826986	3049.400000
3209.962826	3043.400000
3211.099983	3048.200000
3212.232527	3021.300000
3213.369353	3054.200000
3214.501567	3046.500000
3215.635098	2998.600000
3216.768465	2971.900000
3217.898704	2980.600000
3219.031741	2981.700000
3220.161652	2930.200000
3221.292879	2977.300000
3222.420982	2893.400000
3223.551881	2917.900000
3224.681136	2947.600000
3225.808748	2900.800000
3226.933237	2869.500000
3228.062002	2928.700000
3229.187645	2933.100000
3230.313126	2916.600000
3231.436965	2924.700000
3232.563598	2958.300000
3233.685634	2933.700000
3234.808986	2950.500000
3235.932176	2920.600000
3237.055203	2894.900000
3238.176592	2924.800000
3239.297818	2922.300000
3240.417407	2933.700000
3241.536834	2881.500000
3242.654623	2903.100000
3243.775204	2942.900000
3244.892672	2964.300000
3246.009979	2929.500000
3247.127126	2981.900000
3248.242637	2958.100000
3249.359462	3003.300000
3250.473178	2968.600000
3251.589683	3022.200000
3252.704554	2971.700000
3253.816316	2971.100000
3254.927918	2995.300000
3256.040836	2992.400000
3257.153594	2956.000000
3258.263246	2962.700000
3259.374213	2968.400000
3260.485021	2948.300000
3261.594197	2948.400000
3262.701743	2982.700000
3263.810602	2917.100000
3264.919304	2974.600000
3266.024903	2935.900000
3267.131816	2921.600000
3268.237100	2941.400000
3269.343698	2957.200000
3270.447196	2951.000000
3271.552009	2973.000000
3272.656664	2948.000000
3273.758220	2953.600000
3274.859620	2938.500000
3275.962334	2947.500000
3277.064892	2917.400000
3278.164353	2902.100000
3279.266598	2926.900000
3280.365747	2884.700000
3281.463272	2931.300000
3282.560641	2908.000000
3283.660792	2941.200000
3284.757851	2908.900000
3285.854754	2899.100000
3286.951502	2917.700000
3288.043692	2891.200000
3289.140130	2911.400000
3290.234946	2825.400000
3291.329608	2891.700000
3292.422648	2882.600000
3293.515533	2897.300000
3294.606799	2879.800000
3295.699376	2878.200000
3296.790334	2893.000000
3297.879672	2862.800000
3298.968857	2863.300000
3300.059355	2844.300000
3301.146768	2847.800000
3302.234028	2843.600000
3303.322601	2858.400000
3304.411022	2854.900000
3305.494895	2884.600000
3306.583010	2862.700000
3307.668043	2884.300000
3308.751461	2842.400000
3309.836191	2859.500000
3310.919305	2846.300000
3312.003732	2850.700000
3313.085080	2881.300000
3314.167740	2896.500000
3315.248786	2858.900000
3316.329681	2892.600000
3317.408962	2847.500000
3318.488093	2878.100000
3319.568536	2891.200000
3320.645904	2849.100000
3321.724584	2836.400000
3322.801652	2862.100000
3323.878571	2850.500000
3324.953878	2809.400000
3326.029036	2841.700000
3327.105505	2895.100000
3328.178904	2834.900000
3329.252154	2879.400000
3330.326714	2884.900000
3331.399666	2864.000000
3332.471009	2846.800000
3333.543663	2853.600000
3334.613251	2846.200000
3335.684149	2822.300000
3336.753440	2822.000000
3337.824042	2782.200000
3338.893037	2800.600000
3339.960426	2791.900000
3341.026210	2792.800000
3342.096220	2833.800000
3343.163167	2758.400000
3344.227052	2788.800000
3345.293705	2770.900000
3346.358753	2762.100000
3347.422198	2763.600000
3348.485497	2796.200000
3349.548649	2766.000000
3350.611655	2776.400000
3351.674515	2753.300000
3352.735773	2808.500000
3353.793974	2756.600000
3354.856395	2801.100000
3355.915761	2790.000000
3356.974981	2757.300000
3358.035511	2805.600000
3359.091531	2788.500000
3360.150315	2804.600000
3361.204592	2799.400000
3362.261633	2789.900000
3363.317075	2814.900000
3364.373827	2836.800000
3365.428980	2806.200000
3366.482536	2784.300000
3367.534496	2779.600000
3368.589217	2775.300000
3369.640889	2781.500000
3370.692418	2818.600000
3371.745255	2763.700000
3372.795045	2815.700000
3373.846144	2787.200000
3374.894197	2780.300000
3375.945009	2769.500000
3376.992777	2782.200000
3378.040402	2794.400000
3379.087884	2764.900000
3380.133774	2837.100000
3381.180972	2763.500000
3382.225128	2749.500000
3383.272042	2796.900000
3384.317364	2784.600000
3385.359645	2763.400000
3386.401786	2781.100000
3387.445234	2768.000000
3388.488541	2758.100000
3389.530259	2740.200000
3390.571835	2817.800000
3391.613270	2767.900000
3392.653117	2775.800000
3393.691375	2758.400000
3394.730941	2775.200000
3395.770367	2777.200000
3396.808205	2745.200000
3397.844456	2795.000000
3398.880568	2752.800000
3399.917987	2753.200000
3400.952373	2702.100000
3401.988066	2745.800000
3403.023620	2742.900000
3404.056143	2770.500000
3405.091419	2745.000000
3406.123664	2750.400000
3407.155771	2750.900000
3408.186294	2727.100000
3409.218124	2742.600000
3410.249816	2751.000000
3411.278480	2783.100000
3412.307007	2754.900000
3413.336840	2763.000000
3414.366536	2725.800000
3415.393206	2732.000000
3416.421183	2717.600000
3417.446135	2718.100000
3418.473837	2720.800000
3419.498516	2793.800000
3420.524501	2753.200000
3421.548906	2740.400000
3422.573175	2712.800000
3423.595865	2752.100000
3424.618419	2688.800000
3425.642279	2741.900000
3426.663119	2716.800000
3427.683823	2684.400000
3428.705834	2686.700000
3429.724826	2690.000000
3430.743682	2738.100000
3431.763845	2669.800000
3432.780991	2678.500000
