-116.475622	43.300000
-113.806022	30.800000
-111.139357	47.700000
-108.473444	32.300000
-105.810463	51.800000
-103.146053	43.900000
-100.484573	57.100000
-97.821664	51.200000
-95.163861	53.900000
-92.504629	51.000000
-89.846145	37.700000
-87.190585	63.900000
-84.533597	33.800000
-81.881707	38.800000
-79.228387	56.600000
-76.577986	57.300000
-73.926156	56.400000
-71.279417	45.900000
-68.631249	65.400000
-65.983823	43.400000
-63.339311	61.200000
-60.693371	59.300000
-58.052512	66.700000
-55.410224	47.600000
-52.770845	60.300000
-50.130036	56.600000
-47.489968	66.200000
-44.854972	44.600000
-42.218548	57.400000
-39.585026	44.200000
-36.950076	45.000000
-34.320191	62.700000
-31.686714	52.500000
-29.058299	53.200000
-26.430618	78.000000
-23.801508	70.900000
-21.177455	101.700000
-18.549813	60.900000
-15.927224	102.200000
-13.305367	110.700000
-10.684240	188.100000
-8.063843	374.000000
-5.446335	1254.700000
-2.827398	3545.500000
-0.211346	7593.300000
2.403977	8837.800000
5.018573	3760.200000
7.630286	446.300000
10.243428	132.000000
12.851536	103.900000
15.463226	100.800000
18.069885	61.800000
20.677972	81.000000
23.285335	83.300000
25.887673	100.500000
28.493589	74.000000
31.094483	86.100000
33.696805	86.000000
36.294110	103.500000
38.894990	89.700000
41.490855	81.700000
44.088149	95.600000
46.684723	105.400000
49.276288	76.600000
51.869281	107.000000
54.459413	80.000000
57.050973	107.700000
59.639673	91.700000
62.229800	103.900000
64.814928	98.200000
67.401484	106.200000
69.987326	95.300000
72.570314	98.100000
75.154728	80.400000
77.732014	116.300000
80.312866	115.900000
82.890869	114.900000
85.468162	125.200000
88.046881	133.400000
90.620618	128.900000
93.195783	142.500000
95.768104	144.600000
98.339717	175.100000
100.908490	162.300000
103.478690	179.700000
106.046052	213.900000
108.614839	258.800000
111.180790	286.400000
113.743906	361.500000
116.310578	434.300000
118.868029	591.700000
121.431165	800.700000
123.989341	1199.100000
126.551072	1685.400000
129.107846	2519.700000
131.666047	3796.800000
134.219294	5644.400000
136.771844	8275.800000
139.327944	11600.300000
141.879096	15399.300000
144.429551	19235.900000
146.979308	22190.600000
149.526246	24539.700000
152.072489	25700.200000
154.620157	26325.800000
157.167129	26550.200000
159.709166	26351.900000
162.250509	26263.600000
164.791159	26213.500000
167.333235	26020.100000
169.872499	26027.000000
172.408955	25854.500000
174.944719	25696.500000
177.481909	25510.600000
180.018408	25331.400000
182.552101	25228.100000
185.082990	25080.400000
187.613192	24979.700000
190.144818	25018.000000
192.673643	25058.100000
195.199669	25024.700000
197.725009	24837.300000
200.251774	24873.100000
202.775743	24903.700000
205.299027	24831.000000
207.821626	24840.100000
210.341432	24838.400000
212.860555	24644.300000
215.378995	24577.500000
217.898859	24719.800000
220.411722	24760.500000
222.928116	24860.400000
225.443828	24798.000000
227.954650	24788.200000
230.466897	24974.000000
232.976362	24922.800000
235.485148	25008.100000
237.993255	25168.800000
240.502787	24982.600000
243.007438	25148.700000
245.511413	25138.700000
248.016812	25206.900000
250.517336	25247.000000
253.021384	25348.100000
255.518460	25390.400000
258.019060	25502.800000
260.516888	25438.100000
263.014043	25413.600000
265.510525	25398.900000
268.002144	25445.300000
270.497283	25463.800000
272.989655	25303.800000
275.481357	25372.000000
277.970296	25467.700000
280.460659	25433.400000
282.948259	25241.700000
285.433100	25319.600000
287.921456	25250.200000
290.402872	25038.700000
292.887802	25210.800000
295.367887	25163.200000
297.851484	25173.000000
300.330238	25287.700000
302.810416	25323.700000
305.287841	25275.100000
307.764603	25184.200000
310.240702	25188.500000
312.714052	25044.200000
315.186740	25228.400000
317.658767	25265.600000
320.130133	25500.100000
322.598754	25523.800000
325.066717	25667.800000
327.536101	25438.500000
330.000663	25397.500000
332.468729	25391.500000
334.931975	25392.200000
337.394563	25312.300000
339.856495	25092.300000
342.317770	25175.600000
344.776311	25070.200000
347.236274	24866.600000
349.693504	24756.600000
352.150080	24630.500000
354.606002	24429.500000
357.059194	24032.100000
359.513809	23926.900000
361.963622	23758.300000
364.416931	23567.000000
366.865442	23280.900000
369.313301	23080.000000
371.762583	22937.300000
374.207071	22650.300000
376.652981	22395.600000
379.098241	21964.600000
381.540783	21993.000000
383.982677	21756.900000
386.423924	21639.300000
388.862455	21385.900000
391.302408	21105.000000
393.739647	21116.200000
396.174174	20695.200000
398.612189	20696.500000
401.045427	20374.100000
403.480086	20162.400000
405.909973	20084.300000
408.343345	19996.500000
410.771947	19917.700000
413.199907	19545.800000
415.629289	19586.800000
418.053905	19577.500000
420.479943	19474.000000
422.905340	19375.500000
425.330097	19280.700000
427.750096	19127.800000
430.171516	19203.400000
432.590239	19069.500000
435.010383	19104.100000
437.427832	19042.100000
439.846701	18991.300000
442.262877	19066.300000
444.674305	19088.100000
447.089211	19021.900000
449.501426	18959.500000
451.913007	19080.900000
454.323954	18982.900000
456.732215	18937.800000
459.139843	18830.000000
461.546839	18992.000000
463.953204	18863.100000
466.356886	18806.100000
468.759938	18758.300000
471.162360	18770.200000
473.564152	18548.400000
475.963267	18577.100000
478.363801	18560.000000
480.763706	18495.000000
483.158888	18475.500000
485.557537	18400.400000
487.951466	18250.100000
490.344769	18181.900000
492.737446	18023.800000
495.129498	18228.200000
497.522968	17995.600000
499.911726	17926.600000
502.297818	17921.600000
504.685330	17722.600000
507.072219	17735.600000
509.456444	17691.100000
511.842087	17671.700000
514.225069	17508.700000
516.605390	17438.900000
518.987130	17704.300000
521.366211	17505.900000
523.746711	17582.300000
526.124553	17458.100000
528.499740	17558.400000
530.874309	17371.800000
533.250296	17329.400000
535.623631	17241.200000
537.998383	17093.600000
540.368450	16969.300000
542.737901	16837.400000
545.108770	16523.600000
547.474959	16179.500000
549.842566	16260.100000
552.207527	15849.200000
554.571875	15732.200000
556.935610	15488.400000
559.300763	15355.600000
561.661244	15150.900000
564.023143	15092.500000
566.382401	14814.700000
568.739022	14624.200000
571.099087	14462.600000
573.452461	14181.200000
575.809280	14040.400000
578.163464	13780.000000
580.517039	13573.100000
582.870007	13289.100000
585.220342	13067.500000
587.572095	12960.200000
589.917171	12706.400000
592.267711	12544.300000
594.611577	12398.200000
596.960905	12153.400000
599.305584	12075.400000
601.647639	11870.700000
603.991111	11751.600000
606.331960	11661.900000
608.672207	11552.900000
611.009833	11544.200000
613.350894	11369.100000
615.687317	11350.900000
618.025157	11279.100000
620.360380	11224.700000
622.692987	11195.500000
625.027010	11240.500000
627.358419	11265.600000
629.689230	11195.400000
632.019444	11201.500000
634.349059	11134.300000
636.674051	11123.500000
639.004485	11199.700000
641.330298	11093.100000
643.653503	11138.800000
645.978125	11130.400000
648.300141	11274.600000
650.621563	11190.500000
652.940383	11340.100000
655.260618	11272.000000
657.580260	11404.900000
659.897301	11421.000000
662.213750	11562.200000
664.527601	11588.600000
666.842868	11791.200000
669.155538	11919.500000
671.469623	11923.000000
673.779108	12182.000000
676.090009	12347.400000
678.398317	12390.300000
680.706037	12517.100000
683.015171	12762.600000
685.319713	12852.300000
687.623669	12930.700000
689.927039	13032.200000
692.231823	13278.600000
694.532021	13347.700000
696.833633	13510.700000
699.134661	13558.500000
701.431106	13682.500000
703.728967	13819.900000
706.026244	13869.600000
708.322938	14050.200000
710.615056	14137.900000
712.910585	14196.200000
715.201540	14484.900000
717.493910	14474.400000
719.783705	14629.700000
722.072919	14675.000000
724.361554	14917.200000
726.647616	15039.500000
728.935093	15191.300000
731.219998	15153.100000
733.504326	15433.000000
735.786085	15447.200000
738.069258	15431.400000
740.351854	15653.200000
742.629894	15739.300000
744.909349	15952.200000
747.188227	16121.300000
749.466531	16245.100000
751.740285	16319.600000
754.015452	16531.200000
756.290046	16661.300000
758.562081	16736.700000
760.835529	16915.400000
763.106419	17151.200000
765.374753	17107.500000
767.644500	17300.700000
769.911693	17324.500000
772.178315	17679.300000
774.444367	17817.600000
776.707868	17768.200000
778.972782	17928.500000
781.237126	18193.300000
783.496941	18210.300000
785.758168	18304.700000
788.018828	18444.700000
790.276942	18683.800000
792.532511	18758.900000
794.791471	18846.200000
797.043932	18931.100000
799.301759	18967.600000
801.555068	19006.800000
803.805837	19101.300000
806.058018	19045.000000
808.307660	19206.900000
810.558715	19290.600000
812.805258	19294.300000
815.053213	19357.600000
817.298634	19501.300000
819.545466	19506.300000
821.791737	19702.400000
824.033503	19660.700000
826.278653	19836.100000
828.517330	19958.000000
830.759389	20046.900000
832.996950	20188.100000
835.235923	20453.400000
837.472369	20543.600000
839.710226	20605.500000
841.945558	20719.400000
844.178367	21200.100000
846.412587	21355.500000
848.644284	21537.700000
850.875427	21751.000000
853.106015	22065.800000
855.336049	22476.000000
857.565529	22637.100000
859.790527	23062.700000
862.018900	23323.500000
864.242793	23716.300000
866.468098	24197.300000
868.688927	24754.000000
870.913128	25062.000000
873.132856	25481.800000
875.353994	25825.600000
877.574582	26433.600000
879.792661	27022.600000
882.012149	27361.200000
884.227171	27828.000000
886.441645	28220.900000
888.655572	28587.400000
890.868952	28740.400000
893.081784	28920.900000
895.294070	29087.000000
897.503853	29301.100000
899.713091	29071.100000
901.921784	29283.100000
904.127978	29142.100000
906.335581	29005.300000
908.540686	28574.700000
910.745248	28336.100000
912.947315	27895.600000
915.150791	27370.800000
917.351773	26996.100000
919.552213	26333.900000
921.754062	25748.900000
923.949520	24962.400000
926.148337	24424.000000
928.342715	23889.200000
930.540451	23050.800000
932.733751	22423.000000
934.928460	22012.700000
937.120683	21334.600000
939.312367	20978.400000
941.503514	20604.000000
943.692178	20262.400000
945.880306	20077.100000
948.065953	19733.400000
950.254952	19686.700000
952.439528	19628.000000
954.623569	19594.400000
956.810960	19452.400000
958.990047	19441.400000
961.172485	19393.900000
963.354389	19436.300000
965.533818	19441.200000
967.710775	19480.500000
969.889140	19478.500000
972.068912	19490.100000
974.242335	19240.300000
976.419104	19257.300000
978.591466	19149.400000
980.765236	18860.400000
982.934602	18581.700000
985.107312	18501.200000
987.277557	18251.600000
989.447273	17843.500000
991.616460	17576.400000
993.781250	17256.700000
995.949381	16944.400000
998.113118	16642.900000
1000.278261	16348.700000
1002.440945	16144.400000
1004.603104	15766.700000
1006.762806	15725.000000
1008.921983	15179.500000
1011.082567	15029.300000
1013.240697	14793.600000
1015.398302	14544.000000
1017.555384	14318.200000
1019.711942	13966.100000
1021.864121	13814.800000
1024.017707	13533.600000
1026.170771	13428.900000
1028.321386	13248.100000
1030.473408	13125.800000
1032.621056	13049.000000
1034.772036	12872.200000
1036.918645	12641.600000
1039.064735	12544.400000
1041.210307	12433.900000
1043.357284	12231.500000
1045.497972	12059.900000
1047.641990	11824.000000
1049.783567	11811.400000
1051.924628	11681.000000
1054.067093	11529.100000
1056.203279	11525.100000
1058.342790	11305.600000
1060.477947	11246.800000
1062.616428	11097.100000
1064.750555	11003.500000
1066.884169	10941.300000
1069.019188	10710.600000
1071.149857	10602.600000
1073.281931	10527.200000
1075.411576	10367.700000
1077.540709	10294.000000
1079.669330	10132.500000
1081.797440	10005.900000
1083.923124	9868.600000
1086.048298	9768.400000
1088.174876	9520.300000
1090.297116	9399.500000
1092.420761	9188.100000
1094.540071	9110.500000
1096.664611	8816.300000
1098.782905	8707.500000
1100.902604	8476.900000
1103.019884	8341.500000
1105.136658	8155.200000
1107.252925	8001.500000
1109.366776	7815.200000
1111.482032	7538.900000
1113.592964	7459.700000
1115.707209	7310.900000
1117.817133	7087.300000
1119.928461	6886.900000
1122.039284	6725.900000
1124.145791	6558.000000
1126.255608	6432.900000
1128.361110	6307.200000
1130.468015	6108.600000
1132.568705	5955.100000
1134.674607	5819.200000
1136.776200	5698.100000
1138.879196	5557.900000
1140.981691	5426.200000
1143.077979	5282.400000
1145.179475	5147.600000
1147.276667	5047.000000
1149.373362	4946.200000
1151.469558	4852.100000
1153.565257	4682.000000
1155.660457	4632.300000
1157.753261	4499.500000
1159.847468	4453.800000
1161.935483	4351.900000
1164.028696	4274.200000
1166.115721	4145.800000
1168.206045	4070.200000
1170.292082	4017.500000
1172.381416	3962.400000
1174.464569	3853.700000
1176.549124	3785.200000
1178.635081	3733.400000
1180.716756	3635.400000
1182.799833	3528.700000
1184.880524	3498.800000
1186.960723	3432.400000
1189.040431	3371.100000
1191.119648	3335.300000
1193.196483	3278.600000
1195.270937	3271.800000
1197.348682	3203.100000
1199.422158	3119.800000
1201.497034	3104.100000
1203.567643	3101.400000
1205.639653	3055.200000
1207.709288	3045.800000
1209.780323	2995.500000
1211.850870	2979.200000
1213.917156	2902.300000
1215.984843	2928.900000
1218.050158	2890.800000
1220.116873	2847.900000
1222.179332	2829.900000
1224.245076	2807.600000
1226.306566	2834.700000
1228.369457	2819.500000
1230.429980	2748.600000
1232.490019	2751.800000
1234.549576	2785.000000
1236.606767	2782.500000
1238.663477	2735.800000
1240.717823	2723.300000
1242.775451	2690.800000
1244.830716	2725.400000
1246.881740	2747.100000
1248.934164	2708.700000
1250.986108	2692.000000
1253.035694	2710.900000
1255.084801	2691.500000
1257.133430	2681.600000
1259.181580	2663.300000
1261.229251	2648.400000
1263.272692	2644.600000
1265.319409	2614.200000
1267.363772	2627.400000
1269.407659	2621.800000
1271.449194	2645.800000
1273.488380	2548.400000
1275.530839	2596.800000
1277.569075	2677.700000
1279.608710	2603.900000
1281.647870	2583.100000
1283.682811	2533.800000
1285.719151	2578.900000
1287.753147	2581.300000
1289.788540	2591.400000
1291.819721	2543.600000
1293.852299	2544.500000
1295.884406	2583.800000
1297.914172	2542.200000
1299.945336	2588.200000
1301.972292	2586.800000
1304.000646	2557.400000
1306.024795	2568.500000
1308.052210	2569.800000
1310.075422	2599.700000
1312.100032	2566.200000
1314.122308	2571.000000
1316.145981	2559.200000
1318.167321	2574.000000
1320.188193	2565.000000
1322.208598	2538.900000
1324.224810	2567.300000
1326.242419	2535.100000
1328.257700	2553.500000
1330.276240	2538.600000
1332.290591	2547.000000
1334.302616	2543.600000
1336.317898	2572.700000
1338.328995	2556.600000
1340.341489	2505.400000
1342.349800	2543.000000
1344.361366	2538.300000
1346.366894	2527.200000
1348.375677	2524.600000
1350.380282	2519.100000
1352.388141	2546.800000
1354.395538	2558.100000
1356.396904	2530.700000
1358.399666	2552.200000
1360.401969	2534.700000
1362.403812	2568.800000
1364.405195	2548.000000
1366.404265	2557.700000
1368.402876	2533.700000
1370.401029	2548.100000
1372.398723	2533.800000
1374.392255	2490.100000
1376.387182	2521.300000
1378.381653	2544.500000
1380.375667	2534.100000
1382.367374	2543.600000
1384.358626	2568.000000
1386.347572	2568.700000
1388.337913	2565.300000
1390.327799	2545.600000
1392.315381	2563.800000
1394.302510	2560.800000
1396.287337	2570.800000
1398.273559	2523.500000
1400.257481	2508.600000
1402.240950	2530.600000
1404.223966	2530.000000
1406.204685	2543.100000
1408.186798	2540.200000
1410.166615	2540.800000
1412.145980	2459.700000
1414.121207	2527.700000
1416.099672	2487.100000
1418.075844	2526.200000
1420.051567	2502.800000
1422.026840	2493.900000
1423.999822	2455.200000
1425.972356	2498.100000
1427.944442	2455.900000
1429.916081	2475.400000
1431.883591	2482.300000
1433.856175	2466.800000
1435.820953	2474.100000
1437.790804	2459.300000
1439.756531	2443.400000
1441.723650	2433.300000
1443.688486	2416.200000
1445.649202	2451.400000
1447.614986	2402.700000
1449.574815	2420.500000
1451.536038	2392.000000
1453.498653	2395.000000
1455.457153	2431.400000
1457.415210	2403.900000
1459.372826	2376.100000
1461.329999	2373.100000
1463.284897	2377.500000
1465.241188	2374.400000
1467.195204	2331.800000
1469.148779	2353.700000
1471.100082	2294.800000
1473.052778	2335.200000
1475.003201	2320.800000
1476.953186	2322.500000
1478.902732	2343.300000
1480.850009	2320.400000
1482.795018	2294.200000
1484.741420	2300.200000
1486.687384	2270.300000
1488.632911	2326.400000
1490.576172	2276.000000
1492.518998	2302.500000
1494.459560	2287.000000
1496.401513	2317.700000
1498.341204	2299.300000
1500.280461	2283.500000
1502.219282	2272.700000
1504.155844	2278.300000
1506.093797	2294.000000
1508.029491	2259.700000
1509.964752	2270.500000
1511.897757	2255.000000
1513.830329	2267.200000
1515.762469	2271.800000
1517.694177	2256.900000
1519.623631	2259.900000
1521.554476	2266.300000
1523.484889	2260.600000
1525.411230	2232.900000
1527.338962	2256.100000
1529.264443	2235.500000
1531.189495	2213.200000
1533.114118	2228.400000
1535.038312	2204.800000
1536.960258	2217.400000
1538.883595	2181.700000
1540.804685	2226.000000
1542.723531	2189.300000
1544.643767	2224.800000
1546.561760	2218.800000
1548.479326	2202.900000
1550.394650	2216.800000
1552.311364	2215.200000
1554.224023	2197.000000
1556.139886	2232.300000
1558.053509	2211.500000
1559.964894	2196.300000
1561.877669	2188.500000
1563.786394	2140.500000
1565.696508	2194.500000
1567.606199	2129.000000
1569.515467	2193.400000
1571.422501	2157.300000
1573.327302	2147.700000
1575.233492	2155.300000
1577.137450	2156.300000
1579.040987	2149.800000
1580.944104	2140.700000
1582.844991	2173.000000
1584.747267	2130.100000
1586.647315	2151.700000
1588.548750	2185.400000
1590.446152	2133.600000
1592.343135	2127.600000
1594.239700	2132.200000
1596.137653	2142.500000
1598.029771	2084.700000
1599.925082	2137.900000
1601.819976	2134.300000
1603.712648	2137.400000
1605.604903	2113.600000
1607.494939	2118.600000
1609.384559	2112.500000
1611.273764	2095.700000
1613.162554	2107.000000
1615.049126	2095.300000
1616.937086	2081.700000
1618.821029	2059.400000
1620.706359	2102.700000
1622.591276	2113.800000
1624.473979	2081.900000
1626.358069	2111.900000
1628.238147	2099.800000
1630.119613	2089.800000
1631.998868	2083.500000
1633.879509	2092.300000
1635.754346	2081.400000
1637.634164	2095.900000
1639.509978	2083.100000
1641.385381	2047.300000
1643.262170	2055.600000
1645.133163	2101.100000
1647.007337	2062.500000
1648.877512	2047.700000
1650.750869	2059.100000
1652.622022	2085.300000
1654.490973	2039.800000
1656.361309	2054.000000
1658.227653	2033.600000
1660.095382	2036.800000
1661.960912	2059.200000
1663.827828	2021.700000
1665.690755	2041.100000
1667.555067	2003.400000
1669.417183	1991.400000
1671.278894	1981.100000
1673.141991	1999.400000
1675.002892	1992.300000
1676.861601	2009.600000
1678.719906	1977.400000
1680.579596	1990.000000
1682.433518	2025.100000
1684.290614	1999.500000
1686.147307	2013.400000
1688.000023	1977.200000
1689.855911	1972.900000
1691.707825	1985.600000
1693.559338	1961.000000
1695.410450	1980.900000
1697.261162	1994.300000
1699.111473	2002.300000
1700.959599	2018.000000
1702.809110	1969.800000
1704.652872	1965.500000
1706.501583	1989.900000
1708.344548	1991.000000
1710.190680	1962.100000
1712.032849	1962.200000
1713.878184	1991.000000
1715.717778	1982.300000
1717.558756	1950.900000
1719.401117	1983.000000
1721.239522	1953.300000
1723.079310	1966.300000
1724.916923	1941.700000
1726.754140	1939.000000
1728.589184	1963.500000
1730.425611	1931.800000
1732.259866	1984.400000
1734.093726	1937.200000
1735.927192	1949.400000
1737.756713	1979.900000
1739.589392	1942.700000
1741.418127	1965.900000
1743.250019	1941.300000
1745.077969	1985.800000
1746.905528	1931.700000
1748.732694	1966.800000
1750.559469	1936.400000
1752.385852	1941.500000
1754.208299	1922.000000
1756.033901	1915.800000
1757.855568	1973.500000
1759.678617	1948.200000
1761.499504	1953.800000
1763.320003	1952.600000
1765.141882	1939.100000
1766.958063	1930.500000
1768.777395	1927.200000
1770.592800	1937.700000
1772.411355	1921.800000
1774.225985	1950.900000
1776.040228	1931.200000
1777.854085	1927.100000
1779.667555	1929.700000
1781.478872	1958.500000
1783.291569	1922.800000
1785.103881	1952.500000
1786.912275	1936.200000
1788.722049	1919.500000
1790.527909	1899.600000
1792.336914	1923.400000
1794.142006	1905.800000
1795.948479	1961.200000
1797.754568	1927.600000
1799.556746	1903.200000
1801.362069	1934.400000
1803.163483	1905.100000
1804.966277	1935.500000
1806.765165	1890.500000
1808.565434	1915.600000
1810.365321	1912.000000
1812.163066	1904.500000
1813.960431	1903.300000
1815.757416	1892.700000
1817.554020	1902.900000
1819.348485	1878.600000
1821.144329	1867.300000
1822.934518	1882.500000
1824.729604	1919.800000
1826.519038	1870.900000
1828.311608	1890.500000
1830.102043	1899.300000
1831.890344	1862.600000
1833.681780	1910.500000
1835.467570	1859.600000
1837.254740	1884.400000
1839.039778	1854.000000
1840.827950	1889.000000
1842.612236	1879.100000
1844.394392	1875.100000
1846.177928	1913.700000
1847.959335	1872.700000
1849.742121	1875.100000
1851.521026	1878.600000
1853.301311	1859.300000
1855.079469	1885.700000
1856.859006	1858.000000
1858.636418	1879.300000
1860.411706	1886.400000
1862.188372	1859.800000
1863.962916	1842.600000
1865.738838	1842.400000
1867.509139	1875.600000
1869.282568	1844.900000
1871.053877	1851.700000
1872.824815	1854.000000
1874.597131	1861.700000
1876.363833	1881.000000
1878.133661	1864.500000
1879.899625	1884.400000
1881.668712	1875.100000
1883.433938	1859.900000
1885.198796	1874.900000
1886.965031	1870.000000
1888.727407	1854.200000
1890.489416	1854.500000
1892.251057	1817.800000
1894.012332	1842.800000
1895.773239	1861.000000
1897.533780	1829.200000
1899.292211	1842.100000
1901.050276	1827.600000
1902.806234	1845.300000
1904.563568	1848.200000
1906.320537	1837.200000
1908.075399	1855.300000
1909.828157	1820.500000
1911.580550	1842.800000
1913.334320	1810.600000
1915.085986	1813.900000
1916.835550	1831.500000
1918.586489	1811.300000
1920.337066	1843.100000
1922.083803	1813.600000
1923.831917	1815.900000
1925.577931	1827.300000
1927.325320	1798.700000
1929.070612	1783.600000
1930.813806	1826.400000
1932.558375	1798.200000
1934.300849	1817.300000
1936.042962	1807.400000
1937.784715	1806.900000
1939.526108	1800.200000
1941.265408	1809.700000
1943.004349	1815.900000
1944.742931	1824.000000
1946.479422	1803.600000
1948.215555	1801.600000
1949.953062	1799.600000
1951.686747	1827.500000
1953.421807	1830.000000
1955.154778	1838.300000
1956.887393	1808.500000
1958.619652	1757.400000
1960.351554	1806.700000
1962.081370	1804.200000
1963.809101	1831.200000
1965.538207	1853.900000
1967.266958	1801.500000
1968.993625	1820.900000
1970.719938	1828.500000
1972.447624	1827.300000
1974.169774	1823.200000
1975.895025	1814.900000
1977.616469	1833.500000
1979.341014	1839.900000
1981.063478	1802.600000
1982.782140	1798.000000
1984.503900	1825.700000
1986.221858	1822.400000
1987.941189	1815.200000
1989.656721	1830.900000
1991.377073	1820.900000
1993.093627	1821.500000
1994.806384	1818.200000
1996.522237	1819.000000
1998.236018	1825.200000
1999.949449	1838.500000
2001.660809	1806.400000
2003.373541	1834.800000
2005.082483	1813.100000
2006.794517	1836.500000
2008.501043	1814.400000
2010.210660	1817.600000
2011.918211	1842.900000
2013.625413	1835.000000
2015.330550	1822.600000
2017.035341	1802.900000
2018.741503	1790.500000
2020.443883	1839.300000
2022.147634	1853.800000
2023.849323	1813.800000
2025.550667	1764.200000
2027.251665	1805.200000
2028.950602	1798.300000
2030.650911	1799.100000
2032.347445	1817.100000
2034.045350	1816.300000
2035.741196	1811.700000
2037.440128	1847.700000
2039.133574	1807.000000
2040.828391	1792.000000
2042.522866	1818.400000
2044.213572	1837.500000
2045.907362	1806.800000
2047.597385	1827.500000
2049.288779	1767.800000
2050.978120	1800.600000
2052.668831	1799.200000
2054.355779	1812.400000
2056.042388	1786.500000
2057.730366	1782.100000
2059.414585	1779.700000
2061.100175	1792.300000
2062.785425	1767.300000
2064.468626	1742.200000
2066.153198	1775.900000
2067.832307	1743.300000
2069.516201	1770.100000
2071.194634	1779.000000
2072.876145	1786.400000
2074.553904	1780.000000
2076.231327	1745.500000
2077.910119	1757.900000
2079.586869	1761.300000
2081.261577	1777.100000
2082.937654	1750.800000
2084.611691	1751.900000
2086.285392	1757.300000
2087.958758	1745.000000
2089.630085	1755.300000
2091.301078	1744.800000
2092.971737	1745.900000
2094.642062	1745.700000
2096.312053	1766.500000
2097.980008	1742.800000
2099.647630	1761.400000
2101.313217	1756.100000
2102.980173	1747.600000
2104.645096	1740.200000
2106.309687	1781.700000
2107.972246	1787.300000
2109.636173	1783.900000
2111.298069	1765.900000
2112.959635	1769.900000
2114.620869	1780.100000
2116.280075	1749.300000
2117.938950	1808.600000
2119.597496	1800.700000
2121.255711	1790.200000
2122.910204	1729.200000
2124.567761	1750.600000
2126.224989	1772.000000
2127.878495	1773.700000
2129.533369	1765.300000
2131.184524	1777.400000
2132.838742	1746.500000
2134.489243	1769.500000
2136.141110	1785.500000
2137.787569	1768.200000
2139.438783	1775.800000
2141.086283	1790.000000
2142.735150	1749.000000
2144.381998	1743.500000
2146.028521	1724.700000
2147.674718	1757.000000
2149.317207	1752.200000
2150.962754	1759.600000
2152.604594	1733.800000
2154.249491	1761.500000
2155.890682	1771.600000
2157.531551	1743.100000
2159.172095	1747.800000
2160.810627	1745.700000
2162.450525	1714.800000
2164.086723	1723.900000
2165.724287	1730.900000
2167.361529	1722.200000
2168.996761	1709.800000
2170.631672	1716.600000
2172.266260	1701.100000
2173.900528	1750.300000
2175.531102	1741.100000
2177.164728	1695.700000
2178.794662	1707.600000
2180.425961	1706.500000
2182.055255	1710.300000
2183.684230	1723.600000
2185.312885	1715.900000
2186.941221	1717.900000
2188.567555	1687.000000
2190.193570	1704.700000
2191.817583	1714.000000
2193.442962	1723.500000
2195.066340	1679.300000
2196.691083	1701.500000
2198.312145	1684.900000
2199.932890	1707.700000
2201.555000	1649.800000
2203.175112	1695.800000
2204.793227	1654.700000
2206.411027	1692.100000
2208.028512	1667.100000
2209.645681	1712.300000
2211.262535	1678.300000
2212.879073	1678.600000
2214.493619	1691.300000
2216.106172	1683.600000
2217.720089	1682.800000
2219.332015	1687.000000
2220.945304	1686.600000
2222.556603	1664.800000
2224.165912	1673.200000
2225.776585	1642.400000
2227.385269	1653.500000
2228.993640	1652.700000
2230.600025	1679.200000
2232.207773	1669.300000
2233.813534	1661.400000
2235.418984	1681.000000
2237.022449	1678.100000
2238.627277	1646.100000
2240.230121	1664.200000
2241.830982	1689.700000
2243.433206	1652.900000
2245.033448	1661.200000
2246.635052	1671.600000
2248.233003	1663.700000
2249.832317	1681.200000
2251.429651	1679.900000
2253.026677	1661.600000
2254.625065	1651.700000
2256.219804	1651.800000
2257.812566	1666.200000
2259.406691	1662.400000
2261.002177	1646.400000
2262.594018	1637.300000
2264.185553	1652.700000
2265.778450	1655.600000
2267.366037	1666.600000
2268.958320	1659.900000
2270.545297	1658.200000
2272.135301	1629.200000
2273.720001	1638.700000
2275.309395	1676.600000
2276.893487	1621.800000
2278.478939	1628.600000
2280.062423	1626.600000
2281.648932	1630.700000
2283.231808	1624.600000
2284.814381	1624.200000
2286.396650	1642.500000
2287.975289	1643.700000
2289.556953	1629.100000
2291.134988	1613.300000
2292.716046	1619.000000
2294.293477	1615.500000
2295.868945	1612.000000
2297.447435	1599.900000
2299.022301	1628.500000
2300.596866	1614.200000
2302.171131	1580.900000
2303.745095	1613.800000
2305.318758	1614.600000
2306.892122	1619.800000
2308.461867	1630.600000
2310.031313	1586.400000
2311.603777	1625.400000
2313.170967	1646.100000
2314.741175	1601.600000
2316.307768	1599.500000
2317.875721	1606.200000
2319.441718	1606.200000
2321.007418	1627.600000
2322.572820	1605.900000
2324.136269	1640.100000
2325.701077	1649.800000
2327.262277	1646.100000
2328.826491	1642.200000
2330.385443	1694.100000
2331.947410	1652.300000
2333.507425	1651.400000
2335.067146	1651.000000
2336.624917	1639.600000
2338.182393	1632.900000
2339.739575	1632.800000
2341.294809	1624.500000
2342.849750	1614.400000
2344.404396	1623.400000
2345.958749	1642.200000
2347.512809	1623.700000
2349.066574	1659.400000
2350.618395	1620.100000
2352.168274	1597.300000
2353.721160	1594.200000
2355.268803	1652.500000
2356.819455	1623.500000
2358.366515	1620.300000
2359.914933	1594.800000
2361.463060	1648.600000
2363.007598	1623.700000
2364.553494	1641.700000
2366.097452	1622.200000
2367.642767	1637.000000
2369.184497	1621.300000
2370.727584	1626.500000
2372.268735	1614.100000
2373.809597	1610.600000
2375.350170	1633.500000
2376.890454	1647.700000
2378.430449	1629.200000
2379.966866	1648.700000
2381.506284	1620.700000
2383.042124	1620.600000
2384.579322	1631.100000
2386.112944	1650.400000
2387.649566	1622.400000
2389.184258	1606.600000
2390.717020	1603.000000
2392.249495	1623.500000
2393.780042	1635.300000
2395.313587	1654.700000
2396.841921	1620.600000
2398.371612	1640.300000
2399.901016	1643.800000
2401.430136	1639.900000
2402.958971	1643.200000
2404.482600	1621.500000
2406.010865	1620.500000
2407.533928	1638.500000
2409.061624	1635.400000
2410.582481	1590.600000
2412.107971	1620.400000
2413.629900	1645.400000
2415.153185	1651.200000
2416.674548	1630.000000
2418.193992	1632.600000
2419.714791	1635.100000
2421.233672	1607.600000
2422.752270	1614.900000
2424.268951	1597.800000
2425.786986	1646.500000
2427.304740	1581.900000
2428.818943	1644.500000
2430.332865	1632.500000
2431.846507	1621.600000
2433.361504	1610.900000
2434.872952	1626.700000
2436.385755	1626.500000
2437.896644	1617.100000
2439.407255	1634.000000
2440.915954	1601.100000
2442.427639	1592.900000
2443.935781	1592.900000
2445.443645	1592.100000
2446.951231	1615.000000
2448.455276	1594.800000
2449.962306	1588.400000
2451.467428	1567.000000
2452.972273	1600.100000
2454.475211	1542.600000
2455.977873	1594.300000
2457.480258	1573.900000
2458.980738	1570.900000
2460.482571	1568.600000
2461.982499	1556.700000
2463.482152	1555.000000
2464.981530	1568.300000
2466.479005	1560.000000
2467.974578	1542.000000
2469.473131	1529.100000
2470.968156	1530.600000
2472.464533	1544.100000
2473.957384	1555.000000
2475.451588	1539.000000
2476.945518	1527.100000
2478.435924	1524.000000
2479.929308	1551.900000
2481.420794	1536.700000
2482.910383	1530.500000
2484.399700	1515.400000
2485.887121	1540.900000
2487.377518	1505.600000
2488.864397	1565.900000
2490.352627	1521.200000
2491.837340	1539.900000
2493.321784	1532.900000
2494.807578	1542.400000
2496.291481	1520.700000
2497.776734	1534.500000
2499.256854	1519.900000
2500.739947	1547.000000
2502.221149	1545.200000
2503.702082	1557.600000
2505.181126	1528.700000
2506.659901	1517.500000
2508.138408	1522.800000
2509.616647	1523.600000
2511.094617	1539.800000
2512.569082	1561.100000
2514.046517	1552.800000
2515.520448	1534.500000
2516.995729	1547.700000
2518.470743	1539.000000
2519.942256	1526.100000
2521.415120	1542.300000
2522.886101	1520.100000
2524.358432	1538.500000
2525.825649	1552.600000
2527.295833	1569.600000
2528.764136	1504.400000
2530.232174	1554.000000
2531.699947	1522.900000
2533.167455	1510.900000
2534.634698	1549.700000
2536.098449	1556.900000
2537.563550	1533.100000
2539.026774	1526.700000
2540.491347	1558.600000
2541.952432	1546.300000
2543.414866	1565.100000
2544.877037	1568.300000
2546.335722	1552.000000
2547.798978	1562.300000
2549.257139	1570.400000
2550.716648	1536.000000
2552.171063	1556.400000
2553.630049	1526.000000
2555.087163	1520.900000
2556.542406	1552.600000
2557.997387	1551.700000
2559.450500	1517.700000
2560.904961	1532.900000
2562.357552	1507.000000
2563.809884	1528.900000
2565.260349	1530.100000
2566.713769	1534.500000
2568.162107	1539.400000
2569.613400	1503.000000
2571.062828	1537.800000
2572.508783	1520.500000
2573.957693	1514.600000
2575.403133	1521.400000
2576.849920	1530.900000
2578.294845	1502.700000
2579.739511	1515.200000
2581.185525	1505.700000
2582.628073	1513.400000
2584.071968	1498.700000
2585.512398	1536.000000
2586.954175	1474.300000
2588.394093	1479.000000
2589.835358	1506.100000
2591.273161	1505.000000
2592.713914	1509.100000
2594.149605	1510.900000
2595.588245	1511.400000
2597.025027	1495.400000
2598.459954	1545.500000
2599.897828	1482.300000
2601.330645	1495.500000
2602.764809	1487.100000
2604.197119	1499.900000
2605.630775	1509.800000
2607.062578	1491.800000
2608.494127	1480.600000
2609.925424	1456.900000
2611.354868	1512.000000
2612.784060	1494.000000
2614.211402	1498.500000
2615.640089	1476.700000
2617.068525	1475.100000
2618.493513	1464.900000
2619.919848	1458.300000
2621.344334	1442.500000
2622.770166	1489.300000
2624.192554	1493.900000
2625.616288	1457.200000
2627.038175	1497.200000
2628.459813	1461.900000
2629.879605	1456.400000
2631.300743	1462.900000
2632.721631	1471.300000
2634.139081	1464.800000
2635.559470	1473.600000
2636.976422	1489.100000
2638.393125	1460.100000
2639.809580	1453.700000
2641.225787	1491.700000
2642.641746	1445.600000
2644.055864	1476.800000
2645.469734	1502.000000
2646.881766	1466.300000
2648.295141	1461.900000
2649.705087	1465.800000
2651.117969	1464.800000
2652.527422	1456.400000
2653.936629	1484.600000
2655.344000	1462.800000
2656.754305	1475.700000
2658.162775	1473.300000
2659.569409	1495.400000
2660.975798	1466.800000
2662.380353	1471.100000
2663.786252	1460.800000
2665.190318	1459.400000
2666.594139	1463.700000
2667.997716	1491.800000
2669.399462	1479.700000
2670.802551	1435.300000
2672.202222	1461.800000
2673.603237	1477.700000
2675.000836	1498.900000
2676.401365	1497.500000
2677.798478	1475.300000
2679.196935	1467.700000
2680.593565	1473.600000
2681.989952	1457.700000
2683.386097	1458.500000
2684.780416	1454.200000
2686.176078	1444.000000
2687.568331	1458.300000
2688.961926	1443.900000
2690.353697	1468.400000
2691.746811	1424.100000
2693.138101	1439.800000
2694.527568	1478.600000
2695.916795	1442.600000
2697.305783	1440.400000
2698.696112	1435.200000
2700.081458	1423.500000
2701.469727	1420.200000
2702.856176	1426.800000
2704.242386	1462.000000
2705.628357	1439.000000
2707.010930	1444.300000
2708.394845	1410.000000
2709.778522	1445.600000
2711.161960	1422.500000
2712.542004	1428.400000
2713.923388	1422.000000
2715.302958	1426.000000
2716.683868	1440.500000
2718.062964	1434.600000
2719.440246	1421.300000
2720.818869	1437.800000
2722.195679	1436.400000
2723.572252	1443.700000
2724.948590	1460.400000
2726.323117	1436.100000
2727.698984	1433.800000
2729.071464	1458.400000
2730.446860	1423.100000
2731.817296	1437.000000
2733.189073	1443.600000
2734.560615	1423.100000
2735.930349	1411.800000
2737.301424	1422.900000
2738.670690	1427.000000
2740.039723	1410.800000
2741.406950	1410.200000
2742.773943	1421.600000
2744.140704	1409.000000
2745.507233	1395.900000
2746.871956	1415.100000
2748.236447	1403.800000
2749.600707	1405.500000
2750.964734	1439.100000
2752.328530	1427.400000
2753.688952	1407.600000
2755.052284	1426.600000
2756.410674	1418.100000
2757.771974	1399.900000
2759.129904	1409.800000
2760.490742	1398.000000
2761.849781	1404.200000
2763.205451	1401.600000
2764.564029	1393.000000
2765.919240	1407.800000
2767.274222	1394.500000
2768.627408	1382.300000
2769.983500	1394.600000
2771.336227	1380.300000
2772.688727	1387.400000
2774.040998	1395.800000
2775.394607	1368.700000
2776.744856	1401.700000
2778.093310	1388.200000
2779.444670	1384.800000
2780.792670	1360.200000
2782.142008	1390.800000
2783.489554	1382.700000
2784.836874	1359.300000
2786.183967	1366.900000
2787.529269	1344.900000
2788.874344	1381.800000
2790.219194	1379.500000
2791.563818	1382.900000
2792.905090	1361.600000
2794.247700	1386.800000
2795.590084	1363.600000
2796.932243	1361.500000
2798.271053	1389.100000
2799.612763	1392.400000
2800.951125	1338.400000
2802.290823	1349.700000
2803.628737	1368.200000
2804.964866	1362.400000
2806.300771	1360.300000
2807.638014	1371.400000
2808.973473	1354.500000
2810.308709	1356.700000
2811.642162	1369.000000
2812.976952	1375.900000
2814.308402	1377.300000
2815.642747	1396.700000
2816.972194	1333.800000
2818.302978	1366.100000
2819.633540	1343.200000
2820.962323	1349.200000
2822.292442	1354.000000
2823.620783	1376.100000
2824.948903	1374.100000
2826.275245	1354.900000
2827.602924	1366.300000
2828.927269	1314.600000
2830.252951	1343.900000
2831.576857	1360.800000
2832.900544	1356.000000
2834.225566	1338.400000
2835.547258	1321.600000
2836.868732	1345.400000
2838.189987	1338.100000
2839.511023	1355.200000
2840.830286	1364.800000
2842.150885	1349.600000
2843.469713	1344.800000
2844.788322	1348.300000
2846.105160	1312.300000
2847.421781	1367.000000
2848.738185	1327.700000
2850.052819	1356.200000
2851.368789	1328.700000
2852.681438	1325.300000
2853.995422	1326.700000
2855.309190	1347.100000
2856.622741	1367.200000
2857.934526	1324.700000
2859.244544	1341.800000
2860.555897	1324.500000
2861.863935	1311.800000
2863.173307	1346.300000
2864.482465	1373.600000
2865.791407	1342.000000
2867.098585	1352.300000
2868.404001	1349.200000
2869.710750	1337.600000
2871.015738	1382.500000
2872.320512	1371.200000
2873.623524	1362.900000
2874.929417	1349.500000
2876.230456	1346.000000
2877.532829	1349.800000
2878.833442	1366.700000
2880.135389	1337.300000
2881.437122	1304.600000
2882.735552	1379.500000
2884.035315	1347.400000
2885.333321	1315.300000
2886.631115	1353.600000
2887.927153	1335.900000
2889.224524	1345.100000
2890.520139	1355.500000
2891.815543	1366.700000
2893.110736	1324.500000
2894.402632	1335.400000
2895.697404	1362.200000
2896.988879	1362.600000
2898.281687	1357.000000
2899.574285	1342.400000
2900.863589	1323.000000
2902.154225	1317.900000
2903.443110	1323.000000
2904.733327	1332.400000
2906.020253	1327.500000
2907.308511	1293.600000
2908.595020	1339.300000
2909.881320	1309.200000
2911.167413	1351.600000
2912.451757	1333.900000
2913.738972	1293.700000
2915.021361	1330.300000
2916.305082	1324.700000
2917.587057	1356.400000
2918.868824	1313.900000
2920.148847	1343.600000
2921.431739	1319.200000
2922.712886	1324.900000
2923.990751	1305.900000
2925.271485	1322.900000
2926.548938	1297.000000
2927.826185	1288.000000
2929.101690	1319.600000
2930.380063	1333.700000
2931.653622	1300.400000
2932.930048	1322.200000
2934.204733	1307.600000
2935.477677	1303.800000
2936.751953	1298.100000
2938.024489	1330.100000
2939.296820	1308.600000
2940.565879	1358.800000
2941.837803	1283.900000
2943.107989	1294.500000
2944.377971	1288.400000
2945.647750	1292.900000
2946.915793	1271.000000
2948.182099	1322.300000
2949.448204	1311.800000
2950.715638	1290.600000
2951.981338	1298.500000
2953.246835	1285.300000
2954.512130	1296.100000
2955.774160	1297.900000
2957.037520	1296.700000
2958.300679	1307.700000
2959.562106	1296.600000
2960.824862	1296.800000
2962.085886	1309.700000
2963.345180	1302.800000
2964.604274	1300.100000
2965.863167	1287.900000
2967.121860	1299.200000
2968.380353	1330.700000
2969.637117	1267.200000
2970.893681	1288.500000
2972.148518	1305.800000
2973.404683	1292.800000
2974.657594	1278.300000
2975.911834	1317.300000
2977.165875	1271.300000
2978.418190	1316.800000
2979.670306	1282.400000
2980.920698	1305.700000
2982.173945	1267.300000
2983.422415	1298.400000
2984.673740	1255.600000
2985.921815	1317.200000
2987.169694	1261.100000
2988.417375	1269.900000
2989.664859	1301.200000
2990.910622	1313.400000
2992.156189	1266.500000
2993.403083	1288.000000
2994.646733	1281.000000
2995.891711	1295.600000
2997.133445	1291.900000
2998.378031	1268.900000
2999.620898	1302.100000
3000.860524	1290.600000
3002.103000	1268.800000
3003.342236	1256.900000
3004.582800	1291.100000
3005.821648	1294.700000
3007.060300	1268.100000
3008.297237	1282.800000
3009.535502	1276.100000
3010.772051	1271.600000
3012.008407	1264.500000
3013.244569	1273.700000
3014.479017	1265.100000
3015.713273	1272.300000
3016.947335	1272.400000
3018.179685	1240.900000
3019.410323	1290.600000
3020.643807	1256.800000
3021.875579	1264.800000
3023.105641	1275.700000
3024.335510	1275.300000
3025.563671	1285.500000
3026.793157	1275.700000
3028.020934	1259.900000
3029.248520	1276.100000
3030.477433	1264.200000
3031.701603	1236.500000
3032.928616	1277.100000
3034.152405	1269.600000
3035.377521	1241.900000
3036.600930	1260.600000
3037.824149	1282.500000
3039.045663	1259.300000
3040.270018	1246.800000
3041.489638	1240.300000
3042.710584	1266.600000
3043.931341	1241.900000
3045.150394	1269.800000
3046.370772	1242.100000
3047.587934	1278.600000
3048.806422	1267.900000
3050.023207	1261.700000
3051.239805	1248.100000
3052.456214	1273.100000
3053.669411	1245.600000
3054.885445	1284.400000
3056.098267	1257.800000
3057.313926	1262.100000
3058.524862	1261.000000
3059.737123	1248.400000
3060.949198	1242.800000
3062.161085	1232.800000
3063.371276	1280.500000
3064.581280	1247.500000
3065.791098	1237.400000
3066.999220	1240.800000
3068.207157	1233.000000
3069.413398	1249.500000
3070.620964	1264.300000
3071.826835	1260.000000
3073.032522	1255.700000
3074.238023	1225.300000
3075.441831	1237.500000
3076.646963	1233.800000
3077.850402	1257.700000
3079.052150	1238.400000
3080.253713	1240.300000
3081.455093	1265.500000
3082.656289	1228.700000
3083.855795	1278.500000
3085.055118	1250.800000
3086.255764	1240.800000
3087.454720	1252.100000
3088.650482	1255.400000
3089.849073	1217.900000
3091.044470	1262.100000
3092.241190	1233.800000
3093.434718	1250.100000
3094.631074	1224.500000
3095.825744	1239.300000
3097.017223	1269.500000
3098.213033	1246.300000
3099.404149	1228.600000
3100.596589	1260.800000
3101.785841	1244.200000
3102.977918	1269.300000
3104.168312	1247.000000
3105.355520	1224.300000
3106.544051	1248.900000
3107.733903	1233.400000
3108.920572	1219.900000
3110.107060	1234.800000
3111.293370	1222.900000
3112.481001	1235.100000
3113.665450	1212.000000
3114.848220	1220.800000
3116.033812	1216.700000
3117.217725	1233.600000
3118.399959	1215.600000
3119.582014	1217.200000
3120.763891	1223.800000
3121.945590	1233.100000
3123.125612	1193.800000
3124.303957	1235.200000
3125.485122	1239.900000
3126.663112	1244.100000
3127.840926	1253.700000
3129.018562	1224.900000
3130.194523	1249.000000
3131.370307	1224.700000
3132.547413	1204.200000
3133.722844	1220.800000
3134.896602	1219.000000
3136.068687	1223.900000
3137.242094	1233.100000
3138.415324	1210.400000
3139.586883	1187.000000
3140.759762	1223.300000
3141.929474	1216.400000
3143.100507	1245.600000
3144.269870	1222.400000
3145.437562	1251.900000
3146.608070	1223.800000
3147.773920	1207.500000
3148.944078	1240.400000
3150.109580	1203.800000
3151.274907	1220.400000
3152.440061	1195.700000
3153.605042	1208.100000
3154.771342	1233.200000
3155.932990	1205.500000
3157.095957	1178.000000
3158.258752	1186.100000
3159.421374	1191.200000
3160.582331	1196.500000
3161.743115	1185.500000
3162.903727	1160.300000
3164.062675	1170.000000
3165.221452	1176.100000
3166.380057	1179.400000
3167.538489	1185.200000
3168.696751	1200.800000
3169.853350	1160.500000
3171.008288	1160.700000
3172.164545	1146.000000
3173.319141	1190.300000
3174.473567	1168.900000
3175.626333	1193.800000
3176.778928	1170.700000
3177.931354	1163.500000
3179.083610	1178.700000
3180.235695	1182.400000
3181.384635	1181.000000
3182.536381	1198.700000
3183.686469	1172.500000
3184.834901	1204.100000
3185.983163	1188.500000
3187.131257	1180.400000
3188.279182	1187.500000
3189.425451	1195.100000
3190.571552	1176.000000
3191.715999	1220.500000
3192.860278	1177.000000
3194.004389	1217.900000
3195.149817	1180.500000
3196.292107	1202.500000
3197.434230	1186.800000
3198.576185	1197.600000
3199.717973	1168.000000
3200.859594	1183.200000
3201.998080	1206.000000
3203.137883	1218.800000
3204.279004	1186.500000
3205.416990	1186.500000
3206.553327	1178.700000
3207.689498	1183.000000
3208.826986	1198.900000
3209.962826	1176.100000
3211.099983	1196.800000
3212.232527	1181.300000
3213.369353	1207.000000
3214.501567	1189.200000
3215.635098	1178.200000
3216.768465	1186.000000
3217.898704	1169.100000
3219.031741	1191.900000
3220.161652	1144.200000
3221.292879	1157.300000
3222.420982	1146.300000
3223.551881	1175.700000
3224.681136	1136.900000
3225.808748	1165.200000
3226.933237	1140.000000
3228.062002	1164.600000
3229.187645	1159.700000
3230.313126	1129.500000
3231.436965	1159.500000
3232.563598	1160.900000
3233.685634	1147.400000
3234.808986	1159.400000
3235.932176	1158.600000
3237.055203	1167.200000
3238.176592	1163.100000
3239.297818	1143.400000
3240.417407	1147.100000
3241.536834	1149.200000
3242.654623	1144.500000
3243.775204	1144.500000
3244.892672	1143.000000
3246.009979	1183.000000
3247.127126	1163.600000
3248.242637	1173.300000
3249.359462	1169.200000
3250.473178	1160.700000
3251.589683	1176.900000
3252.704554	1175.900000
3253.816316	1191.300000
3254.927918	1170.500000
3256.040836	1188.500000
3257.153594	1167.400000
3258.263246	1184.900000
3259.374213	1154.700000
3260.485021	1167.900000
3261.594197	1191.200000
3262.701743	1166.900000
3263.810602	1178.800000
3264.919304	1169.300000
3266.024903	1157.100000
3267.131816	1175.500000
3268.237100	1204.800000
3269.343698	1186.400000
3270.447196	1180.700000
3271.552009	1176.700000
3272.656664	1193.300000
3273.758220	1163.600000
3274.859620	1175.300000
3275.962334	1216.000000
3277.064892	1166.900000
3278.164353	1146.800000
3279.266598	1213.200000
3280.365747	1166.400000
3281.463272	1164.700000
3282.560641	1173.800000
3283.660792	1158.600000
3284.757851	1161.100000
3285.854754	1196.700000
3286.951502	1169.200000
3288.043692	1200.900000
3289.140130	1184.700000
3290.234946	1157.600000
3291.329608	1151.100000
3292.422648	1171.900000
3293.515533	1189.900000
3294.606799	1185.800000
3295.699376	1181.700000
3296.790334	1194.900000
3297.879672	1177.300000
3298.968857	1173.600000
3300.059355	1162.100000
3301.146768	1184.500000
3302.234028	1161.300000
3303.322601	1182.600000
3304.411022	1160.900000
3305.494895	1167.500000
3306.583010	1163.800000
3307.668043	1193.600000
3308.751461	1156.400000
3309.836191	1169.900000
3310.919305	1168.400000
3312.003732	1163.400000
3313.085080	1172.600000
3314.167740	1182.000000
3315.248786	1168.000000
3316.329681	1179.000000
3317.408962	1166.100000
3318.488093	1165.500000
3319.568536	1176.000000
3320.645904	1190.800000
3321.724584	1184.900000
3322.801652	1188.100000
3323.878571	1159.400000
3324.953878	1157.000000
3326.029036	1164.900000
3327.105505	1181.100000
3328.178904	1168.000000
3329.252154	1151.600000
3330.326714	1144.800000
3331.399666	1169.100000
3332.471009	1149.700000
3333.543663	1196.100000
3334.613251	1149.600000
3335.684149	1158.000000
3336.753440	1167.900000
3337.824042	1161.200000
3338.893037	1161.800000
3339.960426	1158.600000
3341.026210	1146.700000
3342.096220	1162.100000
3343.163167	1157.000000
3344.227052	1135.900000
3345.293705	1132.200000
3346.358753	1160.500000
3347.422198	1143.000000
3348.485497	1155.100000
3349.548649	1130.400000
3350.611655	1135.700000
3351.674515	1167.200000
3352.735773	1156.700000
3353.793974	1134.700000
3354.856395	1140.900000
3355.915761	1132.100000
3356.974981	1175.900000
3358.035511	1142.500000
3359.091531	1143.900000
3360.150315	1169.800000
3361.204592	1169.000000
3362.261633	1165.400000
3363.317075	1131.900000
3364.373827	1156.700000
3365.428980	1171.700000
3366.482536	1140.000000
3367.534496	1176.400000
3368.589217	1140.300000
3369.640889	1153.300000
3370.692418	1140.300000
3371.745255	1141.100000
3372.795045	1164.500000
3373.846144	1141.500000
3374.894197	1134.500000
3375.945009	1184.300000
3376.992777	1128.400000
3378.040402	1148.300000
3379.087884	1151.800000
3380.133774	1152.000000
3381.180972	1157.200000
3382.225128	1149.600000
3383.272042	1164.500000
3384.317364	1158.100000
3385.359645	1134.100000
3386.401786	1161.500000
3387.445234	1177.500000
3388.488541	1150.500000
3389.530259	1127.500000
3390.571835	1176.500000
3391.613270	1143.600000
3392.653117	1159.300000
3393.691375	1156.500000
3394.730941	1170.200000
3395.770367	1188.400000
3396.808205	1174.800000
3397.844456	1148.200000
3398.880568	1133.600000
3399.917987	1165.900000
3400.952373	1150.400000
3401.988066	1146.300000
3403.023620	1156.000000
3404.056143	1174.500000
3405.091419	1167.000000
3406.123664	1172.300000
3407.155771	1155.900000
3408.186294	1155.500000
3409.218124	1188.800000
3410.249816	1153.400000
3411.278480	1151.600000
3412.307007	1173.400000
3413.336840	1165.800000
3414.366536	1140.900000
3415.393206	1149.600000
3416.421183	1139.600000
3417.446135	1158.000000
3418.473837	1173.300000
3419.498516	1190.300000
3420.524501	1141.800000
3421.548906	1150.200000
3422.573175	1146.300000
3423.595865	1171.400000
3424.618419	1158.300000
3425.642279	1149.100000
3426.663119	1157.300000
3427.683823	1144.100000
3428.705834	1124.700000
3429.724826	1138.200000
3430.743682	1157.300000
3431.763845	1142.700000
3432.780991	1158.300000
