-117.018713	-2.250000
-114.349113	2.850000
-111.682448	-3.900000
-109.016535	4.500000
-106.353555	-2.450000
-103.689144	-1.800000
-101.027664	1.550000
-98.364755	0.950000
-95.706952	-11.350000
-93.047720	-12.850000
-90.389236	-3.350000
-87.733677	-9.600000
-85.076688	8.650000
-82.424798	-0.150000
-79.771478	16.900000
-77.121077	-2.800000
-74.469248	4.250000
-71.822509	9.750000
-69.174340	-5.100000
-66.526914	-15.150000
-63.882403	-3.600000
-61.236462	2.700000
-58.595603	-6.600000
-55.953315	6.400000
-53.313936	-4.500000
-50.673128	-12.350000
-48.033059	2.600000
-45.398064	5.700000
-42.761639	4.550000
-40.128117	8.400000
-37.493167	10.750000
-34.863283	-1.400000
-32.229805	13.500000
-29.601390	-2.650000
-26.973709	13.200000
-24.344599	1.800000
-21.720547	3.600000
-19.092904	17.750000
-16.470316	8.000000
-13.848458	31.950000
-11.227331	46.700000
-8.606935	102.300000
-5.989426	384.350000
-3.370489	1419.400000
-0.754438	4210.250000
1.860886	5186.300000
4.475481	3235.600000
7.087195	391.950000
9.700337	65.300000
12.308445	31.200000
14.920134	16.000000
17.526793	15.800000
20.134881	13.950000
22.742243	-2.850000
25.344581	-3.200000
27.950498	7.900000
30.551392	-5.300000
33.153714	8.700000
35.751018	12.650000
38.351899	7.250000
40.947764	4.600000
43.545057	-0.450000
46.141632	7.650000
48.733197	-1.900000
51.326190	3.600000
53.916322	-12.700000
56.507881	1.750000
59.096582	4.850000
61.686709	-2.700000
64.271837	-3.900000
66.858393	5.800000
69.444235	-12.000000
72.027222	10.850000
74.611637	-3.900000
77.188923	9.250000
79.769775	5.250000
82.347778	0.900000
84.925070	4.950000
87.503790	6.750000
90.077527	-0.300000
92.652691	10.250000
95.225012	-0.750000
97.796626	10.700000
100.365399	3.900000
102.935599	-16.100000
105.502960	26.700000
108.071748	17.350000
110.637699	-4.050000
113.200815	5.550000
115.767487	3.750000
118.324937	14.500000
120.888073	6.150000
123.446250	33.350000
126.007981	31.800000
128.564755	52.250000
131.122955	65.400000
133.676203	100.750000
136.228753	144.900000
138.784853	203.500000
141.336005	267.100000
143.886460	322.100000
146.436217	395.400000
148.983155	442.000000
151.529398	454.700000
154.077066	472.600000
156.624038	485.550000
159.166075	500.050000
161.707418	460.800000
164.248068	479.950000
166.790144	472.850000
169.329408	486.450000
171.865863	460.400000
174.401628	491.450000
176.938818	465.500000
179.475317	466.800000
182.009010	484.500000
184.539899	466.400000
187.070100	460.050000
189.601727	473.150000
192.130552	451.950000
194.656578	473.900000
197.181918	473.150000
199.708683	468.400000
202.232652	456.200000
204.755936	467.900000
207.278534	464.900000
209.798340	486.900000
212.317463	464.550000
214.835903	455.650000
217.355768	472.200000
219.868630	480.200000
222.385024	484.200000
224.900737	488.050000
227.411559	505.250000
229.923806	502.600000
232.433270	513.150000
234.942056	511.500000
237.450164	496.750000
239.959696	500.900000
242.464347	503.350000
244.968322	498.250000
247.473721	511.050000
249.974245	520.250000
252.478292	514.900000
254.975369	510.050000
257.475969	508.600000
259.973797	502.350000
262.470952	502.600000
264.967434	517.400000
267.459053	528.250000
269.954192	517.650000
272.446564	507.800000
274.938266	505.950000
277.427205	509.450000
279.917567	536.150000
282.405168	537.950000
284.890009	532.800000
287.378365	528.800000
289.859781	539.850000
292.344711	538.350000
294.824796	564.950000
297.308393	547.750000
299.787147	549.800000
302.267324	593.650000
304.744750	563.000000
307.221512	566.450000
309.697610	552.100000
312.170960	542.550000
314.643649	515.750000
317.115676	519.750000
319.587041	535.200000
322.055663	540.800000
324.523625	541.750000
326.993010	509.500000
329.457572	493.700000
331.925638	482.900000
334.388883	468.550000
336.851472	464.000000
339.313404	455.450000
341.774679	452.050000
344.233219	452.700000
346.693183	451.450000
349.150413	439.950000
351.606989	439.000000
354.062911	434.750000
356.516103	431.800000
358.970718	433.650000
361.420531	423.250000
363.873840	420.750000
366.322350	412.050000
368.770210	421.100000
371.219492	404.150000
373.663979	409.750000
376.109890	393.450000
378.555150	381.500000
380.997692	388.300000
383.439586	402.100000
385.880832	360.750000
388.319364	374.150000
390.759316	380.700000
393.196555	357.850000
395.631083	362.500000
398.069097	375.100000
400.502336	362.100000
402.936995	355.000000
405.366882	366.100000
407.800254	368.900000
410.228856	357.550000
412.656816	345.350000
415.086198	352.000000
417.510814	355.450000
419.936852	341.300000
422.362249	335.650000
424.787006	341.800000
427.207004	334.500000
429.628424	328.750000
432.047148	337.550000
434.467292	329.450000
436.884741	325.350000
439.303610	327.050000
441.719785	301.550000
444.131214	307.400000
446.546119	301.400000
448.958335	283.750000
451.369916	283.900000
453.780863	269.450000
456.189123	270.700000
458.596752	254.200000
461.003748	255.100000
463.410113	250.750000
465.813795	243.850000
468.216847	242.500000
470.619269	248.000000
473.021061	251.750000
475.420175	257.250000
477.820709	251.150000
480.220614	252.700000
482.615797	255.900000
485.014446	274.450000
487.408374	273.250000
489.801677	304.700000
492.194355	311.500000
494.586407	335.100000
496.979877	355.750000
499.368635	417.350000
501.754727	490.400000
504.142239	645.400000
506.529128	847.550000
508.913352	1199.750000
511.298996	1729.200000
513.681978	2564.850000
516.062299	3468.050000
518.444039	4295.950000
520.823120	4445.700000
523.203619	4054.650000
525.581462	3322.300000
527.956648	2717.050000
530.331218	2166.050000
532.707205	1864.550000
535.080540	1563.450000
537.455292	1392.600000
539.825358	1227.350000
542.194810	1113.700000
544.565679	1017.550000
546.931867	936.650000
549.299474	880.750000
551.664435	820.050000
554.028784	792.100000
556.392519	709.850000
558.757672	691.300000
561.118153	652.350000
563.480052	635.200000
565.839310	597.500000
568.195930	596.100000
570.555996	570.450000
572.909370	530.850000
575.266189	511.800000
577.620373	516.250000
579.973948	498.650000
582.326916	471.000000
584.677251	460.250000
587.029004	439.400000
589.374080	453.850000
591.724619	422.800000
594.068486	425.850000
596.417814	419.250000
598.762493	419.800000
601.104548	407.850000
603.448020	399.000000
605.788869	396.550000
608.129115	385.600000
610.466741	403.450000
612.807802	446.950000
615.144226	461.150000
617.482066	487.500000
619.817289	479.550000
622.149895	461.450000
624.483919	443.250000
626.815328	432.300000
629.146139	424.700000
631.476352	420.300000
633.805968	391.800000
636.130960	408.000000
638.461394	399.050000
640.787207	406.850000
643.110412	388.850000
645.435034	390.150000
647.757050	366.800000
650.078472	363.800000
652.397291	365.000000
654.717527	352.650000
657.037169	353.550000
659.354210	356.050000
661.670659	365.850000
663.984510	352.600000
666.299777	349.450000
668.612447	348.650000
670.926532	327.000000
673.236017	339.100000
675.546918	340.850000
677.855226	332.650000
680.162946	332.950000
682.472080	329.250000
684.776622	314.600000
687.080578	328.400000
689.383948	316.350000
691.688732	326.850000
693.988929	308.950000
696.290542	317.600000
698.591569	289.850000
700.888015	289.250000
703.185876	284.650000
705.483153	280.450000
707.779847	270.250000
710.071965	286.050000
712.367494	265.900000
714.658449	286.150000
716.950819	271.400000
719.240614	275.400000
721.529828	262.600000
723.818463	293.950000
726.104525	259.900000
728.392002	271.850000
730.676907	267.150000
732.961235	269.200000
735.242994	252.950000
737.526167	253.450000
739.808763	252.300000
742.086803	253.650000
744.366257	257.150000
746.645136	251.050000
748.923440	269.600000
751.197193	250.700000
753.472361	249.450000
755.746955	254.800000
758.018990	257.500000
760.292438	268.200000
762.563328	254.350000
764.831662	256.400000
767.101409	254.350000
769.368601	264.500000
771.635224	251.450000
773.901276	268.350000
776.164777	268.400000
778.429691	267.250000
780.694035	253.100000
782.953850	272.000000
785.215077	257.400000
787.475737	252.100000
789.733851	251.600000
791.989420	250.800000
794.248379	257.800000
796.500840	264.150000
798.758668	258.350000
801.011977	258.950000
803.262746	259.500000
805.514927	270.900000
807.764569	260.500000
810.015623	260.350000
812.262167	268.050000
814.510122	260.200000
816.755543	258.550000
819.002375	258.750000
821.248646	249.550000
823.490412	266.100000
825.735562	254.600000
827.974239	261.800000
830.216298	240.050000
832.453859	251.100000
834.692832	236.050000
836.929278	240.400000
839.167135	232.600000
841.402467	228.200000
843.635276	239.700000
845.869495	245.250000
848.101193	239.950000
850.332336	240.550000
852.562924	225.150000
854.792958	240.850000
857.022438	228.050000
859.247436	229.350000
861.475808	242.850000
863.699702	240.900000
865.925007	237.800000
868.145836	233.900000
870.370037	216.350000
872.589765	239.250000
874.810903	219.450000
877.031491	238.950000
879.249570	227.850000
881.469058	234.900000
883.684080	228.450000
885.898554	217.850000
888.112481	217.400000
890.325861	217.050000
892.538693	216.400000
894.750978	232.350000
896.960762	206.150000
899.170000	217.750000
901.378693	223.600000
903.584886	217.500000
905.792489	220.500000
907.997595	225.800000
910.202157	221.600000
912.404224	223.250000
914.607700	229.850000
916.808682	229.550000
919.009122	229.350000
921.210971	245.650000
923.406429	245.350000
925.605245	250.200000
927.799624	260.300000
929.997360	304.450000
932.190660	343.800000
934.385369	376.800000
936.577591	403.300000
938.769276	458.800000
940.960423	475.550000
943.149087	507.250000
945.337215	530.300000
947.522861	513.650000
949.711861	505.150000
951.896437	498.350000
954.080478	508.350000
956.267869	517.000000
958.446956	523.900000
960.629394	537.350000
962.811298	536.950000
964.990727	527.750000
967.167684	541.100000
969.346049	563.300000
971.525821	550.500000
973.699244	565.250000
975.876013	558.350000
978.048375	559.800000
980.222145	538.600000
982.391511	543.000000
984.564221	521.150000
986.734466	497.300000
988.904181	447.850000
991.073368	414.550000
993.238158	372.500000
995.406290	346.500000
997.570026	319.600000
999.735170	304.850000
1001.897854	290.100000
1004.060013	273.650000
1006.219715	275.150000
1008.378892	262.200000
1010.539476	244.650000
1012.697605	256.550000
1014.855211	229.350000
1017.012293	251.250000
1019.168851	218.050000
1021.321030	235.350000
1023.474616	222.050000
1025.627680	214.600000
1027.778295	213.350000
1029.930316	204.450000
1032.077965	207.750000
1034.228945	203.100000
1036.375554	207.150000
1038.521644	191.000000
1040.667216	203.200000
1042.814193	190.850000
1044.954881	188.050000
1047.098898	197.450000
1049.240476	175.700000
1051.381536	201.450000
1053.524002	200.800000
1055.660187	200.500000
1057.799699	184.900000
1059.934855	195.500000
1062.073336	192.650000
1064.207464	193.500000
1066.341078	189.800000
1068.476096	182.900000
1070.606766	203.300000
1072.738840	184.950000
1074.868485	181.900000
1076.997617	176.400000
1079.126239	188.150000
1081.254349	185.950000
1083.380033	179.100000
1085.505207	190.350000
1087.631785	193.400000
1089.754025	194.000000
1091.877670	186.950000
1093.996980	184.050000
1096.121519	178.350000
1098.239814	189.200000
1100.359512	176.350000
1102.476793	183.800000
1104.593566	169.950000
1106.709833	182.800000
1108.823685	182.550000
1110.938940	179.900000
1113.049873	180.300000
1115.164118	176.750000
1117.274042	176.500000
1119.385370	170.150000
1121.496193	157.200000
1123.602700	181.300000
1125.712516	177.700000
1127.818019	176.550000
1129.924924	165.200000
1132.025614	160.400000
1134.131516	160.150000
1136.233109	159.300000
1138.336105	163.500000
1140.438600	166.050000
1142.534888	163.750000
1144.636383	166.250000
1146.733576	165.900000
1148.830271	162.650000
1150.926467	143.250000
1153.022165	162.550000
1155.117366	157.250000
1157.210170	161.750000
1159.304376	158.400000
1161.392391	167.700000
1163.485604	167.300000
1165.572630	160.750000
1167.662954	156.650000
1169.748990	162.000000
1171.838324	151.750000
1173.921477	161.850000
1176.006033	171.700000
1178.091990	165.600000
1180.173665	168.100000
1182.256741	163.100000
1184.337432	148.600000
1186.417632	174.000000
1188.497340	162.350000
1190.576557	180.650000
1192.653391	150.450000
1194.727845	147.800000
1196.805591	155.700000
1198.879066	155.550000
1200.953943	166.400000
1203.024552	166.900000
1205.096562	165.750000
1207.166196	167.050000
1209.237231	147.850000
1211.307779	170.250000
1213.374065	148.350000
1215.441752	149.200000
1217.507066	152.400000
1219.573781	159.700000
1221.636241	157.900000
1223.701985	156.350000
1225.763475	157.850000
1227.826366	152.700000
1229.886888	146.900000
1231.946928	161.000000
1234.006484	167.450000
1236.063676	155.750000
1238.120385	151.650000
1240.174732	166.050000
1242.232360	146.150000
1244.287624	152.900000
1246.338649	148.600000
1248.391073	164.700000
1250.443017	152.800000
1252.492603	147.950000
1254.541710	150.150000
1256.590338	156.400000
1258.638488	147.400000
1260.686160	157.850000
1262.729601	146.550000
1264.776318	152.850000
1266.820681	148.600000
1268.864568	160.050000
1270.906103	133.750000
1272.945289	138.800000
1274.987748	146.350000
1277.025984	148.550000
1279.065619	147.550000
1281.104778	150.350000
1283.139720	156.450000
1285.176060	155.800000
1287.210056	147.700000
1289.245449	143.050000
1291.276629	150.450000
1293.309208	142.350000
1295.341315	144.900000
1297.371081	137.050000
1299.402244	145.750000
1301.429200	140.700000
1303.457555	124.550000
1305.481704	137.500000
1307.509119	121.150000
1309.532331	135.350000
1311.556941	133.850000
1313.579216	141.900000
1315.602889	140.400000
1317.624229	148.800000
1319.645102	131.100000
1321.665507	136.100000
1323.681719	137.950000
1325.699328	124.300000
1327.714609	129.100000
1329.733149	130.650000
1331.747499	141.150000
1333.759524	141.400000
1335.774807	145.250000
1337.785904	153.350000
1339.798397	147.750000
1341.806708	165.500000
1343.818275	143.900000
1345.823803	153.000000
1347.832586	148.700000
1349.837191	144.850000
1351.845050	149.450000
1353.852447	150.800000
1355.853813	129.550000
1357.856575	129.850000
1359.858878	141.550000
1361.860721	133.750000
1363.862104	133.100000
1365.861173	139.400000
1367.859785	131.550000
1369.857937	132.800000
1371.855632	147.100000
1373.849164	134.400000
1375.844091	131.850000
1377.838562	127.200000
1379.832576	133.900000
1381.824283	125.500000
1383.815534	126.750000
1385.804480	136.750000
1387.794821	139.950000
1389.784708	114.350000
1391.772290	120.400000
1393.759419	138.450000
1395.744246	132.650000
1397.730468	129.100000
1399.714389	123.000000
1401.697858	124.100000
1403.680875	129.050000
1405.661594	130.000000
1407.643707	129.950000
1409.623523	124.050000
1411.602889	117.800000
1413.578116	124.800000
1415.556581	125.100000
1417.532753	121.250000
1419.508475	122.850000
1421.483749	116.900000
1423.456731	112.000000
1425.429265	126.150000
1427.401351	125.650000
1429.372990	119.750000
1431.340500	123.150000
1433.313084	113.400000
1435.277862	117.950000
1437.247713	127.400000
1439.213439	124.100000
1441.180559	124.600000
1443.145395	116.950000
1445.106111	121.150000
1447.071895	112.650000
1449.031724	135.500000
1450.992947	116.150000
1452.955561	120.600000
1454.914061	128.200000
1456.872119	133.550000
1458.829735	124.350000
1460.786908	124.850000
1462.741806	112.950000
1464.698097	126.600000
1466.652113	121.450000
1468.605688	114.600000
1470.556991	117.650000
1472.509686	114.350000
1474.460110	117.000000
1476.410095	120.150000
1478.359641	124.800000
1480.306918	114.250000
1482.251927	122.500000
1484.198329	131.050000
1486.144293	125.150000
1488.089820	120.850000
1490.033081	111.550000
1491.975906	127.450000
1493.916468	121.700000
1495.858422	124.250000
1497.798113	125.500000
1499.737369	110.000000
1501.676191	122.650000
1503.612753	103.050000
1505.550706	111.200000
1507.486400	113.550000
1509.421661	111.900000
1511.354665	117.350000
1513.287237	113.150000
1515.219377	133.000000
1517.151085	110.200000
1519.080540	109.100000
1521.011385	117.850000
1522.941798	106.250000
1524.868139	107.150000
1526.795870	115.150000
1528.721352	112.400000
1530.646404	116.550000
1532.571027	111.700000
1534.495220	112.800000
1536.417167	121.350000
1538.340504	113.600000
1540.261594	123.450000
1542.180440	128.900000
1544.100676	123.500000
1546.018668	118.850000
1547.936234	122.500000
1549.851559	129.600000
1551.768273	112.950000
1553.680932	133.450000
1555.596794	133.000000
1557.510418	132.700000
1559.421803	135.250000
1561.334578	133.950000
1563.243303	144.850000
1565.153417	135.950000
1567.063108	147.150000
1568.972376	174.800000
1570.879409	157.550000
1572.784210	203.000000
1574.690400	196.950000
1576.594359	235.300000
1578.497896	260.900000
1580.401013	306.800000
1582.301900	336.950000
1584.204176	382.250000
1586.104223	422.400000
1588.005659	434.500000
1589.903061	428.500000
1591.800044	404.300000
1593.696609	328.000000
1595.594561	280.550000
1597.486679	225.100000
1599.381991	198.950000
1601.276885	167.200000
1603.169557	156.350000
1605.061812	152.450000
1606.951848	156.100000
1608.841468	133.200000
1610.730673	116.550000
1612.619462	124.100000
1614.506035	130.950000
1616.393995	126.550000
1618.277938	124.750000
1620.163268	118.900000
1622.048185	117.250000
1623.930888	113.250000
1625.814978	115.250000
1627.695056	123.500000
1629.576522	119.150000
1631.455776	104.550000
1633.336418	104.700000
1635.211255	97.700000
1637.091073	86.650000
1638.966887	103.600000
1640.842290	98.850000
1642.719079	102.350000
1644.590071	103.250000
1646.464246	81.800000
1648.334421	106.900000
1650.207777	86.050000
1652.078930	104.200000
1653.947881	96.000000
1655.818218	92.350000
1657.684562	90.800000
1659.552291	93.350000
1661.417821	85.750000
1663.284737	89.900000
1665.147663	89.000000
1667.011976	100.350000
1668.874092	95.650000
1670.735803	96.400000
1672.598899	83.300000
1674.459801	95.400000
1676.318510	94.650000
1678.176815	82.300000
1680.036504	93.100000
1681.890427	87.150000
1683.747523	81.800000
1685.604215	93.350000
1687.456932	79.550000
1689.312820	91.150000
1691.164734	92.600000
1693.016247	86.200000
1694.867359	90.100000
1696.718070	96.400000
1698.568381	71.500000
1700.416508	97.650000
1702.266019	84.900000
1704.109780	96.000000
1705.958492	86.250000
1707.801457	100.500000
1709.647588	84.950000
1711.489758	89.100000
1713.335093	84.650000
1715.174687	93.150000
1717.015665	85.750000
1718.858026	90.400000
1720.696430	98.200000
1722.536218	90.700000
1724.373831	85.700000
1726.211049	94.150000
1728.046093	77.700000
1729.882520	88.250000
1731.716774	90.150000
1733.550635	81.050000
1735.384101	97.250000
1737.213621	83.800000
1739.046301	81.800000
1740.875035	92.750000
1742.706928	90.400000
1744.534878	85.200000
1746.362436	89.700000
1748.189603	87.200000
1750.016378	83.650000
1751.842761	86.950000
1753.665208	84.650000
1755.490810	76.000000
1757.312477	73.350000
1759.135525	83.350000
1760.956413	79.850000
1762.776912	90.750000
1764.598791	85.100000
1766.414971	84.450000
1768.234303	75.300000
1770.049708	83.950000
1771.868264	77.800000
1773.682894	78.550000
1775.497137	77.200000
1777.310994	83.150000
1779.124464	76.650000
1780.935780	90.300000
1782.748478	82.700000
1784.560790	73.800000
1786.369183	83.750000
1788.178958	90.900000
1789.984818	77.450000
1791.793823	93.950000
1793.598915	79.450000
1795.405388	81.650000
1797.211476	76.800000
1799.013655	89.700000
1800.818978	74.750000
1802.620391	83.700000
1804.423186	70.850000
1806.222074	88.600000
1808.022343	76.150000
1809.822230	78.050000
1811.619975	83.550000
1813.417340	83.150000
1815.214324	88.250000
1817.010929	86.850000
1818.805393	83.600000
1820.601238	86.500000
1822.391427	88.950000
1824.186513	72.150000
1825.975946	90.950000
1827.768517	73.500000
1829.558952	78.550000
1831.347252	86.100000
1833.138688	86.650000
1834.924479	81.000000
1836.711649	67.550000
1838.496687	77.050000
1840.284858	73.800000
1842.069145	83.400000
1843.851301	73.950000
1845.634837	84.050000
1847.416244	79.750000
1849.199029	79.400000
1850.977935	88.150000
1852.758219	87.200000
1854.536378	76.300000
1856.315914	73.300000
1858.093326	86.350000
1859.868615	72.450000
1861.645281	78.500000
1863.419825	84.750000
1865.195746	69.250000
1866.966048	86.650000
1868.739477	70.000000
1870.510786	82.550000
1872.281724	61.850000
1874.054040	77.650000
1875.820742	87.950000
1877.590569	78.800000
1879.356533	75.500000
1881.125621	86.750000
1882.890847	67.700000
1884.655705	71.550000
1886.421939	82.650000
1888.184316	82.250000
1889.946324	67.500000
1891.707966	88.150000
1893.469240	62.300000
1895.230148	71.050000
1896.990688	76.750000
1898.749120	62.150000
1900.507185	61.600000
1902.263143	81.200000
1904.020477	70.100000
1905.777446	75.350000
1907.532308	73.650000
1909.285066	69.900000
1911.037459	80.000000
1912.791229	79.850000
1914.542895	67.600000
1916.292458	78.850000
1918.043398	77.650000
1919.793974	66.500000
1921.540712	79.300000
1923.288825	67.050000
1925.034840	74.300000
1926.782229	71.850000
1928.527520	72.350000
1930.270715	75.400000
1932.015284	75.650000
1933.757757	72.950000
1935.499871	72.600000
1937.241624	74.850000
1938.983017	64.950000
1940.722317	69.850000
1942.461258	84.350000
1944.199840	79.050000
1945.936331	72.850000
1947.672463	70.800000
1949.409971	68.750000
1951.143656	76.500000
1952.878716	72.600000
1954.611687	67.550000
1956.344302	76.200000
1958.076560	70.000000
1959.808462	72.150000
1961.538279	78.700000
1963.266010	70.700000
1964.995116	83.550000
1966.723866	62.300000
1968.450533	84.400000
1970.176846	72.200000
1971.904533	81.600000
1973.626683	62.700000
1975.351934	68.100000
1977.073378	62.500000
1978.797922	70.750000
1980.520387	71.900000
1982.239048	66.500000
1983.960809	66.700000
1985.678767	64.850000
1987.398098	58.200000
1989.113630	71.650000
1990.833982	64.400000
1992.550536	60.800000
1994.263293	53.800000
1995.979146	76.200000
1997.692927	84.900000
1999.406358	63.400000
2001.117718	72.500000
2002.830450	76.400000
2004.539392	67.200000
2006.251426	59.100000
2007.957951	67.350000
2009.667569	75.700000
2011.375119	54.300000
2013.082322	83.400000
2014.787459	66.300000
2016.492250	69.450000
2018.198412	64.100000
2019.900791	68.600000
2021.604543	66.150000
2023.306232	63.150000
2025.007575	70.100000
2026.708574	72.750000
2028.407511	69.950000
2030.107820	71.900000
2031.804353	66.050000
2033.502258	62.800000
2035.198105	64.300000
2036.897037	66.600000
2038.590483	72.000000
2040.285300	57.800000
2041.979774	72.000000
2043.670481	72.200000
2045.364270	61.450000
2047.054294	60.700000
2048.745688	70.700000
2050.435028	77.750000
2052.125740	70.900000
2053.812688	65.550000
2055.499296	66.100000
2057.187275	66.100000
2058.871494	61.200000
2060.557083	64.450000
2062.242333	62.700000
2063.925535	59.700000
2065.610107	64.800000
2067.289215	55.500000
2068.973110	69.500000
2070.651543	56.950000
2072.333054	60.200000
2074.010813	65.950000
2075.688236	71.300000
2077.367028	56.700000
2079.043777	51.100000
2080.718485	77.000000
2082.394563	67.850000
2084.068599	55.900000
2085.742301	68.300000
2087.415667	69.900000
2089.086994	70.000000
2090.757987	54.150000
2092.428646	61.250000
2094.098971	71.400000
2095.768962	55.850000
2097.436917	70.950000
2099.104538	61.100000
2100.770126	58.600000
2102.437082	56.850000
2104.102005	66.300000
2105.766596	57.300000
2107.429155	66.950000
2109.093082	62.600000
2110.754978	55.550000
2112.416544	70.950000
2114.077778	54.600000
2115.736983	69.650000
2117.395859	64.300000
2119.054405	58.750000
2120.712620	58.600000
2122.367113	63.400000
2124.024670	80.450000
2125.681897	60.100000
2127.335404	70.650000
2128.990278	55.050000
2130.641433	69.600000
2132.295651	50.800000
2133.946151	69.100000
2135.598019	54.400000
2137.244478	57.650000
2138.895691	69.400000
2140.543192	59.000000
2142.192059	61.100000
2143.838907	69.800000
2145.485430	64.500000
2147.131627	71.650000
2148.774116	63.500000
2150.419662	62.300000
2152.061502	52.400000
2153.706399	61.950000
2155.347591	57.450000
2156.988459	54.650000
2158.629004	53.100000
2160.267536	62.800000
2161.907434	56.800000
2163.543632	75.750000
2165.181196	58.500000
2166.818438	56.800000
2168.453670	58.150000
2170.088580	69.850000
2171.723169	52.400000
2173.357437	60.850000
2174.988011	73.800000
2176.621637	62.800000
2178.251571	52.450000
2179.882870	69.100000
2181.512164	59.600000
2183.141139	71.750000
2184.769794	56.000000
2186.398130	60.500000
2188.024463	51.850000
2189.650478	57.250000
2191.274492	49.750000
2192.899871	55.850000
2194.523249	48.350000
2196.147992	62.750000
2197.769054	61.650000
2199.389799	59.350000
2201.011908	51.500000
2202.632020	56.600000
2204.250136	60.700000
2205.867936	62.550000
2207.485420	64.500000
2209.102590	68.800000
2210.719443	62.050000
2212.335982	68.800000
2213.950528	73.600000
2215.563081	66.100000
2217.176998	67.000000
2218.788924	51.800000
2220.402213	56.100000
2222.013512	73.600000
2223.622821	60.200000
2225.233493	62.550000
2226.842177	63.650000
2228.450549	53.400000
2230.056934	58.900000
2231.664681	66.400000
2233.270443	51.000000
2234.875893	69.800000
2236.479358	52.450000
2238.084186	59.450000
2239.687030	62.450000
2241.287891	64.650000
2242.890115	52.100000
2244.490357	55.700000
2246.091961	63.000000
2247.689912	65.500000
2249.289226	58.900000
2250.886560	64.250000
2252.483586	57.700000
2254.081973	69.800000
2255.676713	58.500000
2257.269475	71.100000
2258.863600	57.100000
2260.459086	63.250000
2262.050927	67.850000
2263.642462	62.900000
2265.235359	56.750000
2266.822946	54.650000
2268.415229	54.100000
2270.002205	47.500000
2271.592210	58.550000
2273.176910	51.650000
2274.766304	50.150000
2276.350395	67.500000
2277.935848	56.150000
2279.519332	56.650000
2281.105841	75.250000
2282.688717	49.400000
2284.271290	65.100000
2285.853559	54.150000
2287.432198	54.500000
2289.013862	59.300000
2290.591897	59.650000
2292.172955	48.700000
2293.750386	53.075000
2295.325854	57.450000
2296.904344	61.650000
2298.479210	57.000000
2300.053775	49.100000
2301.628039	55.700000
2303.202003	54.400000
2304.775667	50.850000
2306.349031	56.800000
2307.918776	56.050000
2309.488222	54.450000
2311.060686	66.450000
2312.627876	63.500000
2314.198083	55.600000
2315.764677	52.050000
2317.332629	69.750000
2318.898627	50.350000
2320.464327	59.600000
2322.029729	63.800000
2323.593178	65.800000
2325.157986	60.100000
2326.719186	64.900000
2328.283399	66.100000
2329.842352	90.900000
2331.404318	64.950000
2332.964334	64.100000
2334.524054	49.950000
2336.081826	55.450000
2337.639302	60.100000
2339.196484	53.950000
2340.751718	61.100000
2342.306659	59.550000
2343.861305	58.100000
2345.415658	55.150000
2346.969717	53.850000
2348.523483	65.050000
2350.075304	66.900000
2351.625182	70.950000
2353.178069	60.350000
2354.725712	50.650000
2356.276364	65.950000
2357.823424	61.350000
2359.371842	49.300000
2360.919969	75.300000
2362.464507	54.700000
2364.010403	64.100000
2365.554361	60.150000
2367.099675	58.200000
2368.641405	49.050000
2370.184493	71.200000
2371.725644	65.700000
2373.266506	63.000000
2374.807079	63.850000
2376.347363	59.550000
2377.887358	58.250000
2379.423774	65.850000
2380.963192	58.500000
2382.499033	59.350000
2384.036231	56.250000
2385.569853	57.600000
2387.106475	57.500000
2388.641167	60.850000
2390.173929	56.200000
2391.706404	53.700000
2393.236951	54.150000
2394.770496	55.850000
2396.298830	58.150000
2397.828520	63.100000
2399.357925	66.150000
2400.887045	65.800000
2402.415879	60.050000
2403.939509	69.950000
2405.467774	54.600000
2406.990837	68.850000
2408.518533	57.650000
2410.039390	66.350000
2411.564879	58.550000
2413.086809	56.900000
2414.610093	63.250000
2416.131457	71.400000
2417.650901	64.800000
2419.171700	67.200000
2420.690580	62.650000
2422.209179	61.200000
2423.725859	70.900000
2425.243895	61.500000
2426.761649	57.900000
2428.275851	65.850000
2429.789774	61.650000
2431.303416	53.050000
2432.818412	56.500000
2434.329861	60.050000
2435.842663	63.750000
2437.353553	73.500000
2438.864164	60.900000
2440.372863	63.800000
2441.884548	50.700000
2443.392690	65.450000
2444.900554	59.900000
2446.408139	70.750000
2447.912185	67.500000
2449.419215	71.150000
2450.924337	68.200000
2452.429182	73.450000
2453.932120	66.650000
2455.434782	72.400000
2456.937167	78.200000
2458.437647	77.050000
2459.939480	78.300000
2461.439408	85.450000
2462.939061	76.550000
2464.438439	65.550000
2465.935914	78.650000
2467.431487	78.800000
2468.930040	78.200000
2470.425065	63.900000
2471.921442	77.250000
2473.414293	64.350000
2474.908497	68.700000
2476.402427	73.550000
2477.892833	59.500000
2479.386217	65.850000
2480.877703	71.050000
2482.367292	73.850000
2483.856609	68.750000
2485.344030	65.250000
2486.834427	56.600000
2488.321306	61.600000
2489.809536	51.250000
2491.294249	65.200000
2492.778692	57.600000
2494.264487	60.850000
2495.748390	68.800000
2497.233643	65.950000
2498.713763	66.600000
2500.196856	66.450000
2501.678058	52.250000
2503.158991	69.950000
2504.638035	56.950000
2506.116810	55.050000
2507.595317	56.700000
2509.073555	48.900000
2510.551526	73.650000
2512.025991	60.550000
2513.503426	52.400000
2514.977356	64.150000
2516.452638	67.200000
2517.927652	61.000000
2519.399165	49.050000
2520.872029	62.250000
2522.343010	45.500000
2523.815341	50.000000
2525.282558	49.500000
2526.752742	52.900000
2528.221045	57.000000
2529.689083	65.150000
2531.156855	54.750000
2532.624363	62.750000
2534.091607	65.700000
2535.555358	54.350000
2537.020459	54.500000
2538.483683	64.300000
2539.948256	57.350000
2541.409341	54.950000
2542.871775	62.200000
2544.333946	47.450000
2545.792630	62.900000
2547.255887	65.700000
2548.714047	64.750000
2550.173557	52.700000
2551.627972	54.000000
2553.086958	56.550000
2554.544072	56.600000
2555.999314	59.250000
2557.454296	62.150000
2558.907408	59.200000
2560.361869	56.600000
2561.814461	52.950000
2563.266793	54.150000
2564.717257	55.450000
2566.170678	61.450000
2567.619016	63.900000
2569.070309	56.150000
2570.519737	54.400000
2571.965692	68.500000
2573.414602	69.650000
2574.860042	52.900000
2576.306829	65.700000
2577.751753	52.350000
2579.196420	57.400000
2580.642434	70.300000
2582.084982	65.400000
2583.528876	60.200000
2584.969306	54.300000
2586.411084	63.200000
2587.851002	59.750000
2589.292267	67.100000
2590.730070	58.000000
2592.170823	51.750000
2593.606514	63.400000
2595.045153	75.950000
2596.481936	55.450000
2597.916863	60.700000
2599.354737	80.250000
2600.787554	66.000000
2602.221718	47.450000
2603.654028	66.300000
2605.087684	57.900000
2606.519487	71.000000
2607.951036	66.100000
2609.382332	59.800000
2610.811777	78.200000
2612.240969	60.400000
2613.668310	60.250000
2615.096998	65.700000
2616.525433	67.000000
2617.950422	66.400000
2619.376756	61.750000
2620.801243	60.400000
2622.227075	69.500000
2623.649463	73.700000
2625.073196	70.200000
2626.495084	70.250000
2627.916721	65.900000
2629.336514	61.800000
2630.757652	79.600000
2632.178540	72.250000
2633.595989	78.950000
2635.016378	70.550000
2636.433330	73.500000
2637.850034	75.050000
2639.266489	83.500000
2640.682696	92.800000
2642.098655	93.700000
2643.512773	99.200000
2644.926643	117.350000
2646.338674	92.800000
2647.752050	118.300000
2649.161996	112.150000
2650.574878	120.550000
2651.984331	130.200000
2653.393538	139.200000
2654.800909	146.450000
2656.211214	160.900000
2657.619683	170.750000
2659.026318	173.100000
2660.432707	180.900000
2661.837262	218.150000
2663.243161	205.850000
2664.647227	242.150000
2666.051048	262.150000
2667.454625	260.150000
2668.856371	302.100000
2670.259460	299.650000
2671.659131	332.100000
2673.060146	354.950000
2674.457745	374.600000
2675.858273	405.750000
2677.255387	416.100000
2678.653844	437.300000
2680.050474	444.100000
2681.446861	455.550000
2682.843006	456.300000
2684.237325	441.550000
2685.632987	443.200000
2687.025240	437.500000
2688.418835	423.150000
2689.810606	425.150000
2691.203720	374.800000
2692.595010	373.100000
2693.984477	351.250000
2695.373704	321.950000
2696.762692	309.100000
2698.153021	278.900000
2699.538367	253.250000
2700.926636	233.700000
2702.313085	213.750000
2703.699295	202.550000
2705.085266	186.850000
2706.467839	184.150000
2707.851754	174.950000
2709.235430	143.600000
2710.618869	150.750000
2711.998912	149.450000
2713.380297	122.600000
2714.759867	121.850000
2716.140777	113.950000
2717.519873	110.900000
2718.897155	100.700000
2720.275778	88.250000
2721.652587	92.700000
2723.029161	85.250000
2724.405499	90.800000
2725.780025	88.250000
2727.155892	87.300000
2728.528373	86.650000
2729.903769	78.400000
2731.274205	81.900000
2732.645981	70.050000
2734.017524	83.900000
2735.387258	75.850000
2736.758332	77.100000
2738.127599	71.600000
2739.496632	62.350000
2740.863859	60.900000
2742.230852	77.700000
2743.597613	72.400000
2744.964141	70.200000
2746.328865	71.200000
2747.693356	64.500000
2749.057616	60.650000
2750.421643	63.600000
2751.785438	69.900000
2753.145861	56.150000
2754.509193	56.150000
2755.867583	63.350000
2757.228883	54.650000
2758.586813	61.150000
2759.947651	58.050000
2761.306689	55.100000
2762.662360	49.000000
2764.020938	66.000000
2765.376149	58.550000
2766.731131	60.750000
2768.084316	50.000000
2769.440408	55.500000
2770.793136	61.100000
2772.145636	47.400000
2773.497907	41.750000
2774.851516	41.800000
2776.201765	41.400000
2777.550219	40.700000
2778.901578	51.650000
2780.249579	36.200000
2781.598917	52.200000
2782.946463	55.300000
2784.293783	46.850000
2785.640875	51.750000
2786.986177	47.100000
2788.331253	52.100000
2789.676103	46.400000
2791.020727	43.450000
2792.361999	54.150000
2793.704608	49.050000
2795.046993	49.850000
2796.389152	45.950000
2797.727962	49.500000
2799.069672	48.850000
2800.408033	55.850000
2801.747732	53.800000
2803.085646	39.750000
2804.421774	52.500000
2805.757680	51.600000
2807.094923	54.450000
2808.430382	52.550000
2809.765617	50.900000
2811.099071	50.300000
2812.433861	57.750000
2813.765311	50.750000
2815.099656	45.950000
2816.429102	43.700000
2817.759886	47.550000
2819.090449	46.350000
2820.419232	49.550000
2821.749351	47.550000
2823.077692	46.350000
2824.405812	46.900000
2825.732154	41.400000
2827.059832	33.550000
2828.384178	44.400000
2829.709860	51.000000
2831.033766	47.900000
2832.357452	53.500000
2833.682474	53.950000
2835.004167	37.100000
2836.325641	50.100000
2837.646895	44.350000
2838.967932	39.900000
2840.287195	46.350000
2841.607794	42.500000
2842.926621	41.450000
2844.245231	49.550000
2845.562069	56.750000
2846.878690	52.400000
2848.195094	42.300000
2849.509728	43.850000
2850.825697	39.300000
2852.138347	50.200000
2853.452331	40.650000
2854.766099	49.650000
2856.079650	41.000000
2857.391435	43.100000
2858.701453	44.600000
2860.012806	55.550000
2861.320844	38.200000
2862.630216	41.950000
2863.939373	40.800000
2865.248316	39.300000
2866.555494	38.500000
2867.860910	46.400000
2869.167659	32.250000
2870.472647	33.250000
2871.777420	43.650000
2873.080433	47.600000
2874.386326	40.550000
2875.687365	46.850000
2876.989737	51.250000
2878.290351	45.000000
2879.592297	32.300000
2880.894031	49.600000
2882.192461	47.200000
2883.492224	45.350000
2884.790230	35.100000
2886.088024	46.550000
2887.384062	40.250000
2888.681432	52.350000
2889.977048	40.200000
2891.272452	46.450000
2892.567645	35.050000
2893.859541	45.300000
2895.154312	40.550000
2896.445788	44.700000
2897.738596	54.550000
2899.031194	53.950000
2900.320497	48.650000
2901.611134	40.850000
2902.900019	34.400000
2904.190236	44.200000
2905.477162	41.750000
2906.765420	37.750000
2908.051929	45.650000
2909.338229	45.750000
2910.624321	45.400000
2911.908665	40.250000
2913.195881	51.000000
2914.478270	39.350000
2915.761991	36.400000
2917.043965	43.850000
2918.325733	35.150000
2919.605755	47.700000
2920.888648	28.600000
2922.169794	52.100000
2923.447659	41.400000
2924.728393	34.550000
2926.005847	37.450000
2927.283094	49.900000
2928.558599	43.350000
2929.836972	38.300000
2931.110531	36.750000
2932.386957	37.350000
2933.661642	31.600000
2934.934586	39.150000
2936.208862	31.050000
2937.481398	32.100000
2938.753729	40.450000
2940.022788	55.200000
2941.294712	43.950000
2942.564898	38.650000
2943.834880	32.050000
2945.104659	41.950000
2946.372702	41.700000
2947.639008	50.100000
2948.905112	41.450000
2950.172547	40.650000
2951.438246	49.200000
2952.703744	55.750000
2953.969039	45.150000
2955.231069	47.200000
2956.494429	41.900000
2957.757588	45.950000
2959.019015	51.750000
2960.281771	39.500000
2961.542795	37.300000
2962.802089	36.600000
2964.061182	29.600000
2965.320076	40.500000
2966.578769	35.800000
2967.837261	34.050000
2969.094025	46.150000
2970.350590	38.400000
2971.605426	34.050000
2972.861592	47.100000
2974.114503	42.250000
2975.368742	46.550000
2976.622783	34.500000
2977.875098	48.150000
2979.127215	38.100000
2980.377607	34.900000
2981.630854	37.700000
2982.879324	38.900000
2984.130649	31.750000
2985.378724	51.200000
2986.626602	41.250000
2987.874284	32.700000
2989.121768	33.250000
2990.367531	30.950000
2991.613098	28.300000
2992.859992	41.700000
2994.103642	44.500000
2995.348619	44.150000
2996.590354	40.250000
2997.834940	39.200000
2999.077807	33.900000
3000.317433	42.050000
3001.559909	26.750000
3002.799145	42.900000
3004.039709	16.900000
3005.278556	46.200000
3006.517209	32.150000
3007.754146	36.400000
3008.992411	44.350000
3010.228960	46.400000
3011.465316	28.850000
3012.701478	42.100000
3013.935926	40.050000
3015.170181	43.850000
3016.404244	37.450000
3017.636593	46.300000
3018.867231	38.400000
3020.100715	38.950000
3021.332488	29.550000
3022.562549	33.750000
3023.792419	51.750000
3025.020579	41.800000
3026.250066	41.750000
3027.477843	48.000000
3028.705429	36.050000
3029.934341	42.600000
3031.158511	33.350000
3032.385524	44.850000
3033.609314	33.150000
3034.834429	39.800000
3036.057839	37.150000
3037.281058	35.350000
3038.502572	12.850000
3039.726927	42.450000
3040.946547	42.650000
3042.167493	39.600000
3043.388249	30.250000
3044.607303	52.650000
3045.827681	26.150000
3047.044843	51.400000
3048.263330	29.750000
3049.480116	45.950000
3050.696713	35.700000
3051.913123	36.550000
3053.126319	39.700000
3054.342353	44.150000
3055.555175	34.750000
3056.770834	34.450000
3057.981771	41.250000
3059.194032	27.800000
3060.406106	31.550000
3061.617994	42.550000
3062.828185	37.700000
3064.038189	39.900000
3065.248007	42.650000
3066.456129	36.400000
3067.664066	19.500000
3068.870307	43.450000
3070.077873	37.700000
3071.283744	35.675000
3072.489430	33.650000
3073.694932	34.550000
3074.898740	39.200000
3076.103872	33.400000
3077.307311	31.600000
3078.509059	41.500000
3079.710622	34.150000
3080.912002	22.550000
3082.113198	37.300000
3083.312704	35.550000
3084.512027	32.800000
3085.712673	39.250000
3086.911629	28.100000
3088.107391	35.300000
3089.305981	39.500000
3090.501378	31.050000
3091.698099	29.000000
3092.891627	34.900000
3094.087983	32.100000
3095.282652	40.900000
3096.474131	36.400000
3097.669942	32.600000
3098.861058	24.500000
3100.053498	34.350000
3101.242749	21.100000
3102.434827	38.350000
3103.625221	21.150000
3104.812429	39.400000
3106.000959	27.850000
3107.190812	30.750000
3108.377480	38.100000
3109.563969	36.000000
3110.750279	29.750000
3111.937910	40.450000
3113.122359	24.150000
3114.305129	37.900000
3115.490721	36.550000
3116.674634	26.850000
3117.856867	31.200000
3119.038923	24.200000
3120.220800	44.650000
3121.402499	34.800000
3122.582521	23.600000
3123.760866	36.800000
3124.942031	34.900000
3126.120021	27.450000
3127.297834	36.900000
3128.475470	36.450000
3129.651431	32.100000
3130.827216	30.400000
3132.004321	19.600000
3133.179753	31.100000
3134.353511	17.900000
3135.525596	27.050000
3136.699003	21.300000
3137.872233	33.350000
3139.043792	36.550000
3140.216671	36.450000
3141.386383	18.300000
3142.557416	34.900000
3143.726778	25.200000
3144.894471	34.150000
3146.064979	23.300000
3147.230829	34.200000
3148.400987	37.900000
3149.566488	31.750000
3150.731816	30.200000
3151.896970	29.350000
3153.061951	29.200000
3154.228251	32.650000
3155.389898	22.850000
3156.552866	43.200000
3157.715661	36.650000
3158.878283	26.200000
3160.039239	36.700000
3161.200024	41.550000
3162.360636	22.800000
3163.519584	23.550000
3164.678361	30.000000
3165.836965	30.350000
3166.995398	25.450000
3168.153660	24.050000
3169.310259	22.150000
3170.465197	29.150000
3171.621454	22.600000
3172.776050	26.800000
3173.930476	30.950000
3175.083242	38.950000
3176.235837	26.600000
3177.388263	34.050000
3178.540518	38.550000
3179.692604	41.450000
3180.841543	24.000000
3181.993289	38.000000
3183.143378	31.700000
3184.291810	19.150000
3185.440072	21.700000
3186.588166	34.700000
3187.736091	39.500000
3188.882360	37.350000
3190.028461	38.050000
3191.172908	32.250000
3192.317187	23.800000
3193.461297	21.750000
3194.606726	21.800000
3195.749016	37.900000
3196.891139	26.150000
3198.033094	43.550000
3199.174882	26.700000
3200.316503	35.550000
3201.454989	30.400000
3202.594792	26.600000
3203.735912	28.600000
3204.873899	19.850000
3206.010235	31.050000
3207.146407	28.850000
3208.283895	24.250000
3209.419735	27.550000
3210.556892	13.800000
3211.689436	29.500000
3212.826261	21.250000
3213.958476	27.650000
3215.092007	40.150000
3216.225373	41.850000
3217.355613	20.450000
3218.488650	20.000000
3219.618561	24.150000
3220.749788	33.400000
3221.877891	39.200000
3223.008790	36.950000
3224.138045	20.100000
3225.265657	29.500000
3226.390146	28.050000
3227.518911	26.200000
3228.644554	28.750000
3229.770034	26.250000
3230.893873	35.150000
3232.020507	33.850000
3233.142543	32.300000
3234.265895	41.300000
3235.389085	34.550000
3236.512112	27.050000
3237.633501	29.300000
3238.754727	38.850000
3239.874315	31.650000
3240.993742	44.200000
3242.111532	42.300000
3243.232113	39.050000
3244.349581	33.500000
3245.466888	38.450000
3246.584035	50.000000
3247.699545	49.000000
3248.816371	43.400000
3249.930087	49.700000
3251.046592	48.600000
3252.161462	40.500000
3253.273224	47.650000
3254.384827	44.900000
3255.497745	30.650000
3256.610503	43.600000
3257.720155	43.650000
3258.831122	32.850000
3259.941930	33.400000
3261.051106	33.150000
3262.158651	26.700000
3263.267511	31.800000
3264.376212	16.900000
3265.481811	47.800000
3266.588725	44.550000
3267.694009	20.600000
3268.800607	19.600000
3269.904105	29.950000
3271.008917	27.850000
3272.113572	34.900000
3273.215129	29.650000
3274.316529	29.900000
3275.419243	39.000000
3276.521801	28.100000
3277.621262	20.750000
3278.723507	21.200000
3279.822656	21.150000
3280.920180	18.250000
3282.017550	30.450000
3283.117701	29.700000
3284.214760	12.900000
3285.311663	13.600000
3286.408411	21.850000
3287.500600	29.000000
3288.597039	26.050000
3289.691855	29.900000
3290.786517	25.950000
3291.879556	28.800000
3292.972442	28.600000
3294.063707	37.900000
3295.156285	33.350000
3296.247243	27.000000
3297.336581	7.600000
3298.425766	35.750000
3299.516263	29.800000
3300.603677	20.950000
3301.690937	34.650000
3302.779510	21.900000
3303.867930	10.850000
3304.951804	28.800000
3306.039919	19.450000
3307.124952	17.850000
3308.208370	24.850000
3309.293100	33.450000
3310.376214	27.050000
3311.460641	38.400000
3312.541989	41.150000
3313.624649	18.850000
3314.705694	27.650000
3315.786589	33.550000
3316.865871	33.100000
3317.945002	27.150000
3319.025445	30.950000
3320.102813	23.500000
3321.181493	24.200000
3322.258561	31.000000
3323.335479	20.200000
3324.410787	15.050000
3325.485945	21.400000
3326.562414	27.600000
3327.635813	29.300000
3328.709062	27.550000
3329.783623	29.750000
3330.856575	31.700000
3331.927918	20.550000
3333.000572	21.800000
3334.070159	30.500000
3335.141058	22.150000
3336.210349	29.700000
3337.280950	15.800000
3338.349946	11.550000
3339.417335	17.100000
3340.483119	23.850000
3341.553129	16.300000
3342.620076	26.000000
3343.683961	18.000000
3344.750613	25.650000
3345.815662	16.750000
3346.879107	16.900000
3347.942406	17.750000
3349.005558	35.700000
3350.068564	23.600000
3351.131424	25.850000
3352.192681	34.750000
3353.250882	17.050000
3354.313304	14.100000
3355.372670	33.100000
3356.431890	23.250000
3357.492419	22.700000
3358.548440	29.000000
3359.607224	27.200000
3360.661501	31.500000
3361.718542	19.900000
3362.773984	21.400000
3363.830736	22.850000
3364.885889	31.950000
3365.939445	24.600000
3366.991404	27.850000
3368.046126	36.650000
3369.097798	36.450000
3370.149327	31.800000
3371.202164	37.000000
3372.251954	20.150000
3373.303053	19.200000
3374.351105	36.700000
3375.401918	25.250000
3376.449685	27.250000
3377.497310	29.450000
3378.544793	26.150000
3379.590683	41.500000
3380.637881	39.800000
3381.682037	24.100000
3382.728951	14.850000
3383.774273	25.500000
3384.816554	16.100000
3385.858694	37.500000
3386.902143	27.550000
3387.945450	27.050000
3388.987167	23.500000
3390.028744	28.200000
3391.070179	34.800000
3392.110026	29.650000
3393.148284	30.750000
3394.187850	36.050000
3395.227276	19.000000
3396.265114	19.500000
3397.301365	21.400000
3398.337477	17.800000
3399.374895	27.850000
3400.409281	20.750000
3401.444975	16.700000
3402.480529	20.950000
3403.513052	27.450000
3404.548327	28.550000
3405.580573	24.650000
3406.612680	26.200000
3407.643203	25.100000
3408.675033	17.750000
3409.706725	22.750000
3410.735389	28.650000
3411.763916	21.200000
3412.793749	22.550000
3413.823445	28.150000
3414.850115	17.450000
3415.878091	26.550000
3416.903044	21.950000
3417.930746	22.650000
3418.955424	25.650000
3419.981409	22.750000
3421.005815	26.500000
3422.030084	26.250000
3423.052774	23.350000
3424.075328	20.400000
3425.099188	24.400000
3426.120028	24.100000
3427.140732	23.450000
3428.162742	31.900000
3429.181734	28.150000
3430.200591	25.050000
3431.220754	24.200000
3432.237900	16.150000
