-117.018713	-0.550000
-114.349113	13.450000
-111.682448	0.700000
-109.016535	9.250000
-106.353555	-5.400000
-103.689144	7.600000
-101.027664	1.750000
-98.364755	11.350000
-95.706952	-5.950000
-93.047720	4.000000
-90.389236	2.100000
-87.733677	0.150000
-85.076688	6.650000
-82.424798	0.400000
-79.771478	-1.800000
-77.121077	5.700000
-74.469248	2.950000
-71.822509	7.600000
-69.174340	0.800000
-66.526914	-8.250000
-63.882403	-2.850000
-61.236462	4.400000
-58.595603	1.600000
-55.953315	9.450000
-53.313936	-0.500000
-50.673128	4.900000
-48.033059	-6.450000
-45.398064	9.200000
-42.761639	-4.800000
-40.128117	8.750000
-37.493167	14.950000
-34.863283	11.250000
-32.229805	18.950000
-29.601390	16.000000
-26.973709	16.150000
-24.344599	11.200000
-21.720547	6.450000
-19.092904	21.550000
-16.470316	24.550000
-13.848458	39.200000
-11.227331	73.700000
-8.606935	155.200000
-5.989426	502.850000
-3.370489	1650.000000
-0.754438	4392.550000
1.860886	6869.500000
4.475481	3904.800000
7.087195	429.300000
9.700337	59.300000
12.308445	40.300000
14.920134	30.200000
17.526793	14.700000
20.134881	12.350000
22.742243	12.050000
25.344581	-1.100000
27.950498	11.650000
30.551392	6.900000
33.153714	9.950000
35.751018	5.950000
38.351899	16.100000
40.947764	4.350000
43.545057	-2.650000
46.141632	10.050000
48.733197	1.250000
51.326190	7.850000
53.916322	7.900000
56.507881	13.250000
59.096582	5.750000
61.686709	-0.800000
64.271837	-0.450000
66.858393	-10.000000
69.444235	5.100000
72.027222	4.100000
74.611637	0.300000
77.188923	5.350000
79.769775	1.850000
82.347778	2.200000
84.925070	7.600000
87.503790	4.550000
90.077527	4.050000
92.652691	11.600000
95.225012	-1.400000
97.796626	7.400000
100.365399	17.300000
102.935599	-5.350000
105.502960	22.700000
108.071748	15.100000
110.637699	-0.450000
113.200815	10.800000
115.767487	18.500000
118.324937	17.300000
120.888073	22.100000
123.446250	46.050000
126.007981	45.000000
128.564755	65.750000
131.122955	89.300000
133.676203	132.350000
136.228753	177.750000
138.784853	272.700000
141.336005	373.550000
143.886460	449.400000
146.436217	555.050000
148.983155	604.500000
151.529398	644.950000
154.077066	667.250000
156.624038	673.000000
159.166075	669.650000
161.707418	667.800000
164.248068	662.400000
166.790144	628.700000
169.329408	655.300000
171.865863	632.700000
174.401628	636.850000
176.938818	632.000000
179.475317	629.550000
182.009010	632.400000
184.539899	645.950000
187.070100	635.850000
189.601727	632.350000
192.130552	648.500000
194.656578	631.300000
197.181918	639.300000
199.708683	642.450000
202.232652	632.250000
204.755936	649.550000
207.278534	636.450000
209.798340	649.100000
212.317463	645.100000
214.835903	635.000000
217.355768	661.950000
219.868630	650.500000
222.385024	674.650000
224.900737	652.400000
227.411559	687.100000
229.923806	688.350000
232.433270	690.200000
234.942056	686.450000
237.450164	681.850000
239.959696	694.150000
242.464347	697.300000
244.968322	701.050000
247.473721	692.150000
249.974245	700.350000
252.478292	684.650000
254.975369	686.050000
257.475969	706.650000
259.973797	687.050000
262.470952	693.300000
264.967434	693.050000
267.459053	684.750000
269.954192	661.150000
272.446564	681.450000
274.938266	680.400000
277.427205	697.350000
279.917567	682.950000
282.405168	694.100000
284.890009	690.500000
287.378365	697.300000
289.859781	706.450000
292.344711	711.200000
294.824796	725.750000
297.308393	747.350000
299.787147	764.300000
302.267324	765.200000
304.744750	780.750000
307.221512	756.000000
309.697610	723.300000
312.170960	700.600000
314.643649	698.200000
317.115676	704.450000
319.587041	713.400000
322.055663	718.600000
324.523625	711.850000
326.993010	689.000000
329.457572	664.050000
331.925638	654.600000
334.388883	650.500000
336.851472	628.600000
339.313404	615.750000
341.774679	619.450000
344.233219	597.250000
346.693183	604.800000
349.150413	583.150000
351.606989	575.000000
354.062911	567.500000
356.516103	559.550000
358.970718	535.500000
361.420531	558.400000
363.873840	530.800000
366.322350	549.250000
368.770210	519.200000
371.219492	527.550000
373.663979	516.800000
376.109890	500.300000
378.555150	502.000000
380.997692	502.600000
383.439586	509.250000
385.880832	480.550000
388.319364	491.900000
390.759316	492.750000
393.196555	469.850000
395.631083	462.750000
398.069097	471.050000
400.502336	475.250000
402.936995	473.400000
405.366882	473.450000
407.800254	468.100000
410.228856	462.700000
412.656816	453.400000
415.086198	455.400000
417.510814	458.250000
419.936852	437.950000
422.362249	446.500000
424.787006	443.350000
427.207004	445.350000
429.628424	442.300000
432.047148	430.750000
434.467292	423.800000
436.884741	428.750000
439.303610	410.450000
441.719785	390.900000
444.131214	392.000000
446.546119	387.000000
448.958335	364.350000
451.369916	351.400000
453.780863	349.800000
456.189123	327.350000
458.596752	322.200000
461.003748	328.850000
463.410113	328.400000
465.813795	313.650000
468.216847	308.600000
470.619269	306.150000
473.021061	319.450000
475.420175	331.400000
477.820709	327.100000
480.220614	333.900000
482.615797	344.500000
485.014446	363.000000
487.408374	379.250000
489.801677	385.150000
492.194355	429.600000
494.586407	470.600000
496.979877	519.250000
499.368635	615.350000
501.754727	755.450000
504.142239	956.400000
506.529128	1272.200000
508.913352	1806.400000
511.298996	2580.000000
513.681978	3635.850000
516.062299	4773.950000
518.444039	5650.850000
520.823120	5663.650000
523.203619	5003.950000
525.581462	4103.500000
527.956648	3358.400000
530.331218	2781.850000
532.707205	2358.550000
535.080540	2034.900000
537.455292	1821.800000
539.825358	1640.850000
542.194810	1464.350000
544.565679	1355.700000
546.931867	1239.750000
549.299474	1143.300000
551.664435	1060.650000
554.028784	1001.850000
556.392519	948.250000
558.757672	918.650000
561.118153	877.550000
563.480052	866.200000
565.839310	807.350000
568.195930	807.050000
570.555996	773.050000
572.909370	736.800000
575.266189	723.400000
577.620373	722.050000
579.973948	703.450000
582.326916	668.800000
584.677251	672.450000
587.029004	638.300000
589.374080	634.950000
591.724619	616.200000
594.068486	590.150000
596.417814	596.100000
598.762493	583.800000
601.104548	552.450000
603.448020	547.550000
605.788869	562.300000
608.129115	563.550000
610.466741	586.200000
612.807802	626.400000
615.144226	654.850000
617.482066	687.600000
619.817289	668.400000
622.149895	635.450000
624.483919	617.550000
626.815328	576.450000
629.146139	557.100000
631.476352	544.850000
633.805968	529.400000
636.130960	557.400000
638.461394	551.350000
640.787207	543.050000
643.110412	534.350000
645.435034	506.550000
647.757050	514.550000
650.078472	514.500000
652.397291	505.400000
654.717527	505.250000
657.037169	491.100000
659.354210	483.900000
661.670659	494.950000
663.984510	472.600000
666.299777	461.600000
668.612447	463.700000
670.926532	462.700000
673.236017	475.000000
675.546918	471.950000
677.855226	460.250000
680.162946	461.750000
682.472080	454.900000
684.776622	450.850000
687.080578	444.000000
689.383948	443.600000
691.688732	444.550000
693.988929	424.350000
696.290542	411.600000
698.591569	406.800000
700.888015	405.250000
703.185876	381.650000
705.483153	387.800000
707.779847	381.800000
710.071965	377.000000
712.367494	356.700000
714.658449	362.800000
716.950819	374.100000
719.240614	363.350000
721.529828	354.800000
723.818463	355.000000
726.104525	352.450000
728.392002	349.750000
730.676907	363.250000
732.961235	339.950000
735.242994	353.200000
737.526167	338.050000
739.808763	339.200000
742.086803	348.700000
744.366257	353.650000
746.645136	340.700000
748.923440	347.150000
751.197193	354.500000
753.472361	343.350000
755.746955	339.000000
758.018990	337.450000
760.292438	349.050000
762.563328	346.100000
764.831662	342.500000
767.101409	334.200000
769.368601	334.650000
771.635224	340.800000
773.901276	343.700000
776.164777	351.100000
778.429691	344.250000
780.694035	339.450000
782.953850	348.700000
785.215077	348.950000
787.475737	345.000000
789.733851	342.350000
791.989420	339.700000
794.248379	350.200000
796.500840	344.500000
798.758668	359.550000
801.011977	338.750000
803.262746	339.050000
805.514927	355.350000
807.764569	348.250000
810.015623	348.400000
812.262167	357.400000
814.510122	353.750000
816.755543	338.750000
819.002375	344.750000
821.248646	339.000000
823.490412	333.800000
825.735562	334.850000
827.974239	326.950000
830.216298	318.250000
832.453859	311.000000
834.692832	307.600000
836.929278	317.350000
839.167135	307.050000
841.402467	316.650000
843.635276	315.600000
845.869495	319.850000
848.101193	319.950000
850.332336	318.250000
852.562924	301.450000
854.792958	323.000000
857.022438	311.800000
859.247436	318.050000
861.475808	320.150000
863.699702	322.300000
865.925007	313.350000
868.145836	296.450000
870.370037	308.050000
872.589765	299.650000
874.810903	297.300000
877.031491	309.250000
879.249570	313.150000
881.469058	303.250000
883.684080	308.550000
885.898554	299.400000
888.112481	295.550000
890.325861	293.050000
892.538693	306.350000
894.750978	295.300000
896.960762	305.000000
899.170000	298.750000
901.378693	313.300000
903.584886	301.850000
905.792489	316.550000
907.997595	298.200000
910.202157	310.950000
912.404224	312.900000
914.607700	329.100000
916.808682	338.000000
919.009122	332.950000
921.210971	370.500000
923.406429	375.650000
925.605245	401.100000
927.799624	434.300000
929.997360	455.650000
932.190660	533.900000
934.385369	582.450000
936.577591	639.600000
938.769276	706.100000
940.960423	739.150000
943.149087	744.450000
945.337215	767.150000
947.522861	740.700000
949.711861	755.100000
951.896437	730.150000
954.080478	751.200000
956.267869	755.300000
958.446956	752.400000
960.629394	742.550000
962.811298	746.900000
964.990727	745.550000
967.167684	760.850000
969.346049	748.200000
971.525821	753.550000
973.699244	767.250000
975.876013	757.600000
978.048375	762.900000
980.222145	744.700000
982.391511	729.050000
984.564221	689.050000
986.734466	652.500000
988.904181	595.200000
991.073368	530.150000
993.238158	498.250000
995.406290	463.850000
997.570026	439.550000
999.735170	420.900000
1001.897854	398.900000
1004.060013	374.700000
1006.219715	364.450000
1008.378892	367.250000
1010.539476	351.300000
1012.697605	349.550000
1014.855211	336.700000
1017.012293	327.600000
1019.168851	318.600000
1021.321030	325.400000
1023.474616	288.100000
1025.627680	293.250000
1027.778295	285.350000
1029.930316	273.050000
1032.077965	272.750000
1034.228945	274.000000
1036.375554	278.150000
1038.521644	260.000000
1040.667216	262.750000
1042.814193	238.750000
1044.954881	248.600000
1047.098898	249.750000
1049.240476	248.150000
1051.381536	260.850000
1053.524002	261.950000
1055.660187	253.250000
1057.799699	262.300000
1059.934855	253.500000
1062.073336	257.350000
1064.207464	252.500000
1066.341078	266.450000
1068.476096	257.100000
1070.606766	256.900000
1072.738840	258.350000
1074.868485	248.750000
1076.997617	259.550000
1079.126239	252.300000
1081.254349	253.050000
1083.380033	246.500000
1085.505207	258.250000
1087.631785	248.750000
1089.754025	257.100000
1091.877670	243.600000
1093.996980	248.800000
1096.121519	254.900000
1098.239814	237.350000
1100.359512	251.600000
1102.476793	245.200000
1104.593566	234.750000
1106.709833	242.850000
1108.823685	229.900000
1110.938940	243.800000
1113.049873	240.150000
1115.164118	235.550000
1117.274042	241.800000
1119.385370	229.100000
1121.496193	233.450000
1123.602700	230.950000
1125.712516	213.650000
1127.818019	224.100000
1129.924924	228.850000
1132.025614	208.750000
1134.131516	209.300000
1136.233109	211.700000
1138.336105	218.550000
1140.438600	205.550000
1142.534888	202.700000
1144.636383	196.150000
1146.733576	210.800000
1148.830271	214.500000
1150.926467	190.200000
1153.022165	203.950000
1155.117366	205.000000
1157.210170	210.350000
1159.304376	211.400000
1161.392391	209.350000
1163.485604	205.900000
1165.572630	207.550000
1167.662954	211.400000
1169.748990	216.350000
1171.838324	207.050000
1173.921477	209.550000
1176.006033	216.300000
1178.091990	211.400000
1180.173665	207.600000
1182.256741	214.050000
1184.337432	204.800000
1186.417632	216.750000
1188.497340	209.900000
1190.576557	211.000000
1192.653391	202.350000
1194.727845	203.200000
1196.805591	211.350000
1198.879066	208.150000
1200.953943	215.100000
1203.024552	212.350000
1205.096562	215.650000
1207.166196	201.650000
1209.237231	201.150000
1211.307779	204.350000
1213.374065	195.750000
1215.441752	193.450000
1217.507066	197.800000
1219.573781	197.250000
1221.636241	202.750000
1223.701985	194.050000
1225.763475	197.450000
1227.826366	201.250000
1229.886888	193.500000
1231.946928	197.250000
1234.006484	209.350000
1236.063676	197.200000
1238.120385	204.800000
1240.174732	205.400000
1242.232360	207.150000
1244.287624	194.900000
1246.338649	203.100000
1248.391073	201.600000
1250.443017	211.100000
1252.492603	206.350000
1254.541710	218.800000
1256.590338	212.500000
1258.638488	210.800000
1260.686160	211.700000
1262.729601	222.850000
1264.776318	212.700000
1266.820681	217.500000
1268.864568	219.750000
1270.906103	215.700000
1272.945289	195.000000
1274.987748	206.150000
1277.025984	211.900000
1279.065619	209.700000
1281.104778	206.100000
1283.139720	222.150000
1285.176060	217.250000
1287.210056	216.950000
1289.245449	211.500000
1291.276629	208.800000
1293.309208	199.150000
1295.341315	203.400000
1297.371081	192.050000
1299.402244	202.700000
1301.429200	208.900000
1303.457555	203.550000
1305.481704	190.600000
1307.509119	174.550000
1309.532331	192.500000
1311.556941	194.800000
1313.579216	197.200000
1315.602889	190.500000
1317.624229	189.600000
1319.645102	191.000000
1321.665507	197.400000
1323.681719	197.500000
1325.699328	184.850000
1327.714609	187.050000
1329.733149	186.950000
1331.747499	189.550000
1333.759524	191.250000
1335.774807	207.050000
1337.785904	197.100000
1339.798397	202.100000
1341.806708	209.750000
1343.818275	202.950000
1345.823803	207.200000
1347.832586	199.400000
1349.837191	196.200000
1351.845050	196.650000
1353.852447	193.650000
1355.853813	184.800000
1357.856575	187.650000
1359.858878	190.900000
1361.860721	179.300000
1363.862104	174.200000
1365.861173	177.700000
1367.859785	168.500000
1369.857937	184.450000
1371.855632	185.450000
1373.849164	165.750000
1375.844091	179.000000
1377.838562	166.300000
1379.832576	168.600000
1381.824283	168.150000
1383.815534	168.750000
1385.804480	179.000000
1387.794821	177.350000
1389.784708	170.000000
1391.772290	181.250000
1393.759419	168.950000
1395.744246	168.750000
1397.730468	168.750000
1399.714389	164.500000
1401.697858	159.000000
1403.680875	171.950000
1405.661594	167.400000
1407.643707	183.050000
1409.623523	176.700000
1411.602889	165.600000
1413.578116	171.050000
1415.556581	177.950000
1417.532753	165.850000
1419.508475	165.150000
1421.483749	160.450000
1423.456731	178.350000
1425.429265	170.950000
1427.401351	173.250000
1429.372990	174.700000
1431.340500	161.400000
1433.313084	163.150000
1435.277862	165.250000
1437.247713	171.500000
1439.213439	174.550000
1441.180559	167.800000
1443.145395	168.350000
1445.106111	167.350000
1447.071895	170.900000
1449.031724	173.200000
1450.992947	168.350000
1452.955561	159.350000
1454.914061	165.800000
1456.872119	168.000000
1458.829735	165.650000
1460.786908	162.550000
1462.741806	176.800000
1464.698097	171.400000
1466.652113	165.300000
1468.605688	159.500000
1470.556991	152.800000
1472.509686	158.550000
1474.460110	159.250000
1476.410095	165.400000
1478.359641	169.450000
1480.306918	154.200000
1482.251927	170.200000
1484.198329	166.150000
1486.144293	156.850000
1488.089820	170.300000
1490.033081	173.600000
1491.975906	161.450000
1493.916468	156.600000
1495.858422	153.650000
1497.798113	160.200000
1499.737369	149.350000
1501.676191	169.800000
1503.612753	145.950000
1505.550706	151.200000
1507.486400	159.050000
1509.421661	149.350000
1511.354665	166.500000
1513.287237	152.700000
1515.219377	150.150000
1517.151085	160.850000
1519.080540	152.300000
1521.011385	158.200000
1522.941798	152.250000
1524.868139	156.500000
1526.795870	163.900000
1528.721352	156.350000
1530.646404	158.400000
1532.571027	156.550000
1534.495220	162.800000
1536.417167	170.100000
1538.340504	149.950000
1540.261594	164.150000
1542.180440	170.150000
1544.100676	164.050000
1546.018668	159.250000
1547.936234	175.350000
1549.851559	169.650000
1551.768273	175.500000
1553.680932	173.600000
1555.596794	190.050000
1557.510418	178.900000
1559.421803	188.150000
1561.334578	185.900000
1563.243303	211.450000
1565.153417	212.400000
1567.063108	222.100000
1568.972376	242.600000
1570.879409	245.400000
1572.784210	276.500000
1574.690400	304.850000
1576.594359	339.450000
1578.497896	376.900000
1580.401013	417.600000
1582.301900	487.850000
1584.204176	538.850000
1586.104223	586.300000
1588.005659	607.000000
1589.903061	572.300000
1591.800044	498.500000
1593.696609	422.750000
1595.594561	357.550000
1597.486679	302.700000
1599.381991	265.000000
1601.276885	225.350000
1603.169557	211.650000
1605.061812	217.750000
1606.951848	216.150000
1608.841468	195.800000
1610.730673	177.250000
1612.619462	180.300000
1614.506035	178.400000
1616.393995	175.050000
1618.277938	166.150000
1620.163268	163.100000
1622.048185	169.050000
1623.930888	175.200000
1625.814978	170.250000
1627.695056	163.000000
1629.576522	161.350000
1631.455776	161.150000
1633.336418	152.600000
1635.211255	152.350000
1637.091073	138.650000
1638.966887	139.200000
1640.842290	137.550000
1642.719079	148.900000
1644.590071	150.050000
1646.464246	147.450000
1648.334421	152.400000
1650.207777	131.050000
1652.078930	135.100000
1653.947881	139.450000
1655.818218	123.800000
1657.684562	135.300000
1659.552291	129.950000
1661.417821	129.100000
1663.284737	120.900000
1665.147663	127.450000
1667.011976	130.650000
1668.874092	139.750000
1670.735803	124.050000
1672.598899	128.900000
1674.459801	139.200000
1676.318510	130.900000
1678.176815	132.700000
1680.036504	124.800000
1681.890427	124.800000
1683.747523	132.450000
1685.604215	128.250000
1687.456932	132.900000
1689.312820	135.100000
1691.164734	127.900000
1693.016247	118.050000
1694.867359	120.350000
1696.718070	122.750000
1698.568381	124.600000
1700.416508	122.000000
1702.266019	120.200000
1704.109780	113.500000
1705.958492	117.000000
1707.801457	128.950000
1709.647588	133.950000
1711.489758	105.000000
1713.335093	116.250000
1715.174687	114.150000
1717.015665	114.950000
1718.858026	125.600000
1720.696430	122.400000
1722.536218	118.700000
1724.373831	128.150000
1726.211049	122.150000
1728.046093	118.400000
1729.882520	117.650000
1731.716774	128.850000
1733.550635	110.350000
1735.384101	136.650000
1737.213621	110.950000
1739.046301	110.650000
1740.875035	130.650000
1742.706928	126.650000
1744.534878	111.600000
1746.362436	110.200000
1748.189603	106.950000
1750.016378	110.350000
1751.842761	110.200000
1753.665208	120.100000
1755.490810	111.500000
1757.312477	117.550000
1759.135525	115.450000
1760.956413	122.550000
1762.776912	108.450000
1764.598791	120.250000
1766.414971	110.550000
1768.234303	116.200000
1770.049708	124.900000
1771.868264	115.400000
1773.682894	104.150000
1775.497137	121.300000
1777.310994	100.700000
1779.124464	107.300000
1780.935780	112.600000
1782.748478	111.600000
1784.560790	122.750000
1786.369183	117.150000
1788.178958	114.800000
1789.984818	108.950000
1791.793823	129.100000
1793.598915	113.050000
1795.405388	115.150000
1797.211476	128.150000
1799.013655	116.150000
1800.818978	110.350000
1802.620391	109.500000
1804.423186	111.500000
1806.222074	119.100000
1808.022343	104.150000
1809.822230	109.350000
1811.619975	120.650000
1813.417340	109.250000
1815.214324	127.200000
1817.010929	111.500000
1818.805393	110.050000
1820.601238	116.300000
1822.391427	119.100000
1824.186513	107.850000
1825.975946	127.950000
1827.768517	104.600000
1829.558952	116.500000
1831.347252	117.950000
1833.138688	101.850000
1834.924479	110.000000
1836.711649	100.350000
1838.496687	100.100000
1840.284858	109.000000
1842.069145	114.250000
1843.851301	102.650000
1845.634837	111.150000
1847.416244	109.950000
1849.199029	117.650000
1850.977935	113.750000
1852.758219	113.100000
1854.536378	114.250000
1856.315914	108.450000
1858.093326	115.700000
1859.868615	104.900000
1861.645281	120.600000
1863.419825	122.100000
1865.195746	107.850000
1866.966048	120.800000
1868.739477	107.350000
1870.510786	102.700000
1872.281724	100.750000
1874.054040	115.600000
1875.820742	120.700000
1877.590569	116.350000
1879.356533	125.400000
1881.125621	110.300000
1882.890847	118.450000
1884.655705	108.650000
1886.421939	115.000000
1888.184316	120.400000
1889.946324	95.800000
1891.707966	109.950000
1893.469240	105.400000
1895.230148	101.000000
1896.990688	107.700000
1898.749120	106.950000
1900.507185	103.250000
1902.263143	108.300000
1904.020477	106.550000
1905.777446	103.000000
1907.532308	106.950000
1909.285066	113.750000
1911.037459	108.550000
1912.791229	111.650000
1914.542895	96.800000
1916.292458	114.300000
1918.043398	106.400000
1919.793974	102.100000
1921.540712	108.400000
1923.288825	88.350000
1925.034840	102.000000
1926.782229	87.150000
1928.527520	104.050000
1930.270715	111.950000
1932.015284	104.100000
1933.757757	105.500000
1935.499871	112.750000
1937.241624	106.250000
1938.983017	91.650000
1940.722317	103.100000
1942.461258	102.700000
1944.199840	104.650000
1945.936331	109.950000
1947.672463	106.500000
1949.409971	103.050000
1951.143656	97.700000
1952.878716	83.350000
1954.611687	97.450000
1956.344302	98.750000
1958.076560	97.000000
1959.808462	111.800000
1961.538279	102.450000
1963.266010	102.400000
1964.995116	100.850000
1966.723866	99.500000
1968.450533	97.250000
1970.176846	114.050000
1971.904533	96.650000
1973.626683	102.000000
1975.351934	100.950000
1977.073378	98.450000
1978.797922	95.650000
1980.520387	96.450000
1982.239048	107.400000
1983.960809	101.450000
1985.678767	100.400000
1987.398098	91.700000
1989.113630	106.450000
1990.833982	98.250000
1992.550536	93.100000
1994.263293	95.850000
1995.979146	112.350000
1997.692927	112.750000
1999.406358	102.200000
2001.117718	101.100000
2002.830450	104.150000
2004.539392	96.150000
2006.251426	89.550000
2007.957951	106.600000
2009.667569	91.350000
2011.375119	96.850000
2013.082322	106.700000
2014.787459	95.600000
2016.492250	97.650000
2018.198412	107.400000
2019.900791	91.750000
2021.604543	88.500000
2023.306232	86.750000
2025.007575	96.900000
2026.708574	103.200000
2028.407511	99.750000
2030.107820	91.600000
2031.804353	98.300000
2033.502258	95.300000
2035.198105	89.450000
2036.897037	96.350000
2038.590483	94.850000
2040.285300	84.000000
2041.979774	97.450000
2043.670481	91.350000
2045.364270	94.950000
2047.054294	81.800000
2048.745688	107.100000
2050.435028	97.400000
2052.125740	91.550000
2053.812688	87.800000
2055.499296	94.800000
2057.187275	80.250000
2058.871494	90.050000
2060.557083	99.250000
2062.242333	91.150000
2063.925535	90.700000
2065.610107	92.300000
2067.289215	74.100000
2068.973110	101.300000
2070.651543	86.250000
2072.333054	95.150000
2074.010813	95.750000
2075.688236	96.550000
2077.367028	81.850000
2079.043777	83.500000
2080.718485	105.100000
2082.394563	101.650000
2084.068599	81.850000
2085.742301	95.550000
2087.415667	92.950000
2089.086994	93.150000
2090.757987	84.200000
2092.428646	89.000000
2094.098971	84.800000
2095.768962	105.050000
2097.436917	88.850000
2099.104538	89.800000
2100.770126	86.050000
2102.437082	87.850000
2104.102005	83.650000
2105.766596	93.900000
2107.429155	90.650000
2109.093082	91.050000
2110.754978	87.950000
2112.416544	95.100000
2114.077778	76.800000
2115.736983	100.750000
2117.395859	87.050000
2119.054405	98.400000
2120.712620	78.550000
2122.367113	86.450000
2124.024670	91.200000
2125.681897	82.200000
2127.335404	90.350000
2128.990278	94.350000
2130.641433	91.250000
2132.295651	91.950000
2133.946151	93.250000
2135.598019	86.200000
2137.244478	75.500000
2138.895691	87.900000
2140.543192	79.650000
2142.192059	95.050000
2143.838907	76.500000
2145.485430	81.600000
2147.131627	91.150000
2148.774116	91.650000
2150.419662	82.750000
2152.061502	83.500000
2153.706399	78.750000
2155.347591	87.800000
2156.988459	75.100000
2158.629004	96.300000
2160.267536	85.600000
2161.907434	83.550000
2163.543632	91.900000
2165.181196	91.050000
2166.818438	85.050000
2168.453670	90.600000
2170.088580	80.700000
2171.723169	80.350000
2173.357437	83.450000
2174.988011	99.350000
2176.621637	80.150000
2178.251571	82.950000
2179.882870	91.600000
2181.512164	81.350000
2183.141139	85.700000
2184.769794	84.450000
2186.398130	81.850000
2188.024463	89.850000
2189.650478	91.800000
2191.274492	84.550000
2192.899871	82.600000
2194.523249	92.450000
2196.147992	93.300000
2197.769054	88.750000
2199.389799	93.700000
2201.011908	82.950000
2202.632020	95.700000
2204.250136	91.700000
2205.867936	75.750000
2207.485420	86.400000
2209.102590	82.650000
2210.719443	81.650000
2212.335982	91.100000
2213.950528	90.300000
2215.563081	84.050000
2217.176998	94.400000
2218.788924	81.050000
2220.402213	82.950000
2222.013512	95.600000
2223.622821	86.550000
2225.233493	85.150000
2226.842177	88.500000
2228.450549	67.550000
2230.056934	85.050000
2231.664681	89.950000
2233.270443	76.750000
2234.875893	94.550000
2236.479358	79.850000
2238.084186	88.350000
2239.687030	87.800000
2241.287891	82.300000
2242.890115	82.100000
2244.490357	73.850000
2246.091961	84.700000
2247.689912	74.400000
2249.289226	72.950000
2250.886560	87.600000
2252.483586	82.600000
2254.081973	67.250000
2255.676713	88.000000
2257.269475	91.800000
2258.863600	74.800000
2260.459086	73.700000
2262.050927	83.800000
2263.642462	74.000000
2265.235359	73.000000
2266.822946	67.950000
2268.415229	78.100000
2270.002205	64.200000
2271.592210	79.300000
2273.176910	75.800000
2274.766304	89.450000
2276.350395	80.350000
2277.935848	80.450000
2279.519332	85.450000
2281.105841	85.600000
2282.688717	72.300000
2284.271290	78.800000
2285.853559	75.900000
2287.432198	83.100000
2289.013862	85.400000
2290.591897	82.500000
2292.172955	69.100000
2293.750386	75.850000
2295.325854	82.600000
2296.904344	85.300000
2298.479210	85.200000
2300.053775	81.000000
2301.628039	85.950000
2303.202003	89.600000
2304.775667	71.200000
2306.349031	87.650000
2307.918776	80.400000
2309.488222	89.050000
2311.060686	88.150000
2312.627876	88.950000
2314.198083	80.800000
2315.764677	82.750000
2317.332629	82.850000
2318.898627	88.650000
2320.464327	81.100000
2322.029729	85.700000
2323.593178	92.100000
2325.157986	101.100000
2326.719186	84.300000
2328.283399	97.050000
2329.842352	113.500000
2331.404318	96.400000
2332.964334	93.350000
2334.524054	75.400000
2336.081826	93.050000
2337.639302	88.200000
2339.196484	73.000000
2340.751718	88.100000
2342.306659	81.400000
2343.861305	77.250000
2345.415658	79.200000
2346.969717	85.350000
2348.523483	74.850000
2350.075304	83.200000
2351.625182	90.500000
2353.178069	93.150000
2354.725712	81.450000
2356.276364	86.050000
2357.823424	79.050000
2359.371842	77.300000
2360.919969	98.400000
2362.464507	85.250000
2364.010403	83.700000
2365.554361	87.300000
2367.099675	78.900000
2368.641405	78.100000
2370.184493	78.850000
2371.725644	81.050000
2373.266506	90.000000
2374.807079	82.150000
2376.347363	68.800000
2377.887358	82.650000
2379.423774	89.300000
2380.963192	84.450000
2382.499033	81.100000
2384.036231	74.600000
2385.569853	87.450000
2387.106475	72.900000
2388.641167	80.150000
2390.173929	72.450000
2391.706404	74.500000
2393.236951	76.850000
2394.770496	72.250000
2396.298830	82.400000
2397.828520	85.600000
2399.357925	89.800000
2400.887045	84.350000
2402.415879	80.000000
2403.939509	91.050000
2405.467774	77.450000
2406.990837	84.300000
2408.518533	87.500000
2410.039390	82.750000
2411.564879	74.750000
2413.086809	86.850000
2414.610093	85.450000
2416.131457	86.650000
2417.650901	80.200000
2419.171700	78.500000
2420.690580	104.400000
2422.209179	86.650000
2423.725859	88.000000
2425.243895	79.600000
2426.761649	84.900000
2428.275851	85.300000
2429.789774	78.700000
2431.303416	86.950000
2432.818412	91.150000
2434.329861	86.450000
2435.842663	111.800000
2437.353553	97.350000
2438.864164	94.000000
2440.372863	99.100000
2441.884548	88.650000
2443.392690	103.700000
2444.900554	104.750000
2446.408139	107.450000
2447.912185	98.700000
2449.419215	107.500000
2450.924337	111.250000
2452.429182	106.850000
2453.932120	109.450000
2455.434782	113.250000
2456.937167	110.400000
2458.437647	117.600000
2459.939480	119.950000
2461.439408	115.300000
2462.939061	119.500000
2464.438439	107.550000
2465.935914	101.950000
2467.431487	110.750000
2468.930040	99.450000
2470.425065	94.900000
2471.921442	99.850000
2473.414293	98.900000
2474.908497	91.800000
2476.402427	103.300000
2477.892833	89.250000
2479.386217	95.300000
2480.877703	92.000000
2482.367292	93.550000
2483.856609	103.500000
2485.344030	84.450000
2486.834427	91.050000
2488.321306	78.300000
2489.809536	76.750000
2491.294249	82.450000
2492.778692	79.000000
2494.264487	78.900000
2495.748390	87.500000
2497.233643	89.700000
2498.713763	93.250000
2500.196856	83.050000
2501.678058	78.700000
2503.158991	87.550000
2504.638035	76.700000
2506.116810	80.350000
2507.595317	76.500000
2509.073555	68.950000
2510.551526	96.450000
2512.025991	87.400000
2513.503426	78.400000
2514.977356	86.800000
2516.452638	93.200000
2517.927652	88.650000
2519.399165	76.600000
2520.872029	72.500000
2522.343010	82.600000
2523.815341	65.900000
2525.282558	72.000000
2526.752742	82.550000
2528.221045	81.850000
2529.689083	85.500000
2531.156855	90.450000
2532.624363	83.750000
2534.091607	91.700000
2535.555358	83.100000
2537.020459	88.550000
2538.483683	85.550000
2539.948256	86.950000
2541.409341	72.550000
2542.871775	86.100000
2544.333946	86.100000
2545.792630	88.350000
2547.255887	78.150000
2548.714047	93.400000
2550.173557	76.750000
2551.627972	89.700000
2553.086958	79.200000
2554.544072	95.050000
2555.999314	84.700000
2557.454296	89.600000
2558.907408	81.750000
2560.361869	88.150000
2561.814461	85.600000
2563.266793	81.600000
2564.717257	83.500000
2566.170678	72.600000
2567.619016	75.050000
2569.070309	86.600000
2570.519737	77.450000
2571.965692	97.150000
2573.414602	77.000000
2574.860042	69.450000
2576.306829	88.750000
2577.751753	87.200000
2579.196420	71.350000
2580.642434	84.300000
2582.084982	82.700000
2583.528876	92.050000
2584.969306	88.000000
2586.411084	82.100000
2587.851002	79.600000
2589.292267	85.300000
2590.730070	96.300000
2592.170823	78.950000
2593.606514	82.300000
2595.045153	99.150000
2596.481936	88.650000
2597.916863	81.900000
2599.354737	95.350000
2600.787554	88.500000
2602.221718	70.950000
2603.654028	80.500000
2605.087684	89.400000
2606.519487	88.300000
2607.951036	81.300000
2609.382332	95.500000
2610.811777	92.200000
2612.240969	93.350000
2613.668310	82.600000
2615.096998	93.000000
2616.525433	88.500000
2617.950422	99.500000
2619.376756	89.950000
2620.801243	89.300000
2622.227075	88.400000
2623.649463	78.850000
2625.073196	93.100000
2626.495084	99.750000
2627.916721	86.400000
2629.336514	102.000000
2630.757652	105.600000
2632.178540	108.250000
2633.595989	103.150000
2635.016378	109.050000
2636.433330	118.100000
2637.850034	120.450000
2639.266489	120.300000
2640.682696	128.800000
2642.098655	126.100000
2643.512773	151.250000
2644.926643	154.000000
2646.338674	141.400000
2647.752050	161.550000
2649.161996	172.000000
2650.574878	172.150000
2651.984331	184.200000
2653.393538	196.800000
2654.800909	210.200000
2656.211214	219.400000
2657.619683	237.150000
2659.026318	248.050000
2660.432707	262.800000
2661.837262	297.550000
2663.243161	320.550000
2664.647227	334.050000
2666.051048	356.050000
2667.454625	380.550000
2668.856371	417.500000
2670.259460	442.650000
2671.659131	477.400000
2673.060146	504.950000
2674.457745	518.550000
2675.858273	559.700000
2677.255387	567.700000
2678.653844	575.900000
2680.050474	596.400000
2681.446861	577.250000
2682.843006	598.950000
2684.237325	575.500000
2685.632987	566.250000
2687.025240	532.700000
2688.418835	520.150000
2689.810606	510.750000
2691.203720	483.700000
2692.595010	449.200000
2693.984477	425.200000
2695.373704	374.650000
2696.762692	351.000000
2698.153021	313.300000
2699.538367	302.350000
2700.926636	271.800000
2702.313085	259.550000
2703.699295	235.050000
2705.085266	226.500000
2706.467839	207.000000
2707.851754	203.750000
2709.235430	174.250000
2710.618869	170.800000
2711.998912	175.550000
2713.380297	153.250000
2714.759867	146.300000
2716.140777	136.600000
2717.519873	123.150000
2718.897155	129.650000
2720.275778	115.100000
2721.652587	128.000000
2723.029161	111.650000
2724.405499	108.250000
2725.780025	104.750000
2727.155892	118.700000
2728.528373	110.300000
2729.903769	103.900000
2731.274205	92.000000
2732.645981	106.350000
2734.017524	98.100000
2735.387258	94.800000
2736.758332	89.850000
2738.127599	95.300000
2739.496632	82.150000
2740.863859	90.100000
2742.230852	86.100000
2743.597613	91.700000
2744.964141	84.200000
2746.328865	94.750000
2747.693356	75.600000
2749.057616	71.050000
2750.421643	91.300000
2751.785438	89.650000
2753.145861	88.400000
2754.509193	91.950000
2755.867583	71.750000
2757.228883	77.650000
2758.586813	69.650000
2759.947651	70.050000
2761.306689	73.600000
2762.662360	73.150000
2764.020938	84.500000
2765.376149	73.300000
2766.731131	67.300000
2768.084316	80.000000
2769.440408	66.050000
2770.793136	70.850000
2772.145636	64.100000
2773.497907	59.550000
2774.851516	64.800000
2776.201765	60.650000
2777.550219	58.400000
2778.901578	57.150000
2780.249579	54.450000
2781.598917	66.750000
2782.946463	57.850000
2784.293783	67.050000
2785.640875	62.200000
2786.986177	73.850000
2788.331253	61.800000
2789.676103	66.200000
2791.020727	63.450000
2792.361999	68.500000
2793.704608	62.550000
2795.046993	68.900000
2796.389152	58.850000
2797.727962	75.400000
2799.069672	71.450000
2800.408033	66.750000
2801.747732	59.900000
2803.085646	64.500000
2804.421774	76.150000
2805.757680	66.250000
2807.094923	61.050000
2808.430382	69.150000
2809.765617	55.400000
2811.099071	71.050000
2812.433861	67.700000
2813.765311	60.000000
2815.099656	58.650000
2816.429102	67.300000
2817.759886	74.750000
2819.090449	73.600000
2820.419232	67.900000
2821.749351	65.000000
2823.077692	64.350000
2824.405812	63.550000
2825.732154	52.750000
2827.059832	58.050000
2828.384178	63.050000
2829.709860	71.500000
2831.033766	74.800000
2832.357452	61.750000
2833.682474	65.300000
2835.004167	62.250000
2836.325641	68.250000
2837.646895	62.600000
2838.967932	62.350000
2840.287195	63.500000
2841.607794	56.250000
2842.926621	65.200000
2844.245231	55.700000
2845.562069	68.800000
2846.878690	60.950000
2848.195094	69.050000
2849.509728	50.500000
2850.825697	51.950000
2852.138347	64.150000
2853.452331	60.750000
2854.766099	55.450000
2856.079650	60.500000
2857.391435	54.400000
2858.701453	61.750000
2860.012806	68.250000
2861.320844	56.600000
2862.630216	58.300000
2863.939373	54.350000
2865.248316	56.600000
2866.555494	59.000000
2867.860910	59.400000
2869.167659	48.050000
2870.472647	58.150000
2871.777420	51.750000
2873.080433	52.600000
2874.386326	57.350000
2875.687365	55.050000
2876.989737	61.750000
2878.290351	60.000000
2879.592297	59.500000
2880.894031	49.600000
2882.192461	60.050000
2883.492224	50.900000
2884.790230	57.350000
2886.088024	57.950000
2887.384062	56.900000
2888.681432	67.950000
2889.977048	63.800000
2891.272452	62.250000
2892.567645	58.300000
2893.859541	54.800000
2895.154312	75.300000
2896.445788	54.550000
2897.738596	64.350000
2899.031194	60.450000
2900.320497	55.750000
2901.611134	63.750000
2902.900019	60.800000
2904.190236	66.900000
2905.477162	67.050000
2906.765420	51.150000
2908.051929	63.450000
2909.338229	52.250000
2910.624321	53.850000
2911.908665	46.500000
2913.195881	66.050000
2914.478270	39.000000
2915.761991	65.500000
2917.043965	58.100000
2918.325733	48.850000
2919.605755	59.150000
2920.888648	47.950000
2922.169794	61.500000
2923.447659	52.850000
2924.728393	54.550000
2926.005847	46.150000
2927.283094	58.750000
2928.558599	62.800000
2929.836972	50.900000
2931.110531	43.750000
2932.386957	56.450000
2933.661642	56.900000
2934.934586	52.250000
2936.208862	46.150000
2937.481398	44.500000
2938.753729	62.900000
2940.022788	69.550000
2941.294712	63.400000
2942.564898	40.250000
2943.834880	41.900000
2945.104659	49.050000
2946.372702	60.850000
2947.639008	68.350000
2948.905112	63.850000
2950.172547	60.350000
2951.438246	56.300000
2952.703744	62.800000
2953.969039	60.350000
2955.231069	68.600000
2956.494429	51.850000
2957.757588	59.550000
2959.019015	54.200000
2960.281771	44.650000
2961.542795	57.500000
2962.802089	48.200000
2964.061182	53.400000
2965.320076	45.900000
2966.578769	60.450000
2967.837261	40.700000
2969.094025	47.600000
2970.350590	48.850000
2971.605426	49.550000
2972.861592	56.550000
2974.114503	55.400000
2975.368742	62.750000
2976.622783	55.000000
2977.875098	60.700000
2979.127215	50.450000
2980.377607	44.750000
2981.630854	51.100000
2982.879324	42.000000
2984.130649	47.250000
2985.378724	67.400000
2986.626602	52.400000
2987.874284	41.600000
2989.121768	47.550000
2990.367531	44.100000
2991.613098	49.850000
2992.859992	46.500000
2994.103642	51.350000
2995.348619	57.400000
2996.590354	55.700000
2997.834940	43.400000
2999.077807	45.250000
3000.317433	45.050000
3001.559909	52.150000
3002.799145	57.600000
3004.039709	53.050000
3005.278556	56.700000
3006.517209	62.200000
3007.754146	45.250000
3008.992411	59.700000
3010.228960	56.750000
3011.465316	48.500000
3012.701478	52.300000
3013.935926	58.800000
3015.170181	58.950000
3016.404244	51.050000
3017.636593	56.900000
3018.867231	51.050000
3020.100715	49.950000
3021.332488	53.850000
3022.562549	44.150000
3023.792419	63.100000
3025.020579	42.050000
3026.250066	57.550000
3027.477843	48.750000
3028.705429	54.450000
3029.934341	52.250000
3031.158511	48.500000
3032.385524	43.150000
3033.609314	54.300000
3034.834429	44.000000
3036.057839	50.700000
3037.281058	54.850000
3038.502572	39.850000
3039.726927	45.400000
3040.946547	52.450000
3042.167493	44.450000
3043.388249	50.250000
3044.607303	60.500000
3045.827681	48.500000
3047.044843	41.900000
3048.263330	49.550000
3049.480116	52.400000
3050.696713	43.650000
3051.913123	49.100000
3053.126319	60.500000
3054.342353	50.550000
3055.555175	43.500000
3056.770834	39.800000
3057.981771	57.850000
3059.194032	46.000000
3060.406106	51.850000
3061.617994	47.300000
3062.828185	48.650000
3064.038189	46.150000
3065.248007	56.850000
3066.456129	57.800000
3067.664066	39.400000
3068.870307	36.500000
3070.077873	47.750000
3071.283744	48.500000
3072.489430	49.250000
3073.694932	42.750000
3074.898740	50.850000
3076.103872	34.300000
3077.307311	54.850000
3078.509059	59.650000
3079.710622	51.800000
3080.912002	44.100000
3082.113198	43.700000
3083.312704	50.200000
3084.512027	40.800000
3085.712673	47.500000
3086.911629	39.450000
3088.107391	44.750000
3089.305981	56.450000
3090.501378	49.600000
3091.698099	43.850000
3092.891627	52.050000
3094.087983	45.350000
3095.282652	43.150000
3096.474131	44.450000
3097.669942	36.950000
3098.861058	42.550000
3100.053498	50.700000
3101.242749	38.000000
3102.434827	47.050000
3103.625221	39.200000
3104.812429	48.500000
3106.000959	39.500000
3107.190812	45.250000
3108.377480	47.350000
3109.563969	45.700000
3110.750279	38.400000
3111.937910	45.000000
3113.122359	45.750000
3114.305129	42.850000
3115.490721	46.650000
3116.674634	33.350000
3117.856867	39.900000
3119.038923	42.400000
3120.220800	50.150000
3121.402499	53.000000
3122.582521	42.900000
3123.760866	44.800000
3124.942031	48.200000
3126.120021	43.650000
3127.297834	53.250000
3128.475470	39.000000
3129.651431	50.400000
3130.827216	43.000000
3132.004321	35.150000
3133.179753	43.950000
3134.353511	38.750000
3135.525596	38.500000
3136.699003	37.450000
3137.872233	42.550000
3139.043792	50.450000
3140.216671	43.750000
3141.386383	32.150000
3142.557416	35.500000
3143.726778	41.050000
3144.894471	35.450000
3146.064979	48.000000
3147.230829	41.400000
3148.400987	45.300000
3149.566488	38.650000
3150.731816	41.700000
3151.896970	42.750000
3153.061951	42.550000
3154.228251	40.900000
3155.389898	42.550000
3156.552866	51.450000
3157.715661	44.250000
3158.878283	26.450000
3160.039239	51.250000
3161.200024	41.450000
3162.360636	51.400000
3163.519584	40.700000
3164.678361	36.350000
3165.836965	34.400000
3166.995398	44.300000
3168.153660	35.850000
3169.310259	37.400000
3170.465197	33.200000
3171.621454	33.900000
3172.776050	39.350000
3173.930476	35.050000
3175.083242	47.350000
3176.235837	41.100000
3177.388263	41.050000
3178.540518	43.700000
3179.692604	55.400000
3180.841543	47.100000
3181.993289	46.700000
3183.143378	44.750000
3184.291810	32.400000
3185.440072	44.700000
3186.588166	43.100000
3187.736091	51.050000
3188.882360	45.350000
3190.028461	52.600000
3191.172908	45.800000
3192.317187	43.300000
3193.461297	35.900000
3194.606726	36.000000
3195.749016	41.300000
3196.891139	45.850000
3198.033094	50.450000
3199.174882	35.850000
3200.316503	38.450000
3201.454989	47.750000
3202.594792	38.000000
3203.735912	38.850000
3204.873899	31.700000
3206.010235	41.250000
3207.146407	45.300000
3208.283895	36.750000
3209.419735	43.800000
3210.556892	34.700000
3211.689436	34.850000
3212.826261	32.050000
3213.958476	30.350000
3215.092007	36.700000
3216.225373	50.650000
3217.355613	42.250000
3218.488650	36.900000
3219.618561	35.500000
3220.749788	52.000000
3221.877891	50.450000
3223.008790	43.850000
3224.138045	32.850000
3225.265657	41.200000
3226.390146	49.800000
3227.518911	36.150000
3228.644554	43.600000
3229.770034	35.950000
3230.893873	46.750000
3232.020507	52.450000
3233.142543	52.950000
3234.265895	56.950000
3235.389085	42.800000
3236.512112	45.100000
3237.633501	42.850000
3238.754727	44.350000
3239.874315	52.850000
3240.993742	47.500000
3242.111532	54.700000
3243.232113	51.600000
3244.349581	59.050000
3245.466888	59.850000
3246.584035	64.250000
3247.699545	59.550000
3248.816371	57.550000
3249.930087	72.150000
3251.046592	62.950000
3252.161462	47.000000
3253.273224	49.500000
3254.384827	49.350000
3255.497745	57.600000
3256.610503	58.650000
3257.720155	67.800000
3258.831122	53.200000
3259.941930	42.950000
3261.051106	40.050000
3262.158651	38.900000
3263.267511	41.950000
3264.376212	30.850000
3265.481811	47.150000
3266.588725	58.750000
3267.694009	34.250000
3268.800607	25.850000
3269.904105	39.450000
3271.008917	50.450000
3272.113572	51.600000
3273.215129	52.600000
3274.316529	36.400000
3275.419243	50.000000
3276.521801	38.550000
3277.621262	30.450000
3278.723507	30.400000
3279.822656	35.800000
3280.920180	28.550000
3282.017550	40.050000
3283.117701	36.500000
3284.214760	32.900000
3285.311663	30.850000
3286.408411	45.500000
3287.500600	36.500000
3288.597039	33.600000
3289.691855	34.650000
3290.786517	37.700000
3291.879556	37.500000
3292.972442	40.000000
3294.063707	34.800000
3295.156285	43.100000
3296.247243	41.850000
3297.336581	33.650000
3298.425766	40.150000
3299.516263	42.700000
3300.603677	27.250000
3301.690937	35.950000
3302.779510	24.600000
3303.867930	32.750000
3304.951804	26.600000
3306.039919	34.950000
3307.124952	37.500000
3308.208370	38.050000
3309.293100	35.700000
3310.376214	33.900000
3311.460641	42.400000
3312.541989	43.950000
3313.624649	30.050000
3314.705694	31.400000
3315.786589	22.800000
3316.865871	39.350000
3317.945002	35.900000
3319.025445	39.200000
3320.102813	33.650000
3321.181493	31.350000
3322.258561	41.750000
3323.335479	35.850000
3324.410787	21.000000
3325.485945	36.400000
3326.562414	36.300000
3327.635813	40.300000
3328.709062	40.350000
3329.783623	41.250000
3330.856575	34.250000
3331.927918	25.850000
3333.000572	22.050000
3334.070159	36.100000
3335.141058	36.650000
3336.210349	40.850000
3337.280950	24.750000
3338.349946	25.700000
3339.417335	22.150000
3340.483119	37.000000
3341.553129	28.900000
3342.620076	43.200000
3343.683961	26.700000
3344.750613	36.950000
3345.815662	30.950000
3346.879107	26.400000
3347.942406	31.250000
3349.005558	53.650000
3350.068564	29.550000
3351.131424	32.100000
3352.192681	40.350000
3353.250882	43.150000
3354.313304	29.650000
3355.372670	48.300000
3356.431890	27.300000
3357.492419	35.950000
3358.548440	39.800000
3359.607224	33.800000
3360.661501	45.450000
3361.718542	27.550000
3362.773984	28.600000
3363.830736	37.950000
3364.885889	40.800000
3365.939445	42.250000
3366.991404	35.700000
3368.046126	38.250000
3369.097798	33.250000
3370.149327	34.300000
3371.202164	27.800000
3372.251954	33.600000
3373.303053	37.050000
3374.351105	40.050000
3375.401918	36.700000
3376.449685	43.700000
3377.497310	33.850000
3378.544793	31.450000
3379.590683	42.750000
3380.637881	40.600000
3381.682037	39.600000
3382.728951	32.900000
3383.774273	30.500000
3384.816554	24.550000
3385.858694	41.500000
3386.902143	37.700000
3387.945450	25.550000
3388.987167	30.350000
3390.028744	38.350000
3391.070179	37.050000
3392.110026	25.900000
3393.148284	27.400000
3394.187850	32.250000
3395.227276	27.950000
3396.265114	27.650000
3397.301365	34.850000
3398.337477	41.400000
3399.374895	44.850000
3400.409281	34.400000
3401.444975	43.850000
3402.480529	27.750000
3403.513052	29.550000
3404.548327	28.250000
3405.580573	36.150000
3406.612680	31.000000
3407.643203	27.150000
3408.675033	30.900000
3409.706725	31.700000
3410.735389	37.100000
3411.763916	27.550000
3412.793749	32.550000
3413.823445	34.600000
3414.850115	30.750000
3415.878091	46.450000
3416.903044	32.600000
3417.930746	35.550000
3418.955424	47.050000
3419.981409	38.700000
3421.005815	33.050000
3422.030084	29.300000
3423.052774	42.450000
3424.075328	33.150000
3425.099188	35.600000
3426.120028	31.050000
3427.140732	24.800000
3428.162742	37.000000
3429.181734	31.950000
3430.200591	34.700000
3431.220754	23.350000
3432.237900	22.600000
