-117.018713	23.800000
-114.349113	2.200000
-111.682448	1.900000
-109.016535	-5.500000
-106.353555	4.000000
-103.689144	-5.300000
-101.027664	21.700000
-98.364755	-3.600000
-95.706952	8.100000
-93.047720	-16.600000
-90.389236	20.200000
-87.733677	4.300000
-85.076688	0.600000
-82.424798	8.200000
-79.771478	10.300000
-77.121077	-5.800000
-74.469248	10.700000
-71.822509	-18.500000
-69.174340	14.900000
-66.526914	11.100000
-63.882403	7.800000
-61.236462	5.900000
-58.595603	6.400000
-55.953315	-10.400000
-53.313936	14.900000
-50.673128	-2.200000
-48.033059	16.400000
-45.398064	-4.500000
-42.761639	9.800000
-40.128117	-7.100000
-37.493167	5.400000
-34.863283	-8.200000
-32.229805	10.800000
-29.601390	9.300000
-26.973709	11.400000
-24.344599	-2.700000
-21.720547	10.400000
-19.092904	1.500000
-16.470316	32.900000
-13.848458	18.100000
-11.227331	41.300000
-8.606935	84.900000
-5.989426	343.300000
-3.370489	1000.500000
-0.754438	2457.300000
1.860886	3643.100000
4.475481	1555.200000
7.087195	123.300000
9.700337	28.600000
12.308445	-14.300000
14.920134	26.800000
17.526793	3.800000
20.134881	7.900000
22.742243	-1.700000
25.344581	9.700000
27.950498	-31.400000
30.551392	9.600000
33.153714	-7.800000
35.751018	14.500000
38.351899	-5.200000
40.947764	18.800000
43.545057	-25.200000
46.141632	-13.600000
48.733197	5.700000
51.326190	-1.800000
53.916322	3.100000
56.507881	16.200000
59.096582	6.100000
61.686709	10.300000
64.271837	10.500000
66.858393	16.100000
69.444235	-11.600000
72.027222	7.100000
74.611637	1.300000
77.188923	9.000000
79.769775	-11.000000
82.347778	16.900000
84.925070	-1.800000
87.503790	1.900000
90.077527	3.600000
92.652691	8.700000
95.225012	-10.300000
97.796626	22.800000
100.365399	-2.600000
102.935599	13.800000
105.502960	3.800000
108.071748	-5.600000
110.637699	-7.000000
113.200815	20.900000
115.767487	13.400000
118.324937	15.000000
120.888073	-4.400000
123.446250	19.200000
126.007981	8.200000
128.564755	65.200000
131.122955	66.900000
133.676203	100.200000
136.228753	146.000000
138.784853	191.800000
141.336005	239.700000
143.886460	316.700000
146.436217	342.400000
148.983155	379.700000
151.529398	401.500000
154.077066	420.000000
156.624038	424.200000
159.166075	419.700000
161.707418	400.100000
164.248068	414.400000
166.790144	400.100000
169.329408	382.500000
171.865863	388.100000
174.401628	403.800000
176.938818	391.400000
179.475317	408.800000
182.009010	374.700000
184.539899	364.600000
187.070100	359.000000
189.601727	372.200000
192.130552	371.900000
194.656578	380.900000
197.181918	360.800000
199.708683	364.100000
202.232652	356.900000
204.755936	375.600000
207.278534	349.900000
209.798340	373.400000
212.317463	357.400000
214.835903	369.400000
217.355768	371.600000
219.868630	400.200000
222.385024	375.500000
224.900737	412.800000
227.411559	384.400000
229.923806	431.300000
232.433270	423.000000
234.942056	410.700000
237.450164	405.600000
239.959696	416.400000
242.464347	415.500000
244.968322	430.100000
247.473721	410.800000
249.974245	439.500000
252.478292	419.700000
254.975369	414.000000
257.475969	377.300000
259.973797	390.200000
262.470952	403.700000
264.967434	398.100000
267.459053	409.100000
269.954192	420.100000
272.446564	416.100000
274.938266	411.200000
277.427205	423.000000
279.917567	429.200000
282.405168	415.700000
284.890009	438.200000
287.378365	440.700000
289.859781	436.500000
292.344711	406.800000
294.824796	465.400000
297.308393	459.500000
299.787147	491.500000
302.267324	472.300000
304.744750	483.600000
307.221512	478.100000
309.697610	482.800000
312.170960	448.500000
314.643649	440.300000
317.115676	445.200000
319.587041	454.200000
322.055663	465.800000
324.523625	448.000000
326.993010	426.900000
329.457572	419.900000
331.925638	383.400000
334.388883	409.300000
336.851472	391.800000
339.313404	369.800000
341.774679	368.600000
344.233219	365.000000
346.693183	362.900000
349.150413	356.500000
351.606989	346.100000
354.062911	346.900000
356.516103	322.600000
358.970718	345.900000
361.420531	336.500000
363.873840	338.500000
366.322350	331.800000
368.770210	334.800000
371.219492	314.100000
373.663979	324.900000
376.109890	290.200000
378.555150	326.800000
380.997692	302.000000
383.439586	314.700000
385.880832	282.900000
388.319364	309.600000
390.759316	303.800000
393.196555	294.000000
395.631083	288.400000
398.069097	312.800000
400.502336	290.800000
402.936995	274.100000
405.366882	266.400000
407.800254	278.000000
410.228856	281.000000
412.656816	295.600000
415.086198	265.500000
417.510814	268.700000
419.936852	248.000000
422.362249	266.500000
424.787006	255.100000
427.207004	293.100000
429.628424	242.700000
432.047148	252.300000
434.467292	235.800000
436.884741	257.100000
439.303610	231.400000
441.719785	228.800000
444.131214	234.400000
446.546119	224.500000
448.958335	226.900000
451.369916	239.600000
453.780863	181.300000
456.189123	197.900000
458.596752	186.900000
461.003748	203.200000
463.410113	181.400000
465.813795	204.800000
468.216847	179.200000
470.619269	205.900000
473.021061	192.100000
475.420175	227.400000
477.820709	198.700000
480.220614	210.300000
482.615797	195.300000
485.014446	211.600000
487.408374	199.600000
489.801677	253.400000
492.194355	251.000000
494.586407	286.200000
496.979877	296.000000
499.368635	365.500000
501.754727	438.000000
504.142239	595.400000
506.529128	793.300000
508.913352	1179.600000
511.298996	1654.000000
513.681978	2341.900000
516.062299	3044.200000
518.444039	3537.100000
520.823120	3494.700000
523.203619	3078.500000
525.581462	2506.200000
527.956648	2053.200000
530.331218	1689.500000
532.707205	1471.600000
535.080540	1265.400000
537.455292	1126.100000
539.825358	994.400000
542.194810	932.700000
544.565679	823.700000
546.931867	768.000000
549.299474	731.300000
551.664435	688.100000
554.028784	623.100000
556.392519	584.800000
558.757672	563.500000
561.118153	567.200000
563.480052	536.100000
565.839310	515.600000
568.195930	494.500000
570.555996	472.100000
572.909370	449.700000
575.266189	462.700000
577.620373	438.400000
579.973948	426.900000
582.326916	396.100000
584.677251	404.800000
587.029004	370.300000
589.374080	384.800000
591.724619	350.900000
594.068486	362.300000
596.417814	333.300000
598.762493	349.600000
601.104548	344.700000
603.448020	343.600000
605.788869	342.200000
608.129115	345.900000
610.466741	334.300000
612.807802	368.100000
615.144226	386.200000
617.482066	419.500000
619.817289	374.000000
622.149895	386.200000
624.483919	348.800000
626.815328	374.200000
629.146139	304.600000
631.476352	335.400000
633.805968	324.300000
636.130960	329.000000
638.461394	312.900000
640.787207	344.900000
643.110412	317.400000
645.435034	327.600000
647.757050	302.200000
650.078472	311.900000
652.397291	298.900000
654.717527	308.900000
657.037169	286.700000
659.354210	294.200000
661.670659	289.400000
663.984510	304.500000
666.299777	295.600000
668.612447	293.200000
670.926532	284.400000
673.236017	298.200000
675.546918	287.400000
677.855226	313.400000
680.162946	282.100000
682.472080	286.600000
684.776622	276.600000
687.080578	280.000000
689.383948	267.600000
691.688732	275.200000
693.988929	233.700000
696.290542	263.700000
698.591569	246.400000
700.888015	264.100000
703.185876	244.000000
705.483153	255.300000
707.779847	249.900000
710.071965	247.100000
712.367494	232.400000
714.658449	246.400000
716.950819	210.300000
719.240614	233.400000
721.529828	248.000000
723.818463	235.400000
726.104525	213.300000
728.392002	224.200000
730.676907	227.000000
732.961235	229.200000
735.242994	218.100000
737.526167	230.100000
739.808763	206.900000
742.086803	231.400000
744.366257	204.000000
746.645136	230.500000
748.923440	229.300000
751.197193	209.000000
753.472361	215.000000
755.746955	228.700000
758.018990	206.500000
760.292438	225.900000
762.563328	209.000000
764.831662	238.700000
767.101409	205.300000
769.368601	203.000000
771.635224	218.700000
773.901276	244.100000
776.164777	221.200000
778.429691	237.600000
780.694035	194.900000
782.953850	215.300000
785.215077	188.400000
787.475737	224.300000
789.733851	209.400000
791.989420	218.100000
794.248379	213.400000
796.500840	240.400000
798.758668	216.000000
801.011977	222.000000
803.262746	217.000000
805.514927	226.800000
807.764569	201.200000
810.015623	235.100000
812.262167	224.400000
814.510122	249.200000
816.755543	217.700000
819.002375	219.400000
821.248646	197.500000
823.490412	206.600000
825.735562	186.500000
827.974239	219.900000
830.216298	190.300000
832.453859	201.100000
834.692832	200.300000
836.929278	224.000000
839.167135	209.400000
841.402467	211.900000
843.635276	204.000000
845.869495	218.000000
848.101193	201.600000
850.332336	206.200000
852.562924	171.300000
854.792958	202.200000
857.022438	168.100000
859.247436	196.500000
861.475808	169.500000
863.699702	194.600000
865.925007	185.100000
868.145836	208.600000
870.370037	184.200000
872.589765	187.100000
874.810903	198.600000
877.031491	212.600000
879.249570	159.800000
881.469058	206.400000
883.684080	164.700000
885.898554	204.500000
888.112481	178.800000
890.325861	197.400000
892.538693	165.300000
894.750978	187.000000
896.960762	173.200000
899.170000	198.600000
901.378693	200.200000
903.584886	205.600000
905.792489	176.200000
907.997595	216.200000
910.202157	172.600000
912.404224	202.100000
914.607700	188.700000
916.808682	230.300000
919.009122	213.900000
921.210971	235.800000
923.406429	242.300000
925.605245	271.600000
927.799624	256.400000
929.997360	310.200000
932.190660	337.800000
934.385369	377.500000
936.577591	417.500000
938.769276	465.500000
940.960423	460.900000
943.149087	476.400000
945.337215	485.100000
947.522861	450.300000
949.711861	452.700000
951.896437	489.800000
954.080478	457.900000
956.267869	460.200000
958.446956	463.500000
960.629394	486.500000
962.811298	467.600000
964.990727	498.300000
967.167684	470.300000
969.346049	493.700000
971.525821	498.700000
973.699244	516.700000
975.876013	494.900000
978.048375	504.100000
980.222145	481.700000
982.391511	477.100000
984.564221	445.400000
986.734466	422.100000
988.904181	397.500000
991.073368	337.900000
993.238158	310.300000
995.406290	315.400000
997.570026	263.400000
999.735170	248.300000
1001.897854	260.700000
1004.060013	256.100000
1006.219715	212.000000
1008.378892	244.400000
1010.539476	227.300000
1012.697605	237.400000
1014.855211	206.900000
1017.012293	198.300000
1019.168851	213.100000
1021.321030	193.600000
1023.474616	188.300000
1025.627680	195.800000
1027.778295	172.900000
1029.930316	204.200000
1032.077965	160.200000
1034.228945	192.800000
1036.375554	154.300000
1038.521644	147.900000
1040.667216	149.900000
1042.814193	169.100000
1044.954881	147.400000
1047.098898	155.400000
1049.240476	149.200000
1051.381536	173.100000
1053.524002	148.400000
1055.660187	175.500000
1057.799699	149.100000
1059.934855	169.200000
1062.073336	160.200000
1064.207464	154.800000
1066.341078	165.600000
1068.476096	167.500000
1070.606766	147.700000
1072.738840	160.100000
1074.868485	154.800000
1076.997617	163.900000
1079.126239	156.500000
1081.254349	174.100000
1083.380033	165.800000
1085.505207	195.700000
1087.631785	168.400000
1089.754025	174.000000
1091.877670	151.400000
1093.996980	163.300000
1096.121519	136.200000
1098.239814	161.100000
1100.359512	151.100000
1102.476793	173.500000
1104.593566	145.500000
1106.709833	170.600000
1108.823685	149.000000
1110.938940	154.100000
1113.049873	164.300000
1115.164118	164.500000
1117.274042	136.600000
1119.385370	151.500000
1121.496193	139.600000
1123.602700	176.200000
1125.712516	131.500000
1127.818019	176.100000
1129.924924	149.800000
1132.025614	150.200000
1134.131516	132.400000
1136.233109	166.000000
1138.336105	141.200000
1140.438600	142.300000
1142.534888	139.100000
1144.636383	131.100000
1146.733576	136.500000
1148.830271	136.100000
1150.926467	150.500000
1153.022165	153.100000
1155.117366	150.400000
1157.210170	139.200000
1159.304376	136.400000
1161.392391	148.900000
1163.485604	117.200000
1165.572630	135.800000
1167.662954	121.200000
1169.748990	151.200000
1171.838324	137.100000
1173.921477	138.300000
1176.006033	134.500000
1178.091990	148.300000
1180.173665	121.600000
1182.256741	151.200000
1184.337432	131.900000
1186.417632	147.900000
1188.497340	141.800000
1190.576557	148.100000
1192.653391	134.500000
1194.727845	152.800000
1196.805591	113.100000
1198.879066	125.600000
1200.953943	146.400000
1203.024552	141.900000
1205.096562	127.800000
1207.166196	131.100000
1209.237231	136.300000
1211.307779	128.800000
1213.374065	128.600000
1215.441752	142.400000
1217.507066	129.600000
1219.573781	137.100000
1221.636241	118.400000
1223.701985	145.200000
1225.763475	141.800000
1227.826366	157.300000
1229.886888	128.900000
1231.946928	146.700000
1234.006484	113.900000
1236.063676	126.000000
1238.120385	122.300000
1240.174732	150.600000
1242.232360	121.900000
1244.287624	149.700000
1246.338649	143.500000
1248.391073	137.000000
1250.443017	122.700000
1252.492603	141.100000
1254.541710	142.100000
1256.590338	140.000000
1258.638488	134.800000
1260.686160	133.700000
1262.729601	146.900000
1264.776318	163.900000
1266.820681	136.300000
1268.864568	133.200000
1270.906103	157.800000
1272.945289	144.900000
1274.987748	135.000000
1277.025984	152.500000
1279.065619	141.500000
1281.104778	143.100000
1283.139720	146.900000
1285.176060	150.100000
1287.210056	124.600000
1289.245449	141.600000
1291.276629	126.000000
1293.309208	135.900000
1295.341315	126.500000
1297.371081	143.600000
1299.402244	127.600000
1301.429200	132.900000
1303.457555	144.600000
1305.481704	120.600000
1307.509119	137.400000
1309.532331	120.300000
1311.556941	125.500000
1313.579216	134.300000
1315.602889	133.400000
1317.624229	139.600000
1319.645102	130.100000
1321.665507	106.700000
1323.681719	131.700000
1325.699328	150.700000
1327.714609	114.700000
1329.733149	143.800000
1331.747499	117.200000
1333.759524	124.100000
1335.774807	118.600000
1337.785904	123.300000
1339.798397	129.600000
1341.806708	130.400000
1343.818275	129.800000
1345.823803	126.200000
1347.832586	129.700000
1349.837191	154.600000
1351.845050	121.400000
1353.852447	125.900000
1355.853813	129.400000
1357.856575	127.900000
1359.858878	128.000000
1361.860721	123.700000
1363.862104	97.100000
1365.861173	136.700000
1367.859785	117.600000
1369.857937	114.800000
1371.855632	118.700000
1373.849164	141.700000
1375.844091	104.800000
1377.838562	129.200000
1379.832576	114.300000
1381.824283	128.300000
1383.815534	115.600000
1385.804480	133.000000
1387.794821	112.000000
1389.784708	108.000000
1391.772290	104.200000
1393.759419	127.600000
1395.744246	110.500000
1397.730468	115.000000
1399.714389	109.700000
1401.697858	122.700000
1403.680875	119.800000
1405.661594	123.100000
1407.643707	103.500000
1409.623523	119.700000
1411.602889	105.200000
1413.578116	124.700000
1415.556581	97.700000
1417.532753	132.700000
1419.508475	105.700000
1421.483749	123.500000
1423.456731	102.100000
1425.429265	117.300000
1427.401351	111.900000
1429.372990	117.700000
1431.340500	99.600000
1433.313084	133.200000
1435.277862	110.900000
1437.247713	130.000000
1439.213439	104.800000
1441.180559	118.400000
1443.145395	95.200000
1445.106111	123.000000
1447.071895	104.300000
1449.031724	126.400000
1450.992947	117.500000
1452.955561	120.300000
1454.914061	108.200000
1456.872119	135.200000
1458.829735	116.300000
1460.786908	137.100000
1462.741806	110.900000
1464.698097	124.000000
1466.652113	97.100000
1468.605688	109.400000
1470.556991	110.300000
1472.509686	120.800000
1474.460110	116.800000
1476.410095	114.100000
1478.359641	106.300000
1480.306918	105.400000
1482.251927	115.700000
1484.198329	97.700000
1486.144293	103.700000
1488.089820	114.200000
1490.033081	100.000000
1491.975906	120.000000
1493.916468	113.600000
1495.858422	124.000000
1497.798113	89.900000
1499.737369	114.500000
1501.676191	103.700000
1503.612753	112.300000
1505.550706	84.800000
1507.486400	110.100000
1509.421661	89.700000
1511.354665	112.300000
1513.287237	104.800000
1515.219377	107.100000
1517.151085	97.300000
1519.080540	111.200000
1521.011385	98.800000
1522.941798	129.200000
1524.868139	97.500000
1526.795870	112.800000
1528.721352	110.400000
1530.646404	110.900000
1532.571027	100.000000
1534.495220	117.300000
1536.417167	126.100000
1538.340504	127.800000
1540.261594	120.600000
1542.180440	131.700000
1544.100676	107.800000
1546.018668	140.400000
1547.936234	121.200000
1549.851559	139.800000
1551.768273	131.900000
1553.680932	135.900000
1555.596794	138.800000
1557.510418	147.400000
1559.421803	144.500000
1561.334578	146.600000
1563.243303	144.800000
1565.153417	193.700000
1567.063108	165.000000
1568.972376	198.000000
1570.879409	226.300000
1572.784210	267.000000
1574.690400	299.100000
1576.594359	345.700000
1578.497896	383.100000
1580.401013	414.600000
1582.301900	415.200000
1584.204176	416.000000
1586.104223	342.500000
1588.005659	305.000000
1589.903061	254.400000
1591.800044	221.400000
1593.696609	181.600000
1595.594561	181.700000
1597.486679	153.300000
1599.381991	163.100000
1601.276885	140.100000
1603.169557	160.200000
1605.061812	136.100000
1606.951848	146.800000
1608.841468	114.900000
1610.730673	123.400000
1612.619462	122.900000
1614.506035	125.400000
1616.393995	108.600000
1618.277938	141.000000
1620.163268	133.600000
1622.048185	112.100000
1623.930888	112.200000
1625.814978	121.100000
1627.695056	113.600000
1629.576522	105.200000
1631.455776	84.900000
1633.336418	100.500000
1635.211255	81.500000
1637.091073	112.900000
1638.966887	99.600000
1640.842290	94.100000
1642.719079	84.500000
1644.590071	96.100000
1646.464246	91.300000
1648.334421	95.100000
1650.207777	75.400000
1652.078930	94.300000
1653.947881	95.400000
1655.818218	101.100000
1657.684562	87.100000
1659.552291	104.500000
1661.417821	82.100000
1663.284737	97.100000
1665.147663	93.700000
1667.011976	104.100000
1668.874092	75.800000
1670.735803	91.600000
1672.598899	82.700000
1674.459801	100.300000
1676.318510	84.000000
1678.176815	106.800000
1680.036504	106.600000
1681.890427	106.800000
1683.747523	66.500000
1685.604215	95.500000
1687.456932	76.700000
1689.312820	83.400000
1691.164734	83.200000
1693.016247	99.800000
1694.867359	72.000000
1696.718070	90.500000
1698.568381	80.500000
1700.416508	92.100000
1702.266019	87.500000
1704.109780	77.400000
1705.958492	87.100000
1707.801457	92.400000
1709.647588	80.200000
1711.489758	67.500000
1713.335093	68.700000
1715.174687	91.100000
1717.015665	95.500000
1718.858026	104.700000
1720.696430	65.800000
1722.536218	83.400000
1724.373831	82.000000
1726.211049	86.900000
1728.046093	95.000000
1729.882520	96.700000
1731.716774	64.400000
1733.550635	93.300000
1735.384101	84.500000
1737.213621	89.100000
1739.046301	70.600000
1740.875035	105.500000
1742.706928	65.900000
1744.534878	90.500000
1746.362436	60.100000
1748.189603	84.100000
1750.016378	75.500000
1751.842761	89.600000
1753.665208	73.200000
1755.490810	83.100000
1757.312477	82.700000
1759.135525	89.200000
1760.956413	73.400000
1762.776912	92.300000
1764.598791	80.400000
1766.414971	88.500000
1768.234303	72.900000
1770.049708	99.700000
1771.868264	59.800000
1773.682894	87.900000
1775.497137	55.500000
1777.310994	92.500000
1779.124464	67.600000
1780.935780	70.400000
1782.748478	96.900000
1784.560790	97.500000
1786.369183	80.500000
1788.178958	97.000000
1789.984818	83.500000
1791.793823	86.300000
1793.598915	78.000000
1795.405388	90.000000
1797.211476	65.000000
1799.013655	79.000000
1800.818978	83.600000
1802.620391	84.800000
1804.423186	82.500000
1806.222074	93.900000
1808.022343	80.100000
1809.822230	102.500000
1811.619975	83.000000
1813.417340	78.200000
1815.214324	50.900000
1817.010929	82.100000
1818.805393	70.000000
1820.601238	69.700000
1822.391427	75.500000
1824.186513	87.500000
1825.975946	68.000000
1827.768517	87.700000
1829.558952	68.300000
1831.347252	78.800000
1833.138688	71.100000
1834.924479	80.900000
1836.711649	67.800000
1838.496687	83.200000
1840.284858	71.700000
1842.069145	65.200000
1843.851301	77.000000
1845.634837	89.700000
1847.416244	87.000000
1849.199029	93.000000
1850.977935	70.600000
1852.758219	81.500000
1854.536378	64.700000
1856.315914	89.500000
1858.093326	71.100000
1859.868615	88.000000
1861.645281	64.500000
1863.419825	87.900000
1865.195746	82.200000
1866.966048	81.800000
1868.739477	71.500000
1870.510786	80.000000
1872.281724	85.500000
1874.054040	92.000000
1875.820742	72.100000
1877.590569	86.300000
1879.356533	98.300000
1881.125621	69.800000
1882.890847	73.900000
1884.655705	78.200000
1886.421939	65.100000
1888.184316	70.800000
1889.946324	55.800000
1891.707966	99.100000
1893.469240	82.600000
1895.230148	82.900000
1896.990688	72.300000
1898.749120	82.700000
1900.507185	72.100000
1902.263143	75.200000
1904.020477	65.100000
1905.777446	77.700000
1907.532308	58.300000
1909.285066	76.000000
1911.037459	57.400000
1912.791229	68.500000
1914.542895	67.400000
1916.292458	71.600000
1918.043398	47.800000
1919.793974	70.900000
1921.540712	71.700000
1923.288825	92.300000
1925.034840	53.000000
1926.782229	78.100000
1928.527520	60.500000
1930.270715	87.600000
1932.015284	66.500000
1933.757757	71.500000
1935.499871	45.900000
1937.241624	100.100000
1938.983017	40.300000
1940.722317	90.100000
1942.461258	70.300000
1944.199840	98.400000
1945.936331	71.200000
1947.672463	71.300000
1949.409971	71.400000
1951.143656	86.800000
1952.878716	69.300000
1954.611687	81.400000
1956.344302	66.800000
1958.076560	88.900000
1959.808462	76.800000
1961.538279	79.300000
1963.266010	75.800000
1964.995116	97.600000
1966.723866	65.100000
1968.450533	86.800000
1970.176846	56.500000
1971.904533	73.800000
1973.626683	76.400000
1975.351934	73.000000
1977.073378	59.900000
1978.797922	82.800000
1980.520387	75.500000
1982.239048	85.700000
1983.960809	72.000000
1985.678767	82.400000
1987.398098	58.500000
1989.113630	90.800000
1990.833982	68.700000
1992.550536	82.800000
1994.263293	68.900000
1995.979146	74.800000
1997.692927	90.300000
1999.406358	77.500000
2001.117718	78.000000
2002.830450	76.200000
2004.539392	67.500000
2006.251426	79.600000
2007.957951	55.400000
2009.667569	74.700000
2011.375119	72.900000
2013.082322	77.700000
2014.787459	54.000000
2016.492250	81.000000
2018.198412	58.400000
2019.900791	70.800000
2021.604543	42.500000
2023.306232	66.700000
2025.007575	56.900000
2026.708574	78.000000
2028.407511	58.600000
2030.107820	62.100000
2031.804353	63.400000
2033.502258	73.500000
2035.198105	61.200000
2036.897037	65.000000
2038.590483	51.100000
2040.285300	84.100000
2041.979774	59.300000
2043.670481	73.800000
2045.364270	45.900000
2047.054294	76.600000
2048.745688	50.600000
2050.435028	70.900000
2052.125740	57.600000
2053.812688	77.100000
2055.499296	57.800000
2057.187275	77.000000
2058.871494	69.200000
2060.557083	63.900000
2062.242333	54.400000
2063.925535	84.700000
2065.610107	51.400000
2067.289215	88.600000
2068.973110	47.100000
2070.651543	70.900000
2072.333054	78.000000
2074.010813	70.200000
2075.688236	56.700000
2077.367028	78.700000
2079.043777	50.600000
2080.718485	79.300000
2082.394563	62.500000
2084.068599	71.700000
2085.742301	59.500000
2087.415667	70.400000
2089.086994	56.300000
2090.757987	66.300000
2092.428646	54.600000
2094.098971	74.200000
2095.768962	72.200000
2097.436917	59.100000
2099.104538	55.300000
2100.770126	91.100000
2102.437082	58.000000
2104.102005	72.400000
2105.766596	55.300000
2107.429155	89.300000
2109.093082	55.300000
2110.754978	67.300000
2112.416544	55.700000
2114.077778	58.900000
2115.736983	59.700000
2117.395859	85.600000
2119.054405	59.700000
2120.712620	78.500000
2122.367113	52.700000
2124.024670	61.300000
2125.681897	58.500000
2127.335404	67.200000
2128.990278	46.100000
2130.641433	69.300000
2132.295651	59.000000
2133.946151	75.100000
2135.598019	62.400000
2137.244478	48.500000
2138.895691	73.800000
2140.543192	56.700000
2142.192059	42.700000
2143.838907	61.300000
2145.485430	54.800000
2147.131627	70.800000
2148.774116	42.300000
2150.419662	64.600000
2152.061502	61.100000
2153.706399	70.300000
2155.347591	57.900000
2156.988459	81.200000
2158.629004	52.600000
2160.267536	64.600000
2161.907434	61.700000
2163.543632	65.300000
2165.181196	52.900000
2166.818438	68.800000
2168.453670	48.900000
2170.088580	65.200000
2171.723169	64.000000
2173.357437	73.700000
2174.988011	70.600000
2176.621637	74.300000
2178.251571	63.300000
2179.882870	79.900000
2181.512164	53.800000
2183.141139	61.900000
2184.769794	60.900000
2186.398130	78.800000
2188.024463	52.400000
2189.650478	59.600000
2191.274492	53.600000
2192.899871	77.500000
2194.523249	60.800000
2196.147992	73.100000
2197.769054	58.800000
2199.389799	66.300000
2201.011908	44.200000
2202.632020	63.900000
2204.250136	56.700000
2205.867936	62.700000
2207.485420	72.100000
2209.102590	57.000000
2210.719443	55.700000
2212.335982	65.700000
2213.950528	48.300000
2215.563081	70.500000
2217.176998	51.200000
2218.788924	66.800000
2220.402213	53.500000
2222.013512	72.800000
2223.622821	39.200000
2225.233493	49.500000
2226.842177	58.900000
2228.450549	79.300000
2230.056934	63.900000
2231.664681	50.900000
2233.270443	48.000000
2234.875893	65.500000
2236.479358	47.800000
2238.084186	55.700000
2239.687030	55.500000
2241.287891	62.500000
2242.890115	50.500000
2244.490357	60.100000
2246.091961	32.100000
2247.689912	65.600000
2249.289226	47.200000
2250.886560	57.800000
2252.483586	35.400000
2254.081973	54.500000
2255.676713	56.100000
2257.269475	60.800000
2258.863600	62.300000
2260.459086	59.600000
2262.050927	44.000000
2263.642462	58.500000
2265.235359	50.500000
2266.822946	56.200000
2268.415229	56.200000
2270.002205	56.800000
2271.592210	59.600000
2273.176910	58.100000
2274.766304	50.500000
2276.350395	76.100000
2277.935848	62.500000
2279.519332	61.800000
2281.105841	54.300000
2282.688717	52.500000
2284.271290	42.600000
2285.853559	53.700000
2287.432198	42.500000
2289.013862	62.100000
2290.591897	42.000000
2292.172955	56.000000
2293.750386	67.750000
2295.325854	79.500000
2296.904344	37.300000
2298.479210	73.400000
2300.053775	61.800000
2301.628039	42.400000
2303.202003	37.000000
2304.775667	72.900000
2306.349031	56.700000
2307.918776	40.500000
2309.488222	51.800000
2311.060686	63.900000
2312.627876	59.900000
2314.198083	57.900000
2315.764677	59.300000
2317.332629	78.400000
2318.898627	56.700000
2320.464327	63.800000
2322.029729	63.100000
2323.593178	82.900000
2325.157986	77.800000
2326.719186	72.300000
2328.283399	58.900000
2329.842352	81.700000
2331.404318	57.800000
2332.964334	69.500000
2334.524054	67.800000
2336.081826	67.500000
2337.639302	40.500000
2339.196484	74.300000
2340.751718	59.000000
2342.306659	70.500000
2343.861305	50.200000
2345.415658	67.400000
2346.969717	44.900000
2348.523483	48.700000
2350.075304	46.900000
2351.625182	57.700000
2353.178069	39.500000
2354.725712	68.300000
2356.276364	59.800000
2357.823424	60.800000
2359.371842	52.900000
2360.919969	62.400000
2362.464507	51.100000
2364.010403	80.500000
2365.554361	55.200000
2367.099675	68.400000
2368.641405	45.400000
2370.184493	56.300000
2371.725644	53.100000
2373.266506	62.700000
2374.807079	40.000000
2376.347363	71.000000
2377.887358	56.400000
2379.423774	68.200000
2380.963192	35.500000
2382.499033	56.900000
2384.036231	48.800000
2385.569853	64.200000
2387.106475	48.300000
2388.641167	61.400000
2390.173929	51.000000
2391.706404	63.100000
2393.236951	49.100000
2394.770496	57.400000
2396.298830	56.200000
2397.828520	63.600000
2399.357925	57.700000
2400.887045	61.700000
2402.415879	53.400000
2403.939509	70.900000
2405.467774	53.000000
2406.990837	60.900000
2408.518533	51.600000
2410.039390	84.900000
2411.564879	53.600000
2413.086809	70.400000
2414.610093	59.200000
2416.131457	66.100000
2417.650901	56.700000
2419.171700	74.100000
2420.690580	63.100000
2422.209179	65.400000
2423.725859	55.500000
2425.243895	89.600000
2426.761649	47.600000
2428.275851	81.600000
2429.789774	68.400000
2431.303416	76.900000
2432.818412	65.400000
2434.329861	69.700000
2435.842663	66.500000
2437.353553	69.800000
2438.864164	65.200000
2440.372863	99.100000
2441.884548	64.400000
2443.392690	82.900000
2444.900554	83.400000
2446.408139	78.400000
2447.912185	73.200000
2449.419215	94.100000
2450.924337	60.600000
2452.429182	70.100000
2453.932120	78.900000
2455.434782	77.300000
2456.937167	58.500000
2458.437647	78.900000
2459.939480	66.900000
2461.439408	103.100000
2462.939061	80.700000
2464.438439	68.300000
2465.935914	68.900000
2467.431487	81.900000
2468.930040	74.700000
2470.425065	85.400000
2471.921442	63.600000
2473.414293	65.000000
2474.908497	66.100000
2476.402427	66.100000
2477.892833	68.000000
2479.386217	84.200000
2480.877703	48.400000
2482.367292	76.300000
2483.856609	45.700000
2485.344030	72.100000
2486.834427	60.100000
2488.321306	62.100000
2489.809536	43.900000
2491.294249	70.800000
2492.778692	61.900000
2494.264487	73.000000
2495.748390	56.100000
2497.233643	77.600000
2498.713763	48.300000
2500.196856	70.800000
2501.678058	53.900000
2503.158991	70.300000
2504.638035	66.400000
2506.116810	66.900000
2507.595317	50.200000
2509.073555	66.300000
2510.551526	51.900000
2512.025991	66.100000
2513.503426	56.600000
2514.977356	71.900000
2516.452638	40.000000
2517.927652	72.100000
2519.399165	51.500000
2520.872029	72.200000
2522.343010	34.900000
2523.815341	69.100000
2525.282558	44.500000
2526.752742	62.700000
2528.221045	55.400000
2529.689083	72.100000
2531.156855	53.400000
2532.624363	68.300000
2534.091607	54.200000
2535.555358	64.600000
2537.020459	55.700000
2538.483683	61.400000
2539.948256	54.400000
2541.409341	50.900000
2542.871775	43.500000
2544.333946	78.900000
2545.792630	63.200000
2547.255887	65.600000
2548.714047	46.400000
2550.173557	70.700000
2551.627972	74.900000
2553.086958	72.200000
2554.544072	43.300000
2555.999314	71.600000
2557.454296	66.400000
2558.907408	52.400000
2560.361869	54.800000
2561.814461	65.000000
2563.266793	66.600000
2564.717257	51.300000
2566.170678	36.600000
2567.619016	54.400000
2569.070309	62.100000
2570.519737	43.600000
2571.965692	55.300000
2573.414602	65.800000
2574.860042	55.200000
2576.306829	78.700000
2577.751753	49.000000
2579.196420	78.900000
2580.642434	43.400000
2582.084982	63.300000
2583.528876	40.000000
2584.969306	70.200000
2586.411084	63.700000
2587.851002	78.300000
2589.292267	48.500000
2590.730070	75.100000
2592.170823	38.300000
2593.606514	55.800000
2595.045153	51.700000
2596.481936	65.100000
2597.916863	77.100000
2599.354737	78.400000
2600.787554	54.100000
2602.221718	68.800000
2603.654028	49.600000
2605.087684	66.900000
2606.519487	50.500000
2607.951036	77.800000
2609.382332	58.700000
2610.811777	88.500000
2612.240969	59.600000
2613.668310	69.900000
2615.096998	59.600000
2616.525433	75.400000
2617.950422	53.300000
2619.376756	76.100000
2620.801243	66.400000
2622.227075	84.800000
2623.649463	75.300000
2625.073196	97.700000
2626.495084	73.300000
2627.916721	78.200000
2629.336514	73.600000
2630.757652	115.700000
2632.178540	92.900000
2633.595989	107.300000
2635.016378	92.300000
2636.433330	126.800000
2637.850034	121.800000
2639.266489	125.600000
2640.682696	141.100000
2642.098655	155.800000
2643.512773	136.500000
2644.926643	181.000000
2646.338674	146.200000
2647.752050	175.600000
2649.161996	168.500000
2650.574878	193.900000
2651.984331	200.900000
2653.393538	241.500000
2654.800909	249.300000
2656.211214	274.900000
2657.619683	271.000000
2659.026318	294.500000
2660.432707	283.800000
2661.837262	341.800000
2663.243161	333.800000
2664.647227	354.900000
2666.051048	339.700000
2667.454625	380.700000
2668.856371	354.600000
2670.259460	397.500000
2671.659131	390.600000
2673.060146	401.800000
2674.457745	390.600000
2675.858273	374.900000
2677.255387	383.500000
2678.653844	356.700000
2680.050474	317.600000
2681.446861	342.900000
2682.843006	321.800000
2684.237325	289.400000
2685.632987	269.500000
2687.025240	269.000000
2688.418835	234.000000
2689.810606	236.400000
2691.203720	209.200000
2692.595010	196.600000
2693.984477	179.000000
2695.373704	187.900000
2696.762692	160.800000
2698.153021	155.500000
2699.538367	127.800000
2700.926636	128.600000
2702.313085	120.400000
2703.699295	110.400000
2705.085266	86.600000
2706.467839	98.700000
2707.851754	102.400000
2709.235430	113.500000
2710.618869	93.000000
2711.998912	91.000000
2713.380297	86.400000
2714.759867	119.400000
2716.140777	84.100000
2717.519873	83.200000
2718.897155	79.700000
2720.275778	100.700000
2721.652587	49.300000
2723.029161	83.400000
2724.405499	60.700000
2725.780025	69.900000
2727.155892	46.100000
2728.528373	81.900000
2729.903769	88.000000
2731.274205	87.800000
2732.645981	66.200000
2734.017524	74.400000
2735.387258	52.700000
2736.758332	61.500000
2738.127599	49.900000
2739.496632	67.700000
2740.863859	50.400000
2742.230852	63.000000
2743.597613	56.200000
2744.964141	60.600000
2746.328865	60.600000
2747.693356	70.400000
2749.057616	39.200000
2750.421643	66.400000
2751.785438	55.000000
2753.145861	49.100000
2754.509193	48.100000
2755.867583	58.200000
2757.228883	40.400000
2758.586813	50.800000
2759.947651	38.200000
2761.306689	59.100000
2762.662360	39.600000
2764.020938	75.000000
2765.376149	35.600000
2766.731131	58.700000
2768.084316	44.400000
2769.440408	38.600000
2770.793136	32.000000
2772.145636	53.500000
2773.497907	34.600000
2774.851516	49.200000
2776.201765	41.100000
2777.550219	56.600000
2778.901578	41.300000
2780.249579	57.200000
2781.598917	39.900000
2782.946463	59.300000
2784.293783	39.600000
2785.640875	51.400000
2786.986177	53.800000
2788.331253	42.700000
2789.676103	29.500000
2791.020727	58.100000
2792.361999	28.700000
2793.704608	47.000000
2795.046993	37.400000
2796.389152	58.100000
2797.727962	40.500000
2799.069672	31.800000
2800.408033	30.600000
2801.747732	44.500000
2803.085646	43.100000
2804.421774	64.800000
2805.757680	46.100000
2807.094923	57.800000
2808.430382	31.400000
2809.765617	44.700000
2811.099071	41.600000
2812.433861	63.000000
2813.765311	47.900000
2815.099656	47.700000
2816.429102	33.600000
2817.759886	68.900000
2819.090449	48.800000
2820.419232	54.100000
2821.749351	33.300000
2823.077692	30.900000
2824.405812	43.200000
2825.732154	60.600000
2827.059832	16.200000
2828.384178	55.200000
2829.709860	44.400000
2831.033766	60.600000
2832.357452	19.800000
2833.682474	68.400000
2835.004167	44.300000
2836.325641	60.900000
2837.646895	37.100000
2838.967932	45.200000
2840.287195	64.500000
2841.607794	40.000000
2842.926621	53.100000
2844.245231	47.900000
2845.562069	40.700000
2846.878690	43.800000
2848.195094	44.800000
2849.509728	55.500000
2850.825697	49.500000
2852.138347	51.900000
2853.452331	32.000000
2854.766099	39.100000
2856.079650	47.800000
2857.391435	51.200000
2858.701453	38.100000
2860.012806	52.000000
2861.320844	46.700000
2862.630216	48.000000
2863.939373	47.000000
2865.248316	46.100000
2866.555494	39.000000
2867.860910	47.300000
2869.167659	39.700000
2870.472647	61.900000
2871.777420	28.400000
2873.080433	61.200000
2874.386326	47.600000
2875.687365	56.100000
2876.989737	38.200000
2878.290351	32.600000
2879.592297	31.600000
2880.894031	66.500000
2882.192461	27.000000
2883.492224	32.800000
2884.790230	32.400000
2886.088024	44.400000
2887.384062	37.500000
2888.681432	52.600000
2889.977048	35.000000
2891.272452	47.100000
2892.567645	31.700000
2893.859541	50.400000
2895.154312	35.700000
2896.445788	50.100000
2897.738596	31.300000
2899.031194	35.300000
2900.320497	28.800000
2901.611134	42.100000
2902.900019	23.800000
2904.190236	57.300000
2905.477162	36.500000
2906.765420	49.000000
2908.051929	40.000000
2909.338229	49.100000
2910.624321	32.700000
2911.908665	45.600000
2913.195881	29.000000
2914.478270	31.600000
2915.761991	44.200000
2917.043965	51.600000
2918.325733	37.500000
2919.605755	38.400000
2920.888648	46.200000
2922.169794	43.400000
2923.447659	23.700000
2924.728393	36.800000
2926.005847	50.000000
2927.283094	43.600000
2928.558599	34.200000
2929.836972	54.400000
2931.110531	33.600000
2932.386957	40.300000
2933.661642	30.900000
2934.934586	36.800000
2936.208862	28.200000
2937.481398	60.200000
2938.753729	42.000000
2940.022788	30.600000
2941.294712	36.000000
2942.564898	62.100000
2943.834880	26.900000
2945.104659	46.200000
2946.372702	32.800000
2947.639008	51.400000
2948.905112	25.100000
2950.172547	31.500000
2951.438246	36.200000
2952.703744	48.000000
2953.969039	17.500000
2955.231069	32.700000
2956.494429	33.900000
2957.757588	47.800000
2959.019015	25.900000
2960.281771	51.300000
2961.542795	33.400000
2962.802089	49.800000
2964.061182	18.000000
2965.320076	53.900000
2966.578769	26.500000
2967.837261	54.400000
2969.094025	29.300000
2970.350590	34.100000
2971.605426	41.600000
2972.861592	44.800000
2974.114503	47.200000
2975.368742	58.100000
2976.622783	38.000000
2977.875098	63.100000
2979.127215	38.500000
2980.377607	42.700000
2981.630854	28.900000
2982.879324	41.900000
2984.130649	31.400000
2985.378724	59.500000
2986.626602	32.500000
2987.874284	47.400000
2989.121768	21.900000
2990.367531	38.900000
2991.613098	26.600000
2992.859992	38.100000
2994.103642	30.400000
2995.348619	35.800000
2996.590354	24.500000
2997.834940	52.000000
2999.077807	40.100000
3000.317433	32.700000
3001.559909	14.800000
3002.799145	52.500000
3004.039709	21.500000
3005.278556	54.300000
3006.517209	23.500000
3007.754146	38.100000
3008.992411	35.100000
3010.228960	59.000000
3011.465316	31.400000
3012.701478	40.400000
3013.935926	25.500000
3015.170181	48.800000
3016.404244	23.500000
3017.636593	31.600000
3018.867231	23.100000
3020.100715	42.200000
3021.332488	38.400000
3022.562549	44.600000
3023.792419	43.500000
3025.020579	47.800000
3026.250066	26.600000
3027.477843	41.400000
3028.705429	28.100000
3029.934341	32.400000
3031.158511	34.500000
3032.385524	40.700000
3033.609314	33.900000
3034.834429	53.800000
3036.057839	33.300000
3037.281058	46.700000
3038.502572	29.000000
3039.726927	26.700000
3040.946547	27.600000
3042.167493	39.200000
3043.388249	42.800000
3044.607303	32.300000
3045.827681	17.200000
3047.044843	60.900000
3048.263330	4.500000
3049.480116	32.700000
3050.696713	23.400000
3051.913123	53.200000
3053.126319	30.100000
3054.342353	31.100000
3055.555175	31.000000
3056.770834	55.200000
3057.981771	13.200000
3059.194032	32.400000
3060.406106	24.000000
3061.617994	43.500000
3062.828185	18.100000
3064.038189	34.800000
3065.248007	9.500000
3066.456129	52.600000
3067.664066	29.200000
3068.870307	34.000000
3070.077873	21.400000
3071.283744	24.650000
3072.489430	27.900000
3073.694932	28.900000
3074.898740	40.300000
3076.103872	18.300000
3077.307311	25.600000
3078.509059	30.100000
3079.710622	16.100000
3080.912002	36.700000
3082.113198	16.100000
3083.312704	33.700000
3084.512027	41.600000
3085.712673	48.800000
3086.911629	30.500000
3088.107391	36.500000
3089.305981	16.000000
3090.501378	34.600000
3091.698099	17.700000
3092.891627	29.500000
3094.087983	35.100000
3095.282652	39.300000
3096.474131	14.100000
3097.669942	33.900000
3098.861058	47.200000
3100.053498	28.500000
3101.242749	23.100000
3102.434827	33.800000
3103.625221	-6.200000
3104.812429	38.200000
3106.000959	23.700000
3107.190812	26.100000
3108.377480	22.700000
3109.563969	39.800000
3110.750279	35.200000
3111.937910	47.900000
3113.122359	37.700000
3114.305129	41.500000
3115.490721	19.500000
3116.674634	23.900000
3117.856867	15.300000
3119.038923	21.700000
3120.220800	30.000000
3121.402499	33.200000
3122.582521	37.100000
3123.760866	28.400000
3124.942031	25.600000
3126.120021	40.200000
3127.297834	19.300000
3128.475470	34.400000
3129.651431	25.800000
3130.827216	35.500000
3132.004321	20.200000
3133.179753	39.100000
3134.353511	29.200000
3135.525596	26.900000
3136.699003	10.800000
3137.872233	39.400000
3139.043792	24.200000
3140.216671	38.700000
3141.386383	35.700000
3142.557416	57.400000
3143.726778	38.900000
3144.894471	33.400000
3146.064979	21.200000
3147.230829	46.700000
3148.400987	14.100000
3149.566488	48.200000
3150.731816	36.100000
3151.896970	34.900000
3153.061951	21.400000
3154.228251	27.200000
3155.389898	41.300000
3156.552866	20.800000
3157.715661	25.900000
3158.878283	19.300000
3160.039239	25.600000
3161.200024	39.300000
3162.360636	18.400000
3163.519584	42.400000
3164.678361	29.400000
3165.836965	39.700000
3166.995398	33.800000
3168.153660	43.400000
3169.310259	24.100000
3170.465197	37.300000
3171.621454	31.500000
3172.776050	43.200000
3173.930476	25.200000
3175.083242	29.000000
3176.235837	22.900000
3177.388263	34.400000
3178.540518	15.500000
3179.692604	24.300000
3180.841543	36.500000
3181.993289	28.200000
3183.143378	24.800000
3184.291810	28.800000
3185.440072	22.300000
3186.588166	35.000000
3187.736091	24.600000
3188.882360	39.200000
3190.028461	16.800000
3191.172908	38.500000
3192.317187	21.700000
3193.461297	38.400000
3194.606726	13.900000
3195.749016	42.500000
3196.891139	15.800000
3198.033094	50.500000
3199.174882	8.000000
3200.316503	38.300000
3201.454989	25.200000
3202.594792	34.000000
3203.735912	17.600000
3204.873899	26.400000
3206.010235	15.800000
3207.146407	41.300000
3208.283895	18.200000
3209.419735	43.300000
3210.556892	21.800000
3211.689436	43.200000
3212.826261	27.500000
3213.958476	34.100000
3215.092007	9.700000
3216.225373	31.700000
3217.355613	18.000000
3218.488650	32.600000
3219.618561	6.100000
3220.749788	22.600000
3221.877891	20.500000
3223.008790	40.600000
3224.138045	15.800000
3225.265657	30.900000
3226.390146	38.000000
3227.518911	41.800000
3228.644554	40.600000
3229.770034	33.400000
3230.893873	10.900000
3232.020507	48.500000
3233.142543	42.500000
3234.265895	61.900000
3235.389085	21.600000
3236.512112	43.600000
3237.633501	38.300000
3238.754727	42.100000
3239.874315	20.000000
3240.993742	29.600000
3242.111532	35.000000
3243.232113	28.900000
3244.349581	17.900000
3245.466888	44.000000
3246.584035	23.200000
3247.699545	41.300000
3248.816371	34.500000
3249.930087	36.400000
3251.046592	24.900000
3252.161462	49.600000
3253.273224	22.800000
3254.384827	35.400000
3255.497745	27.000000
3256.610503	46.700000
3257.720155	23.200000
3258.831122	38.200000
3259.941930	34.800000
3261.051106	34.900000
3262.158651	30.100000
3263.267511	25.100000
3264.376212	3.300000
3265.481811	51.500000
3266.588725	24.800000
3267.694009	37.500000
3268.800607	22.600000
3269.904105	33.200000
3271.008917	23.200000
3272.113572	20.000000
3273.215129	1.800000
3274.316529	29.800000
3275.419243	22.300000
3276.521801	21.700000
3277.621262	19.100000
3278.723507	47.900000
3279.822656	18.700000
3280.920180	23.300000
3282.017550	10.100000
3283.117701	34.200000
3284.214760	16.000000
3285.311663	17.300000
3286.408411	19.200000
3287.500600	35.300000
3288.597039	19.900000
3289.691855	29.800000
3290.786517	9.200000
3291.879556	32.200000
3292.972442	16.000000
3294.063707	44.000000
3295.156285	10.000000
3296.247243	26.200000
3297.336581	24.900000
3298.425766	27.400000
3299.516263	17.000000
3300.603677	29.700000
3301.690937	19.200000
3302.779510	17.800000
3303.867930	12.700000
3304.951804	25.200000
3306.039919	9.900000
3307.124952	17.900000
3308.208370	12.600000
3309.293100	36.600000
3310.376214	5.500000
3311.460641	14.100000
3312.541989	10.900000
3313.624649	21.400000
3314.705694	7.200000
3315.786589	37.100000
3316.865871	12.500000
3317.945002	35.800000
3319.025445	18.900000
3320.102813	19.800000
3321.181493	12.200000
3322.258561	26.600000
3323.335479	29.700000
3324.410787	31.600000
3325.485945	25.700000
3326.562414	25.400000
3327.635813	20.300000
3328.709062	26.600000
3329.783623	2.000000
3330.856575	36.800000
3331.927918	24.900000
3333.000572	36.700000
3334.070159	18.300000
3335.141058	41.700000
3336.210349	15.600000
3337.280950	43.500000
3338.349946	24.400000
3339.417335	29.600000
3340.483119	12.400000
3341.553129	22.600000
3342.620076	1.500000
3343.683961	22.300000
3344.750613	12.300000
3345.815662	42.900000
3346.879107	-3.800000
3347.942406	30.000000
3349.005558	17.600000
3350.068564	40.500000
3351.131424	12.200000
3352.192681	26.300000
3353.250882	14.100000
3354.313304	33.500000
3355.372670	22.600000
3356.431890	35.300000
3357.492419	7.800000
3358.548440	15.800000
3359.607224	21.200000
3360.661501	47.400000
3361.718542	21.200000
3362.773984	27.600000
3363.830736	16.800000
3364.885889	44.400000
3365.939445	27.800000
3366.991404	24.300000
3368.046126	10.200000
3369.097798	32.400000
3370.149327	36.600000
3371.202164	16.500000
3372.251954	11.000000
3373.303053	21.300000
3374.351105	28.300000
3375.401918	40.900000
3376.449685	11.900000
3377.497310	21.900000
3378.544793	28.600000
3379.590683	38.600000
3380.637881	23.200000
3381.682037	33.000000
3382.728951	17.000000
3383.774273	21.200000
3384.816554	10.900000
3385.858694	35.400000
3386.902143	38.100000
3387.945450	33.000000
3388.987167	12.900000
3390.028744	42.500000
3391.070179	12.100000
3392.110026	30.000000
3393.148284	8.400000
3394.187850	28.900000
3395.227276	22.900000
3396.265114	29.300000
3397.301365	16.100000
3398.337477	9.100000
3399.374895	4.100000
3400.409281	17.400000
3401.444975	20.600000
3402.480529	16.900000
3403.513052	7.800000
3404.548327	19.800000
3405.580573	26.100000
3406.612680	18.600000
3407.643203	14.600000
3408.675033	32.200000
3409.706725	4.800000
3410.735389	29.300000
3411.763916	21.600000
3412.793749	16.400000
3413.823445	20.400000
3414.850115	18.700000
3415.878091	29.400000
3416.903044	32.000000
3417.930746	25.200000
3418.955424	27.100000
3419.981409	11.100000
3421.005815	45.000000
3422.030084	17.100000
3423.052774	18.500000
3424.075328	19.200000
3425.099188	20.200000
3426.120028	9.700000
3427.140732	28.400000
3428.162742	11.700000
3429.181734	24.000000
3430.200591	15.700000
3431.220754	34.500000
3432.237900	17.100000
