-117.018713	-17.150000
-114.349113	1.900000
-111.682448	4.850000
-109.016535	-6.900000
-106.353555	5.350000
-103.689144	-2.350000
-101.027664	-16.800000
-98.364755	10.650000
-95.706952	-4.800000
-93.047720	6.300000
-90.389236	-6.650000
-87.733677	-0.550000
-85.076688	-0.200000
-82.424798	-5.550000
-79.771478	-5.450000
-77.121077	3.300000
-74.469248	-5.450000
-71.822509	7.900000
-69.174340	-2.300000
-66.526914	-7.500000
-63.882403	-5.600000
-61.236462	8.500000
-58.595603	4.400000
-55.953315	-2.500000
-53.313936	1.750000
-50.673128	13.100000
-48.033059	3.500000
-45.398064	-2.750000
-42.761639	-11.750000
-40.128117	-5.850000
-37.493167	-1.200000
-34.863283	8.350000
-32.229805	16.650000
-29.601390	9.900000
-26.973709	-2.150000
-24.344599	10.750000
-21.720547	2.750000
-19.092904	19.850000
-16.470316	4.350000
-13.848458	25.900000
-11.227331	59.650000
-8.606935	148.200000
-5.989426	489.050000
-3.370489	1611.050000
-0.754438	4237.550000
1.860886	6593.150000
4.475481	3242.900000
7.087195	380.650000
9.700337	61.850000
12.308445	30.850000
14.920134	35.500000
17.526793	22.200000
20.134881	-1.300000
22.742243	2.750000
25.344581	10.750000
27.950498	15.650000
30.551392	8.750000
33.153714	19.850000
35.751018	7.700000
38.351899	-3.850000
40.947764	2.750000
43.545057	-0.700000
46.141632	0.950000
48.733197	6.200000
51.326190	-1.800000
53.916322	4.450000
56.507881	4.200000
59.096582	13.750000
61.686709	-8.600000
64.271837	5.550000
66.858393	3.350000
69.444235	9.300000
72.027222	-9.400000
74.611637	16.700000
77.188923	-0.800000
79.769775	4.500000
82.347778	10.200000
84.925070	8.600000
87.503790	4.450000
90.077527	8.050000
92.652691	-5.000000
95.225012	11.650000
97.796626	-6.850000
100.365399	2.350000
102.935599	0.650000
105.502960	12.700000
108.071748	0.250000
110.637699	23.350000
113.200815	5.950000
115.767487	9.400000
118.324937	13.100000
120.888073	14.000000
123.446250	36.450000
126.007981	50.850000
128.564755	70.200000
131.122955	114.900000
133.676203	165.350000
136.228753	237.050000
138.784853	303.750000
141.336005	430.250000
143.886460	536.800000
146.436217	608.600000
148.983155	667.150000
151.529398	709.450000
154.077066	720.950000
156.624038	740.300000
159.166075	719.850000
161.707418	724.900000
164.248068	717.250000
166.790144	710.950000
169.329408	707.800000
171.865863	734.900000
174.401628	691.300000
176.938818	692.600000
179.475317	673.800000
182.009010	690.400000
184.539899	661.350000
187.070100	675.100000
189.601727	662.650000
192.130552	663.100000
194.656578	645.900000
197.181918	660.050000
199.708683	668.700000
202.232652	661.600000
204.755936	665.650000
207.278534	648.800000
209.798340	668.800000
212.317463	671.400000
214.835903	660.550000
217.355768	675.700000
219.868630	688.700000
222.385024	677.350000
224.900737	712.050000
227.411559	725.600000
229.923806	748.200000
232.433270	740.450000
234.942056	736.350000
237.450164	767.550000
239.959696	743.200000
242.464347	770.650000
244.968322	731.000000
247.473721	734.400000
249.974245	726.150000
252.478292	742.150000
254.975369	729.250000
257.475969	716.350000
259.973797	719.050000
262.470952	729.550000
264.967434	735.650000
267.459053	747.000000
269.954192	728.100000
272.446564	748.150000
274.938266	763.550000
277.427205	779.350000
279.917567	743.900000
282.405168	770.150000
284.890009	778.900000
287.378365	770.150000
289.859781	788.900000
292.344711	805.900000
294.824796	812.400000
297.308393	832.850000
299.787147	849.100000
302.267324	898.450000
304.744750	898.750000
307.221512	870.800000
309.697610	818.700000
312.170960	804.750000
314.643649	802.250000
317.115676	784.350000
319.587041	803.950000
322.055663	816.700000
324.523625	805.500000
326.993010	761.250000
329.457572	705.200000
331.925638	713.700000
334.388883	701.300000
336.851472	697.150000
339.313404	661.800000
341.774679	668.700000
344.233219	655.300000
346.693183	641.450000
349.150413	621.600000
351.606989	623.500000
354.062911	604.450000
356.516103	611.100000
358.970718	611.650000
361.420531	620.250000
363.873840	583.100000
366.322350	589.450000
368.770210	578.600000
371.219492	575.300000
373.663979	551.850000
376.109890	556.400000
378.555150	533.700000
380.997692	567.450000
383.439586	558.050000
385.880832	537.150000
388.319364	533.700000
390.759316	538.700000
393.196555	542.350000
395.631083	519.350000
398.069097	532.600000
400.502336	515.800000
402.936995	508.950000
405.366882	518.950000
407.800254	501.950000
410.228856	522.350000
412.656816	504.100000
415.086198	487.750000
417.510814	486.150000
419.936852	490.750000
422.362249	468.900000
424.787006	480.050000
427.207004	486.450000
429.628424	458.750000
432.047148	463.750000
434.467292	468.750000
436.884741	466.300000
439.303610	456.000000
441.719785	424.700000
444.131214	437.600000
446.546119	411.450000
448.958335	401.000000
451.369916	377.050000
453.780863	376.000000
456.189123	362.650000
458.596752	362.900000
461.003748	368.700000
463.410113	356.950000
465.813795	343.200000
468.216847	367.250000
470.619269	356.750000
473.021061	361.600000
475.420175	359.400000
477.820709	378.050000
480.220614	358.250000
482.615797	382.800000
485.014446	392.250000
487.408374	405.550000
489.801677	433.500000
492.194355	486.500000
494.586407	514.300000
496.979877	573.850000
499.368635	658.600000
501.754727	815.950000
504.142239	1078.200000
506.529128	1448.600000
508.913352	2087.500000
511.298996	2985.900000
513.681978	4213.950000
516.062299	5469.750000
518.444039	6314.550000
520.823120	6167.500000
523.203619	5466.750000
525.581462	4515.250000
527.956648	3719.100000
530.331218	3111.550000
532.707205	2645.000000
535.080540	2275.550000
537.455292	2015.050000
539.825358	1801.550000
542.194810	1614.650000
544.565679	1516.000000
546.931867	1360.900000
549.299474	1292.200000
551.664435	1202.950000
554.028784	1142.600000
556.392519	1076.900000
558.757672	1054.050000
561.118153	1002.000000
563.480052	975.650000
565.839310	914.800000
568.195930	926.200000
570.555996	887.400000
572.909370	840.300000
575.266189	827.550000
577.620373	805.250000
579.973948	764.350000
582.326916	736.750000
584.677251	707.400000
587.029004	699.700000
589.374080	649.750000
591.724619	654.700000
594.068486	631.550000
596.417814	633.500000
598.762493	616.800000
601.104548	617.900000
603.448020	613.400000
605.788869	620.850000
608.129115	612.350000
610.466741	646.050000
612.807802	675.850000
615.144226	689.500000
617.482066	715.300000
619.817289	701.950000
622.149895	676.600000
624.483919	627.150000
626.815328	594.200000
629.146139	593.100000
631.476352	587.900000
633.805968	572.150000
636.130960	573.600000
638.461394	554.200000
640.787207	559.450000
643.110412	557.950000
645.435034	553.500000
647.757050	550.900000
650.078472	531.550000
652.397291	539.800000
654.717527	534.050000
657.037169	537.700000
659.354210	525.200000
661.670659	535.900000
663.984510	517.750000
666.299777	545.100000
668.612447	536.200000
670.926532	526.250000
673.236017	537.450000
675.546918	553.700000
677.855226	521.600000
680.162946	513.050000
682.472080	505.000000
684.776622	505.100000
687.080578	489.250000
689.383948	479.550000
691.688732	476.150000
693.988929	468.600000
696.290542	461.750000
698.591569	465.800000
700.888015	442.750000
703.185876	434.350000
705.483153	430.000000
707.779847	432.400000
710.071965	405.050000
712.367494	419.900000
714.658449	411.700000
716.950819	408.750000
719.240614	398.850000
721.529828	422.850000
723.818463	403.900000
726.104525	409.550000
728.392002	400.900000
730.676907	412.350000
732.961235	391.450000
735.242994	389.550000
737.526167	389.850000
739.808763	381.900000
742.086803	390.600000
744.366257	403.100000
746.645136	391.550000
748.923440	405.700000
751.197193	389.300000
753.472361	382.050000
755.746955	389.750000
758.018990	384.700000
760.292438	396.650000
762.563328	375.250000
764.831662	366.350000
767.101409	371.250000
769.368601	382.000000
771.635224	389.200000
773.901276	381.400000
776.164777	390.450000
778.429691	393.600000
780.694035	402.000000
782.953850	380.750000
785.215077	394.600000
787.475737	369.550000
789.733851	391.900000
791.989420	385.400000
794.248379	394.800000
796.500840	396.800000
798.758668	399.750000
801.011977	381.150000
803.262746	413.950000
805.514927	394.700000
807.764569	402.550000
810.015623	411.650000
812.262167	388.250000
814.510122	398.100000
816.755543	385.450000
819.002375	371.500000
821.248646	379.400000
823.490412	397.500000
825.735562	384.800000
827.974239	364.850000
830.216298	385.650000
832.453859	392.650000
834.692832	398.850000
836.929278	363.900000
839.167135	385.900000
841.402467	389.550000
843.635276	380.400000
845.869495	373.350000
848.101193	389.200000
850.332336	369.500000
852.562924	354.700000
854.792958	372.200000
857.022438	364.050000
859.247436	360.350000
861.475808	368.400000
863.699702	357.100000
865.925007	359.550000
868.145836	348.000000
870.370037	348.450000
872.589765	332.300000
874.810903	375.150000
877.031491	365.100000
879.249570	361.600000
881.469058	354.800000
883.684080	358.850000
885.898554	336.700000
888.112481	336.500000
890.325861	328.550000
892.538693	341.950000
894.750978	334.600000
896.960762	351.900000
899.170000	342.350000
901.378693	345.100000
903.584886	346.350000
905.792489	345.700000
907.997595	353.700000
910.202157	360.450000
912.404224	352.100000
914.607700	387.350000
916.808682	400.750000
919.009122	406.100000
921.210971	429.000000
923.406429	441.100000
925.605245	465.900000
927.799624	519.150000
929.997360	579.500000
932.190660	643.700000
934.385369	701.850000
936.577591	746.950000
938.769276	819.350000
940.960423	869.100000
943.149087	870.750000
945.337215	869.400000
947.522861	861.050000
949.711861	855.150000
951.896437	862.600000
954.080478	848.600000
956.267869	854.250000
958.446956	870.250000
960.629394	879.550000
962.811298	886.000000
964.990727	876.050000
967.167684	898.250000
969.346049	896.000000
971.525821	904.900000
973.699244	901.550000
975.876013	914.000000
978.048375	902.450000
980.222145	891.450000
982.391511	833.950000
984.564221	813.200000
986.734466	733.100000
988.904181	678.900000
991.073368	605.750000
993.238158	555.200000
995.406290	531.900000
997.570026	489.950000
999.735170	493.950000
1001.897854	459.900000
1004.060013	435.450000
1006.219715	447.700000
1008.378892	428.100000
1010.539476	411.500000
1012.697605	396.650000
1014.855211	398.550000
1017.012293	380.650000
1019.168851	372.800000
1021.321030	345.550000
1023.474616	357.550000
1025.627680	340.600000
1027.778295	322.850000
1029.930316	311.000000
1032.077965	316.200000
1034.228945	309.800000
1036.375554	300.800000
1038.521644	307.900000
1040.667216	323.750000
1042.814193	305.750000
1044.954881	313.350000
1047.098898	278.500000
1049.240476	291.550000
1051.381536	296.050000
1053.524002	280.800000
1055.660187	289.150000
1057.799699	288.500000
1059.934855	296.800000
1062.073336	284.200000
1064.207464	287.000000
1066.341078	294.700000
1068.476096	280.150000
1070.606766	296.250000
1072.738840	289.750000
1074.868485	276.850000
1076.997617	278.400000
1079.126239	295.650000
1081.254349	276.700000
1083.380033	281.950000
1085.505207	282.250000
1087.631785	294.500000
1089.754025	276.400000
1091.877670	288.400000
1093.996980	281.500000
1096.121519	293.250000
1098.239814	267.950000
1100.359512	263.450000
1102.476793	272.250000
1104.593566	291.700000
1106.709833	279.550000
1108.823685	294.300000
1110.938940	271.750000
1113.049873	288.250000
1115.164118	290.800000
1117.274042	279.200000
1119.385370	270.300000
1121.496193	272.950000
1123.602700	263.600000
1125.712516	270.450000
1127.818019	258.600000
1129.924924	270.700000
1132.025614	262.050000
1134.131516	271.650000
1136.233109	240.500000
1138.336105	260.900000
1140.438600	253.650000
1142.534888	251.200000
1144.636383	245.700000
1146.733576	261.500000
1148.830271	248.750000
1150.926467	277.700000
1153.022165	253.050000
1155.117366	257.800000
1157.210170	251.100000
1159.304376	260.950000
1161.392391	236.350000
1163.485604	241.900000
1165.572630	241.200000
1167.662954	257.600000
1169.748990	229.150000
1171.838324	249.600000
1173.921477	234.000000
1176.006033	255.250000
1178.091990	252.350000
1180.173665	256.300000
1182.256741	249.550000
1184.337432	267.300000
1186.417632	237.650000
1188.497340	262.550000
1190.576557	252.650000
1192.653391	258.500000
1194.727845	259.100000
1196.805591	254.450000
1198.879066	228.600000
1200.953943	266.100000
1203.024552	246.350000
1205.096562	240.250000
1207.166196	238.700000
1209.237231	242.950000
1211.307779	246.600000
1213.374065	249.900000
1215.441752	245.700000
1217.507066	235.850000
1219.573781	230.650000
1221.636241	241.650000
1223.701985	236.000000
1225.763475	246.350000
1227.826366	235.250000
1229.886888	244.900000
1231.946928	235.800000
1234.006484	256.750000
1236.063676	234.000000
1238.120385	261.600000
1240.174732	251.100000
1242.232360	253.550000
1244.287624	252.050000
1246.338649	243.750000
1248.391073	239.450000
1250.443017	241.000000
1252.492603	249.850000
1254.541710	256.050000
1256.590338	239.600000
1258.638488	250.650000
1260.686160	257.000000
1262.729601	253.200000
1264.776318	244.800000
1266.820681	262.500000
1268.864568	253.000000
1270.906103	273.350000
1272.945289	236.950000
1274.987748	271.250000
1277.025984	249.100000
1279.065619	245.750000
1281.104778	234.650000
1283.139720	259.850000
1285.176060	249.300000
1287.210056	244.300000
1289.245449	255.700000
1291.276629	251.300000
1293.309208	246.350000
1295.341315	244.300000
1297.371081	242.150000
1299.402244	243.350000
1301.429200	247.350000
1303.457555	254.150000
1305.481704	232.000000
1307.509119	236.250000
1309.532331	230.400000
1311.556941	249.050000
1313.579216	229.250000
1315.602889	240.300000
1317.624229	236.500000
1319.645102	239.100000
1321.665507	229.300000
1323.681719	254.650000
1325.699328	236.750000
1327.714609	252.100000
1329.733149	250.000000
1331.747499	268.000000
1333.759524	258.000000
1335.774807	278.450000
1337.785904	270.800000
1339.798397	284.950000
1341.806708	287.300000
1343.818275	292.150000
1345.823803	302.000000
1347.832586	310.750000
1349.837191	294.100000
1351.845050	294.950000
1353.852447	281.200000
1355.853813	291.300000
1357.856575	297.050000
1359.858878	285.050000
1361.860721	268.900000
1363.862104	278.000000
1365.861173	240.250000
1367.859785	239.400000
1369.857937	246.900000
1371.855632	245.350000
1373.849164	242.000000
1375.844091	268.400000
1377.838562	223.050000
1379.832576	230.800000
1381.824283	219.250000
1383.815534	240.400000
1385.804480	222.700000
1387.794821	223.800000
1389.784708	211.100000
1391.772290	225.900000
1393.759419	211.900000
1395.744246	224.200000
1397.730468	218.900000
1399.714389	224.750000
1401.697858	217.250000
1403.680875	234.600000
1405.661594	226.350000
1407.643707	246.000000
1409.623523	225.250000
1411.602889	210.150000
1413.578116	226.350000
1415.556581	228.050000
1417.532753	210.250000
1419.508475	221.150000
1421.483749	229.550000
1423.456731	214.150000
1425.429265	218.700000
1427.401351	218.300000
1429.372990	206.550000
1431.340500	217.000000
1433.313084	226.550000
1435.277862	221.850000
1437.247713	192.650000
1439.213439	228.150000
1441.180559	216.150000
1443.145395	219.400000
1445.106111	213.100000
1447.071895	227.550000
1449.031724	225.250000
1450.992947	239.500000
1452.955561	226.500000
1454.914061	236.150000
1456.872119	226.300000
1458.829735	225.450000
1460.786908	228.350000
1462.741806	225.850000
1464.698097	211.350000
1466.652113	216.650000
1468.605688	206.000000
1470.556991	226.200000
1472.509686	209.250000
1474.460110	207.450000
1476.410095	215.200000
1478.359641	206.650000
1480.306918	208.600000
1482.251927	205.650000
1484.198329	206.550000
1486.144293	196.100000
1488.089820	209.200000
1490.033081	192.150000
1491.975906	184.800000
1493.916468	184.150000
1495.858422	202.500000
1497.798113	215.850000
1499.737369	208.950000
1501.676191	206.700000
1503.612753	201.650000
1505.550706	209.500000
1507.486400	218.750000
1509.421661	208.150000
1511.354665	216.300000
1513.287237	213.600000
1515.219377	226.650000
1517.151085	216.200000
1519.080540	205.650000
1521.011385	215.350000
1522.941798	209.800000
1524.868139	225.600000
1526.795870	214.250000
1528.721352	221.450000
1530.646404	211.700000
1532.571027	226.950000
1534.495220	244.550000
1536.417167	232.200000
1538.340504	224.300000
1540.261594	240.200000
1542.180440	224.550000
1544.100676	243.450000
1546.018668	229.650000
1547.936234	257.400000
1549.851559	255.500000
1551.768273	250.150000
1553.680932	255.550000
1555.596794	265.000000
1557.510418	249.350000
1559.421803	258.850000
1561.334578	259.700000
1563.243303	266.550000
1565.153417	285.850000
1567.063108	292.600000
1568.972376	299.850000
1570.879409	328.600000
1572.784210	319.850000
1574.690400	350.450000
1576.594359	342.750000
1578.497896	388.050000
1580.401013	407.800000
1582.301900	476.900000
1584.204176	488.500000
1586.104223	540.500000
1588.005659	600.500000
1589.903061	653.900000
1591.800044	719.600000
1593.696609	741.450000
1595.594561	718.100000
1597.486679	681.450000
1599.381991	593.550000
1601.276885	511.850000
1603.169557	442.050000
1605.061812	402.050000
1606.951848	362.050000
1608.841468	328.050000
1610.730673	290.650000
1612.619462	298.800000
1614.506035	268.600000
1616.393995	263.250000
1618.277938	244.800000
1620.163268	248.650000
1622.048185	228.000000
1623.930888	240.300000
1625.814978	233.300000
1627.695056	228.050000
1629.576522	210.350000
1631.455776	221.150000
1633.336418	198.950000
1635.211255	198.900000
1637.091073	200.150000
1638.966887	190.800000
1640.842290	184.250000
1642.719079	205.900000
1644.590071	185.850000
1646.464246	176.650000
1648.334421	183.050000
1650.207777	176.150000
1652.078930	178.950000
1653.947881	180.200000
1655.818218	170.300000
1657.684562	189.850000
1659.552291	177.950000
1661.417821	191.400000
1663.284737	166.800000
1665.147663	175.950000
1667.011976	174.000000
1668.874092	164.700000
1670.735803	155.300000
1672.598899	150.900000
1674.459801	153.750000
1676.318510	174.500000
1678.176815	141.750000
1680.036504	160.600000
1681.890427	153.600000
1683.747523	155.300000
1685.604215	157.300000
1687.456932	158.750000
1689.312820	149.400000
1691.164734	151.950000
1693.016247	148.650000
1694.867359	154.400000
1696.718070	143.800000
1698.568381	160.050000
1700.416508	141.600000
1702.266019	161.450000
1704.109780	132.300000
1705.958492	141.450000
1707.801457	149.850000
1709.647588	151.450000
1711.489758	149.100000
1713.335093	170.750000
1715.174687	148.700000
1717.015665	151.750000
1718.858026	141.400000
1720.696430	136.600000
1722.536218	143.950000
1724.373831	151.400000
1726.211049	148.050000
1728.046093	150.500000
1729.882520	148.150000
1731.716774	142.900000
1733.550635	147.950000
1735.384101	161.750000
1737.213621	146.600000
1739.046301	154.850000
1740.875035	144.750000
1742.706928	151.200000
1744.534878	154.600000
1746.362436	148.300000
1748.189603	142.050000
1750.016378	131.100000
1751.842761	141.000000
1753.665208	164.850000
1755.490810	147.900000
1757.312477	145.700000
1759.135525	162.000000
1760.956413	151.450000
1762.776912	137.650000
1764.598791	145.750000
1766.414971	132.900000
1768.234303	147.500000
1770.049708	131.200000
1771.868264	150.900000
1773.682894	127.100000
1775.497137	132.950000
1777.310994	136.650000
1779.124464	136.250000
1780.935780	133.050000
1782.748478	153.250000
1784.560790	147.400000
1786.369183	138.600000
1788.178958	148.300000
1789.984818	146.850000
1791.793823	127.350000
1793.598915	147.850000
1795.405388	141.050000
1797.211476	146.650000
1799.013655	133.700000
1800.818978	138.200000
1802.620391	118.700000
1804.423186	137.100000
1806.222074	144.800000
1808.022343	150.300000
1809.822230	128.300000
1811.619975	153.050000
1813.417340	159.650000
1815.214324	142.300000
1817.010929	137.500000
1818.805393	157.600000
1820.601238	129.950000
1822.391427	164.050000
1824.186513	141.100000
1825.975946	149.800000
1827.768517	142.200000
1829.558952	151.400000
1831.347252	143.200000
1833.138688	145.800000
1834.924479	127.050000
1836.711649	145.250000
1838.496687	141.000000
1840.284858	156.600000
1842.069145	138.400000
1843.851301	144.050000
1845.634837	147.550000
1847.416244	150.350000
1849.199029	144.350000
1850.977935	157.900000
1852.758219	136.700000
1854.536378	151.550000
1856.315914	134.400000
1858.093326	149.800000
1859.868615	136.500000
1861.645281	153.100000
1863.419825	147.050000
1865.195746	144.600000
1866.966048	144.300000
1868.739477	133.350000
1870.510786	140.350000
1872.281724	142.650000
1874.054040	149.000000
1875.820742	144.800000
1877.590569	133.950000
1879.356533	153.500000
1881.125621	136.400000
1882.890847	118.200000
1884.655705	144.000000
1886.421939	140.500000
1888.184316	119.750000
1889.946324	141.000000
1891.707966	126.600000
1893.469240	133.550000
1895.230148	125.050000
1896.990688	136.350000
1898.749120	131.000000
1900.507185	136.350000
1902.263143	118.000000
1904.020477	134.850000
1905.777446	131.250000
1907.532308	127.050000
1909.285066	129.100000
1911.037459	131.900000
1912.791229	116.200000
1914.542895	128.100000
1916.292458	132.350000
1918.043398	116.650000
1919.793974	126.750000
1921.540712	145.500000
1923.288825	128.050000
1925.034840	120.850000
1926.782229	129.300000
1928.527520	148.050000
1930.270715	116.350000
1932.015284	133.850000
1933.757757	128.200000
1935.499871	147.300000
1937.241624	133.800000
1938.983017	141.050000
1940.722317	134.900000
1942.461258	132.300000
1944.199840	121.150000
1945.936331	135.700000
1947.672463	136.400000
1949.409971	137.100000
1951.143656	133.600000
1952.878716	144.150000
1954.611687	116.700000
1956.344302	140.500000
1958.076560	125.700000
1959.808462	138.600000
1961.538279	122.750000
1963.266010	122.050000
1964.995116	130.950000
1966.723866	134.350000
1968.450533	115.250000
1970.176846	130.600000
1971.904533	105.200000
1973.626683	127.200000
1975.351934	115.600000
1977.073378	138.100000
1978.797922	129.150000
1980.520387	124.250000
1982.239048	128.450000
1983.960809	137.350000
1985.678767	119.850000
1987.398098	127.200000
1989.113630	122.350000
1990.833982	133.400000
1992.550536	125.950000
1994.263293	140.750000
1995.979146	112.600000
1997.692927	122.750000
1999.406358	118.700000
2001.117718	119.000000
2002.830450	130.000000
2004.539392	125.050000
2006.251426	113.750000
2007.957951	129.800000
2009.667569	121.700000
2011.375119	120.500000
2013.082322	144.150000
2014.787459	130.450000
2016.492250	105.300000
2018.198412	125.600000
2019.900791	124.800000
2021.604543	142.550000
2023.306232	108.750000
2025.007575	130.500000
2026.708574	123.850000
2028.407511	129.600000
2030.107820	121.200000
2031.804353	117.650000
2033.502258	115.850000
2035.198105	117.350000
2036.897037	106.900000
2038.590483	125.450000
2040.285300	115.500000
2041.979774	137.600000
2043.670481	127.900000
2045.364270	128.750000
2047.054294	129.100000
2048.745688	123.200000
2050.435028	132.600000
2052.125740	116.600000
2053.812688	122.150000
2055.499296	127.600000
2057.187275	123.300000
2058.871494	125.600000
2060.557083	115.000000
2062.242333	129.250000
2063.925535	117.550000
2065.610107	126.800000
2067.289215	117.950000
2068.973110	116.750000
2070.651543	113.800000
2072.333054	138.100000
2074.010813	110.900000
2075.688236	114.750000
2077.367028	122.700000
2079.043777	120.250000
2080.718485	117.400000
2082.394563	105.900000
2084.068599	117.950000
2085.742301	121.050000
2087.415667	109.200000
2089.086994	121.250000
2090.757987	113.400000
2092.428646	129.350000
2094.098971	114.750000
2095.768962	100.700000
2097.436917	118.150000
2099.104538	113.800000
2100.770126	100.000000
2102.437082	107.150000
2104.102005	105.750000
2105.766596	112.450000
2107.429155	123.750000
2109.093082	109.200000
2110.754978	112.100000
2112.416544	120.800000
2114.077778	101.750000
2115.736983	98.400000
2117.395859	124.600000
2119.054405	120.950000
2120.712620	113.950000
2122.367113	99.200000
2124.024670	104.350000
2125.681897	112.650000
2127.335404	100.800000
2128.990278	125.000000
2130.641433	108.350000
2132.295651	99.750000
2133.946151	108.150000
2135.598019	122.600000
2137.244478	109.050000
2138.895691	108.250000
2140.543192	103.400000
2142.192059	122.800000
2143.838907	112.450000
2145.485430	123.100000
2147.131627	110.500000
2148.774116	108.700000
2150.419662	108.800000
2152.061502	131.750000
2153.706399	117.650000
2155.347591	103.150000
2156.988459	109.800000
2158.629004	116.350000
2160.267536	123.850000
2161.907434	124.350000
2163.543632	117.850000
2165.181196	107.100000
2166.818438	115.350000
2168.453670	116.000000
2170.088580	111.200000
2171.723169	120.900000
2173.357437	92.150000
2174.988011	104.250000
2176.621637	101.950000
2178.251571	123.300000
2179.882870	108.150000
2181.512164	125.350000
2183.141139	100.350000
2184.769794	123.500000
2186.398130	102.350000
2188.024463	113.500000
2189.650478	117.200000
2191.274492	111.400000
2192.899871	118.900000
2194.523249	129.950000
2196.147992	110.750000
2197.769054	121.700000
2199.389799	115.950000
2201.011908	112.400000
2202.632020	110.150000
2204.250136	121.000000
2205.867936	102.850000
2207.485420	119.100000
2209.102590	105.600000
2210.719443	115.100000
2212.335982	102.500000
2213.950528	112.400000
2215.563081	111.150000
2217.176998	110.150000
2218.788924	111.700000
2220.402213	118.400000
2222.013512	110.150000
2223.622821	114.000000
2225.233493	99.050000
2226.842177	103.700000
2228.450549	101.550000
2230.056934	119.300000
2231.664681	89.100000
2233.270443	109.050000
2234.875893	93.150000
2236.479358	101.900000
2238.084186	94.400000
2239.687030	105.100000
2241.287891	106.300000
2242.890115	105.300000
2244.490357	119.450000
2246.091961	126.900000
2247.689912	116.950000
2249.289226	117.250000
2250.886560	116.100000
2252.483586	114.800000
2254.081973	92.450000
2255.676713	103.500000
2257.269475	101.050000
2258.863600	112.550000
2260.459086	102.800000
2262.050927	119.500000
2263.642462	113.300000
2265.235359	115.800000
2266.822946	94.350000
2268.415229	116.850000
2270.002205	93.800000
2271.592210	121.450000
2273.176910	108.000000
2274.766304	125.600000
2276.350395	103.250000
2277.935848	113.750000
2279.519332	111.100000
2281.105841	102.550000
2282.688717	91.500000
2284.271290	112.350000
2285.853559	109.050000
2287.432198	112.100000
2289.013862	108.950000
2290.591897	109.950000
2292.172955	84.600000
2293.750386	90.475000
2295.325854	96.350000
2296.904344	108.800000
2298.479210	108.900000
2300.053775	93.350000
2301.628039	100.700000
2303.202003	116.900000
2304.775667	103.450000
2306.349031	113.250000
2307.918776	108.100000
2309.488222	119.750000
2311.060686	90.350000
2312.627876	119.700000
2314.198083	92.450000
2315.764677	117.550000
2317.332629	105.300000
2318.898627	93.300000
2320.464327	96.750000
2322.029729	104.150000
2323.593178	100.650000
2325.157986	109.750000
2326.719186	88.650000
2328.283399	127.550000
2329.842352	122.350000
2331.404318	121.450000
2332.964334	100.800000
2334.524054	106.850000
2336.081826	97.050000
2337.639302	111.850000
2339.196484	96.150000
2340.751718	92.000000
2342.306659	94.250000
2343.861305	109.050000
2345.415658	108.350000
2346.969717	97.950000
2348.523483	107.450000
2350.075304	116.550000
2351.625182	104.850000
2353.178069	123.900000
2354.725712	105.950000
2356.276364	100.400000
2357.823424	106.800000
2359.371842	102.350000
2360.919969	103.150000
2362.464507	105.250000
2364.010403	100.150000
2365.554361	98.350000
2367.099675	84.500000
2368.641405	105.050000
2370.184493	98.150000
2371.725644	110.100000
2373.266506	97.450000
2374.807079	89.900000
2376.347363	86.450000
2377.887358	107.750000
2379.423774	92.500000
2380.963192	85.550000
2382.499033	107.250000
2384.036231	106.450000
2385.569853	92.550000
2387.106475	101.700000
2388.641167	94.550000
2390.173929	100.600000
2391.706404	103.750000
2393.236951	113.750000
2394.770496	114.400000
2396.298830	105.400000
2397.828520	111.550000
2399.357925	102.350000
2400.887045	104.300000
2402.415879	102.550000
2403.939509	101.250000
2405.467774	98.250000
2406.990837	114.650000
2408.518533	109.600000
2410.039390	94.300000
2411.564879	100.750000
2413.086809	107.450000
2414.610093	118.250000
2416.131457	105.850000
2417.650901	110.100000
2419.171700	97.250000
2420.690580	101.300000
2422.209179	113.650000
2423.725859	108.800000
2425.243895	108.100000
2426.761649	108.150000
2428.275851	116.750000
2429.789774	111.600000
2431.303416	113.750000
2432.818412	123.100000
2434.329861	109.450000
2435.842663	120.850000
2437.353553	119.650000
2438.864164	128.200000
2440.372863	115.450000
2441.884548	146.900000
2443.392690	128.900000
2444.900554	123.450000
2446.408139	117.400000
2447.912185	134.000000
2449.419215	132.050000
2450.924337	134.100000
2452.429182	131.350000
2453.932120	137.800000
2455.434782	125.100000
2456.937167	134.600000
2458.437647	123.750000
2459.939480	130.350000
2461.439408	113.500000
2462.939061	127.850000
2464.438439	126.650000
2465.935914	122.000000
2467.431487	120.000000
2468.930040	122.450000
2470.425065	109.300000
2471.921442	126.600000
2473.414293	109.950000
2474.908497	118.000000
2476.402427	116.550000
2477.892833	112.150000
2479.386217	117.650000
2480.877703	117.350000
2482.367292	120.350000
2483.856609	97.250000
2485.344030	118.300000
2486.834427	115.900000
2488.321306	99.550000
2489.809536	115.200000
2491.294249	100.500000
2492.778692	102.100000
2494.264487	92.550000
2495.748390	91.450000
2497.233643	93.750000
2498.713763	110.950000
2500.196856	95.900000
2501.678058	96.450000
2503.158991	102.650000
2504.638035	113.450000
2506.116810	103.950000
2507.595317	105.250000
2509.073555	83.900000
2510.551526	115.250000
2512.025991	85.400000
2513.503426	94.250000
2514.977356	90.850000
2516.452638	91.050000
2517.927652	95.000000
2519.399165	89.500000
2520.872029	86.050000
2522.343010	97.150000
2523.815341	88.550000
2525.282558	99.000000
2526.752742	104.300000
2528.221045	110.600000
2529.689083	93.800000
2531.156855	102.850000
2532.624363	93.100000
2534.091607	115.050000
2535.555358	95.150000
2537.020459	100.400000
2538.483683	85.450000
2539.948256	97.450000
2541.409341	89.100000
2542.871775	94.950000
2544.333946	102.400000
2545.792630	106.100000
2547.255887	99.850000
2548.714047	106.600000
2550.173557	100.700000
2551.627972	109.500000
2553.086958	98.450000
2554.544072	106.700000
2555.999314	93.000000
2557.454296	92.000000
2558.907408	90.400000
2560.361869	93.600000
2561.814461	117.650000
2563.266793	104.200000
2564.717257	98.350000
2566.170678	94.300000
2567.619016	100.350000
2569.070309	114.350000
2570.519737	105.750000
2571.965692	94.450000
2573.414602	93.250000
2574.860042	91.950000
2576.306829	106.500000
2577.751753	113.850000
2579.196420	110.950000
2580.642434	102.050000
2582.084982	108.850000
2583.528876	117.300000
2584.969306	97.100000
2586.411084	119.550000
2587.851002	91.650000
2589.292267	126.800000
2590.730070	105.750000
2592.170823	105.750000
2593.606514	90.100000
2595.045153	113.050000
2596.481936	106.600000
2597.916863	108.000000
2599.354737	103.000000
2600.787554	104.150000
2602.221718	95.100000
2603.654028	97.950000
2605.087684	111.150000
2606.519487	119.750000
2607.951036	95.100000
2609.382332	111.550000
2610.811777	108.450000
2612.240969	128.100000
2613.668310	99.950000
2615.096998	117.100000
2616.525433	107.100000
2617.950422	125.950000
2619.376756	120.000000
2620.801243	112.850000
2622.227075	123.550000
2623.649463	131.250000
2625.073196	122.350000
2626.495084	159.250000
2627.916721	122.700000
2629.336514	157.050000
2630.757652	139.300000
2632.178540	141.200000
2633.595989	132.250000
2635.016378	135.700000
2636.433330	164.550000
2637.850034	148.500000
2639.266489	176.800000
2640.682696	183.050000
2642.098655	157.050000
2643.512773	197.950000
2644.926643	187.150000
2646.338674	201.200000
2647.752050	189.150000
2649.161996	215.650000
2650.574878	231.450000
2651.984331	222.300000
2653.393538	226.050000
2654.800909	236.400000
2656.211214	260.850000
2657.619683	271.350000
2659.026318	277.400000
2660.432707	300.650000
2661.837262	302.500000
2663.243161	325.450000
2664.647227	348.150000
2666.051048	386.450000
2667.454625	391.300000
2668.856371	432.400000
2670.259460	409.050000
2671.659131	452.650000
2673.060146	441.800000
2674.457745	465.000000
2675.858273	485.950000
2677.255387	478.100000
2678.653844	476.250000
2680.050474	501.050000
2681.446861	480.800000
2682.843006	498.400000
2684.237325	467.350000
2685.632987	471.800000
2687.025240	459.900000
2688.418835	453.350000
2689.810606	420.750000
2691.203720	428.450000
2692.595010	400.000000
2693.984477	386.400000
2695.373704	352.050000
2696.762692	337.300000
2698.153021	329.100000
2699.538367	323.200000
2700.926636	297.450000
2702.313085	290.000000
2703.699295	265.850000
2705.085266	264.400000
2706.467839	256.250000
2707.851754	221.550000
2709.235430	220.600000
2710.618869	220.850000
2711.998912	203.350000
2713.380297	202.200000
2714.759867	178.950000
2716.140777	185.450000
2717.519873	181.350000
2718.897155	177.150000
2720.275778	165.100000
2721.652587	147.700000
2723.029161	157.200000
2724.405499	147.800000
2725.780025	145.750000
2727.155892	134.650000
2728.528373	126.850000
2729.903769	138.900000
2731.274205	135.400000
2732.645981	117.950000
2734.017524	128.200000
2735.387258	127.000000
2736.758332	108.600000
2738.127599	137.250000
2739.496632	114.150000
2740.863859	122.350000
2742.230852	119.350000
2743.597613	111.950000
2744.964141	100.350000
2746.328865	123.150000
2747.693356	94.000000
2749.057616	121.450000
2750.421643	99.000000
2751.785438	109.400000
2753.145861	89.400000
2754.509193	103.050000
2755.867583	79.100000
2757.228883	107.100000
2758.586813	97.800000
2759.947651	107.100000
2761.306689	91.800000
2762.662360	94.350000
2764.020938	79.550000
2765.376149	102.450000
2766.731131	90.400000
2768.084316	98.100000
2769.440408	91.200000
2770.793136	100.100000
2772.145636	81.050000
2773.497907	88.350000
2774.851516	90.350000
2776.201765	99.050000
2777.550219	90.600000
2778.901578	96.650000
2780.249579	89.800000
2781.598917	83.950000
2782.946463	72.100000
2784.293783	84.900000
2785.640875	88.950000
2786.986177	78.850000
2788.331253	89.800000
2789.676103	90.550000
2791.020727	77.450000
2792.361999	89.100000
2793.704608	78.000000
2795.046993	100.100000
2796.389152	85.000000
2797.727962	81.600000
2799.069672	81.100000
2800.408033	86.450000
2801.747732	81.000000
2803.085646	90.900000
2804.421774	86.100000
2805.757680	76.350000
2807.094923	57.500000
2808.430382	93.750000
2809.765617	77.200000
2811.099071	98.700000
2812.433861	77.400000
2813.765311	85.050000
2815.099656	83.550000
2816.429102	86.900000
2817.759886	88.050000
2819.090449	84.750000
2820.419232	73.350000
2821.749351	84.350000
2823.077692	71.200000
2824.405812	96.300000
2825.732154	83.450000
2827.059832	91.550000
2828.384178	90.350000
2829.709860	86.600000
2831.033766	85.350000
2832.357452	90.450000
2833.682474	75.500000
2835.004167	76.200000
2836.325641	72.450000
2837.646895	84.100000
2838.967932	88.800000
2840.287195	82.650000
2841.607794	79.600000
2842.926621	84.600000
2844.245231	60.800000
2845.562069	77.650000
2846.878690	75.550000
2848.195094	71.150000
2849.509728	89.100000
2850.825697	72.950000
2852.138347	84.400000
2853.452331	77.600000
2854.766099	84.650000
2856.079650	78.800000
2857.391435	69.000000
2858.701453	72.600000
2860.012806	72.550000
2861.320844	76.050000
2862.630216	75.150000
2863.939373	92.700000
2865.248316	77.150000
2866.555494	75.650000
2867.860910	72.450000
2869.167659	80.050000
2870.472647	59.250000
2871.777420	88.150000
2873.080433	77.400000
2874.386326	94.800000
2875.687365	69.600000
2876.989737	86.600000
2878.290351	71.300000
2879.592297	78.950000
2880.894031	72.100000
2882.192461	49.350000
2883.492224	71.150000
2884.790230	80.250000
2886.088024	62.050000
2887.384062	62.600000
2888.681432	59.800000
2889.977048	82.000000
2891.272452	70.400000
2892.567645	65.200000
2893.859541	77.150000
2895.154312	81.550000
2896.445788	64.500000
2897.738596	75.150000
2899.031194	55.450000
2900.320497	83.250000
2901.611134	66.700000
2902.900019	84.500000
2904.190236	69.400000
2905.477162	81.050000
2906.765420	62.850000
2908.051929	76.200000
2909.338229	67.750000
2910.624321	89.400000
2911.908665	69.850000
2913.195881	77.100000
2914.478270	69.850000
2915.761991	59.600000
2917.043965	70.400000
2918.325733	89.300000
2919.605755	61.750000
2920.888648	79.350000
2922.169794	62.300000
2923.447659	82.800000
2924.728393	57.950000
2926.005847	83.050000
2927.283094	70.850000
2928.558599	73.900000
2929.836972	69.000000
2931.110531	73.800000
2932.386957	61.900000
2933.661642	63.100000
2934.934586	80.800000
2936.208862	68.750000
2937.481398	71.050000
2938.753729	71.300000
2940.022788	65.000000
2941.294712	73.500000
2942.564898	63.000000
2943.834880	69.100000
2945.104659	70.250000
2946.372702	87.200000
2947.639008	57.700000
2948.905112	68.700000
2950.172547	63.350000
2951.438246	77.000000
2952.703744	61.850000
2953.969039	77.200000
2955.231069	60.700000
2956.494429	57.900000
2957.757588	76.200000
2959.019015	75.700000
2960.281771	81.850000
2961.542795	66.650000
2962.802089	66.950000
2964.061182	61.200000
2965.320076	71.000000
2966.578769	78.050000
2967.837261	61.200000
2969.094025	68.900000
2970.350590	65.050000
2971.605426	86.050000
2972.861592	45.600000
2974.114503	80.750000
2975.368742	57.550000
2976.622783	65.000000
2977.875098	60.900000
2979.127215	71.050000
2980.377607	53.500000
2981.630854	58.400000
2982.879324	65.650000
2984.130649	68.300000
2985.378724	68.750000
2986.626602	79.450000
2987.874284	64.700000
2989.121768	62.500000
2990.367531	57.800000
2991.613098	57.700000
2992.859992	62.000000
2994.103642	65.650000
2995.348619	53.050000
2996.590354	67.050000
2997.834940	73.250000
2999.077807	65.200000
3000.317433	65.450000
3001.559909	68.150000
3002.799145	62.650000
3004.039709	61.250000
3005.278556	60.700000
3006.517209	72.450000
3007.754146	52.750000
3008.992411	64.050000
3010.228960	57.950000
3011.465316	65.850000
3012.701478	66.000000
3013.935926	53.450000
3015.170181	63.250000
3016.404244	60.100000
3017.636593	36.300000
3018.867231	65.050000
3020.100715	63.050000
3021.332488	56.400000
3022.562549	61.600000
3023.792419	76.200000
3025.020579	52.750000
3026.250066	75.200000
3027.477843	55.950000
3028.705429	69.950000
3029.934341	65.100000
3031.158511	60.750000
3032.385524	47.800000
3033.609314	54.050000
3034.834429	42.950000
3036.057839	50.400000
3037.281058	53.050000
3038.502572	66.550000
3039.726927	58.200000
3040.946547	62.750000
3042.167493	57.350000
3043.388249	67.750000
3044.607303	61.400000
3045.827681	57.750000
3047.044843	61.300000
3048.263330	55.450000
3049.480116	63.900000
3050.696713	67.800000
3051.913123	48.500000
3053.126319	55.250000
3054.342353	60.100000
3055.555175	53.850000
3056.770834	56.750000
3057.981771	65.750000
3059.194032	48.700000
3060.406106	56.600000
3061.617994	40.850000
3062.828185	50.050000
3064.038189	48.550000
3065.248007	59.750000
3066.456129	42.550000
3067.664066	52.850000
3068.870307	55.650000
3070.077873	47.300000
3071.283744	49.525000
3072.489430	51.750000
3073.694932	49.400000
3074.898740	75.100000
3076.103872	43.100000
3077.307311	61.250000
3078.509059	50.600000
3079.710622	59.600000
3080.912002	51.050000
3082.113198	61.900000
3083.312704	46.250000
3084.512027	60.700000
3085.712673	44.600000
3086.911629	50.000000
3088.107391	62.050000
3089.305981	52.300000
3090.501378	43.500000
3091.698099	52.450000
3092.891627	57.450000
3094.087983	46.750000
3095.282652	62.350000
3096.474131	61.600000
3097.669942	44.900000
3098.861058	43.050000
3100.053498	49.650000
3101.242749	61.850000
3102.434827	54.700000
3103.625221	39.900000
3104.812429	54.350000
3106.000959	45.850000
3107.190812	42.850000
3108.377480	51.750000
3109.563969	68.200000
3110.750279	53.800000
3111.937910	41.150000
3113.122359	61.600000
3114.305129	49.300000
3115.490721	63.050000
3116.674634	44.750000
3117.856867	44.450000
3119.038923	38.300000
3120.220800	54.700000
3121.402499	50.650000
3122.582521	44.200000
3123.760866	63.700000
3124.942031	32.550000
3126.120021	52.100000
3127.297834	46.400000
3128.475470	55.100000
3129.651431	54.300000
3130.827216	41.250000
3132.004321	60.400000
3133.179753	50.400000
3134.353511	54.850000
3135.525596	48.700000
3136.699003	62.000000
3137.872233	45.450000
3139.043792	59.250000
3140.216671	57.450000
3141.386383	34.450000
3142.557416	50.800000
3143.726778	56.200000
3144.894471	52.800000
3146.064979	38.700000
3147.230829	51.150000
3148.400987	36.850000
3149.566488	48.550000
3150.731816	50.750000
3151.896970	54.350000
3153.061951	47.150000
3154.228251	67.100000
3155.389898	43.750000
3156.552866	47.000000
3157.715661	58.350000
3158.878283	43.350000
3160.039239	54.950000
3161.200024	58.350000
3162.360636	64.750000
3163.519584	57.950000
3164.678361	49.900000
3165.836965	37.900000
3166.995398	54.550000
3168.153660	51.800000
3169.310259	53.800000
3170.465197	43.400000
3171.621454	55.050000
3172.776050	37.200000
3173.930476	45.900000
3175.083242	52.800000
3176.235837	53.350000
3177.388263	33.150000
3178.540518	38.350000
3179.692604	39.700000
3180.841543	39.450000
3181.993289	45.900000
3183.143378	48.900000
3184.291810	40.550000
3185.440072	43.100000
3186.588166	38.950000
3187.736091	46.350000
3188.882360	45.250000
3190.028461	56.200000
3191.172908	64.300000
3192.317187	60.550000
3193.461297	36.550000
3194.606726	61.250000
3195.749016	53.200000
3196.891139	54.000000
3198.033094	52.850000
3199.174882	62.950000
3200.316503	45.100000
3201.454989	47.700000
3202.594792	50.300000
3203.735912	48.000000
3204.873899	33.300000
3206.010235	43.950000
3207.146407	42.000000
3208.283895	51.050000
3209.419735	51.350000
3210.556892	38.750000
3211.689436	40.700000
3212.826261	62.150000
3213.958476	37.700000
3215.092007	54.000000
3216.225373	32.200000
3217.355613	55.450000
3218.488650	52.000000
3219.618561	54.000000
3220.749788	45.300000
3221.877891	50.600000
3223.008790	37.050000
3224.138045	65.700000
3225.265657	38.550000
3226.390146	71.300000
3227.518911	42.300000
3228.644554	51.250000
3229.770034	53.450000
3230.893873	49.000000
3232.020507	55.450000
3233.142543	53.000000
3234.265895	58.850000
3235.389085	64.500000
3236.512112	55.300000
3237.633501	59.950000
3238.754727	46.400000
3239.874315	58.850000
3240.993742	44.300000
3242.111532	62.300000
3243.232113	45.150000
3244.349581	60.050000
3245.466888	50.200000
3246.584035	56.350000
3247.699545	55.400000
3248.816371	52.450000
3249.930087	40.600000
3251.046592	51.000000
3252.161462	59.950000
3253.273224	70.350000
3254.384827	61.200000
3255.497745	55.750000
3256.610503	42.650000
3257.720155	58.100000
3258.831122	41.700000
3259.941930	63.000000
3261.051106	50.650000
3262.158651	66.650000
3263.267511	39.550000
3264.376212	49.000000
3265.481811	49.100000
3266.588725	52.950000
3267.694009	48.850000
3268.800607	53.400000
3269.904105	48.850000
3271.008917	54.450000
3272.113572	39.300000
3273.215129	39.400000
3274.316529	36.300000
3275.419243	41.750000
3276.521801	36.850000
3277.621262	53.800000
3278.723507	38.850000
3279.822656	55.250000
3280.920180	30.850000
3282.017550	45.350000
3283.117701	41.500000
3284.214760	46.600000
3285.311663	39.300000
3286.408411	42.600000
3287.500600	40.600000
3288.597039	42.900000
3289.691855	44.400000
3290.786517	47.450000
3291.879556	42.000000
3292.972442	40.150000
3294.063707	25.450000
3295.156285	39.150000
3296.247243	41.450000
3297.336581	49.000000
3298.425766	37.900000
3299.516263	41.200000
3300.603677	24.500000
3301.690937	34.550000
3302.779510	36.850000
3303.867930	56.650000
3304.951804	32.000000
3306.039919	48.650000
3307.124952	30.100000
3308.208370	39.300000
3309.293100	40.900000
3310.376214	44.950000
3311.460641	25.750000
3312.541989	54.450000
3313.624649	32.150000
3314.705694	42.800000
3315.786589	32.350000
3316.865871	33.600000
3317.945002	38.250000
3319.025445	51.800000
3320.102813	37.350000
3321.181493	61.200000
3322.258561	45.900000
3323.335479	26.300000
3324.410787	39.750000
3325.485945	38.600000
3326.562414	37.300000
3327.635813	32.800000
3328.709062	31.700000
3329.783623	60.550000
3330.856575	28.700000
3331.927918	39.150000
3333.000572	30.000000
3334.070159	44.400000
3335.141058	41.200000
3336.210349	38.800000
3337.280950	37.650000
3338.349946	50.600000
3339.417335	23.950000
3340.483119	40.700000
3341.553129	33.900000
3342.620076	49.200000
3343.683961	25.900000
3344.750613	22.000000
3345.815662	25.050000
3346.879107	24.800000
3347.942406	24.300000
3349.005558	31.150000
3350.068564	35.650000
3351.131424	41.700000
3352.192681	52.950000
3353.250882	45.800000
3354.313304	36.050000
3355.372670	33.000000
3356.431890	29.100000
3357.492419	50.050000
3358.548440	23.500000
3359.607224	50.550000
3360.661501	41.300000
3361.718542	51.850000
3362.773984	41.500000
3363.830736	50.400000
3364.885889	22.950000
3365.939445	38.600000
3366.991404	25.550000
3368.046126	44.350000
3369.097798	52.700000
3370.149327	39.650000
3371.202164	25.750000
3372.251954	47.850000
3373.303053	33.300000
3374.351105	36.350000
3375.401918	34.050000
3376.449685	40.200000
3377.497310	19.200000
3378.544793	41.900000
3379.590683	32.350000
3380.637881	45.550000
3381.682037	33.350000
3382.728951	34.800000
3383.774273	40.100000
3384.816554	36.100000
3385.858694	37.000000
3386.902143	34.050000
3387.945450	23.750000
3388.987167	39.150000
3390.028744	23.600000
3391.070179	39.650000
3392.110026	36.850000
3393.148284	34.850000
3394.187850	30.950000
3395.227276	39.900000
3396.265114	32.900000
3397.301365	38.950000
3398.337477	23.750000
3399.374895	25.550000
3400.409281	29.000000
3401.444975	36.700000
3402.480529	40.400000
3403.513052	33.800000
3404.548327	25.000000
3405.580573	46.600000
3406.612680	37.900000
3407.643203	52.700000
3408.675033	44.350000
3409.706725	34.700000
3410.735389	19.500000
3411.763916	28.000000
3412.793749	35.700000
3413.823445	33.550000
3414.850115	35.850000
3415.878091	48.300000
3416.903044	27.450000
3417.930746	43.200000
3418.955424	30.400000
3419.981409	50.650000
3421.005815	55.100000
3422.030084	34.700000
3423.052774	27.800000
3424.075328	37.100000
3425.099188	30.600000
3426.120028	31.250000
3427.140732	26.650000
3428.162742	37.450000
3429.181734	31.650000
3430.200591	43.150000
3431.220754	21.100000
3432.237900	32.250000
