-117.018713	-1.500000
-114.349113	10.600000
-111.682448	-0.350000
-109.016535	-0.250000
-106.353555	2.450000
-103.689144	18.000000
-101.027664	16.150000
-98.364755	2.000000
-95.706952	-5.850000
-93.047720	-3.900000
-90.389236	-5.200000
-87.733677	-11.050000
-85.076688	3.800000
-82.424798	-1.950000
-79.771478	4.150000
-77.121077	7.650000
-74.469248	4.950000
-71.822509	4.500000
-69.174340	3.250000
-66.526914	-8.450000
-63.882403	-5.650000
-61.236462	-3.500000
-58.595603	-13.650000
-55.953315	16.200000
-53.313936	-6.050000
-50.673128	3.900000
-48.033059	-9.350000
-45.398064	15.200000
-42.761639	6.600000
-40.128117	11.600000
-37.493167	5.650000
-34.863283	3.400000
-32.229805	16.100000
-29.601390	3.550000
-26.973709	9.100000
-24.344599	7.200000
-21.720547	2.100000
-19.092904	21.500000
-16.470316	21.000000
-13.848458	27.700000
-11.227331	46.600000
-8.606935	125.450000
-5.989426	411.750000
-3.370489	1572.100000
-0.754438	4230.700000
1.860886	5138.400000
4.475481	2393.850000
7.087195	242.000000
9.700337	43.850000
12.308445	31.900000
14.920134	8.300000
17.526793	27.900000
20.134881	9.750000
22.742243	3.350000
25.344581	-1.400000
27.950498	16.850000
30.551392	10.200000
33.153714	4.750000
35.751018	5.650000
38.351899	9.150000
40.947764	8.200000
43.545057	1.350000
46.141632	11.100000
48.733197	-0.700000
51.326190	-1.350000
53.916322	7.650000
56.507881	7.650000
59.096582	3.500000
61.686709	-6.050000
64.271837	1.950000
66.858393	-7.350000
69.444235	-1.300000
72.027222	9.400000
74.611637	-10.500000
77.188923	1.450000
79.769775	3.000000
82.347778	7.100000
84.925070	9.350000
87.503790	4.550000
90.077527	0.900000
92.652691	11.100000
95.225012	-3.200000
97.796626	10.350000
100.365399	0.050000
102.935599	-2.250000
105.502960	18.550000
108.071748	14.700000
110.637699	7.400000
113.200815	9.750000
115.767487	16.900000
118.324937	15.800000
120.888073	23.450000
123.446250	39.350000
126.007981	40.900000
128.564755	55.050000
131.122955	69.500000
133.676203	116.650000
136.228753	169.650000
138.784853	249.300000
141.336005	320.450000
143.886460	413.250000
146.436217	490.250000
148.983155	535.350000
151.529398	574.200000
154.077066	578.450000
156.624038	597.300000
159.166075	583.050000
161.707418	575.750000
164.248068	576.250000
166.790144	572.400000
169.329408	575.800000
171.865863	573.250000
174.401628	590.400000
176.938818	566.750000
179.475317	571.350000
182.009010	558.650000
184.539899	553.600000
187.070100	558.300000
189.601727	558.350000
192.130552	570.450000
194.656578	553.300000
197.181918	547.750000
199.708683	535.700000
202.232652	534.900000
204.755936	553.900000
207.278534	558.500000
209.798340	549.700000
212.317463	538.700000
214.835903	541.450000
217.355768	561.750000
219.868630	563.950000
222.385024	582.600000
224.900737	575.050000
227.411559	602.550000
229.923806	591.500000
232.433270	614.200000
234.942056	601.900000
237.450164	586.000000
239.959696	602.350000
242.464347	598.900000
244.968322	612.600000
247.473721	607.600000
249.974245	612.100000
252.478292	616.550000
254.975369	615.550000
257.475969	623.250000
259.973797	619.350000
262.470952	618.150000
264.967434	632.400000
267.459053	645.550000
269.954192	622.950000
272.446564	635.300000
274.938266	633.950000
277.427205	643.100000
279.917567	636.600000
282.405168	630.750000
284.890009	647.300000
287.378365	634.900000
289.859781	657.150000
292.344711	673.250000
294.824796	683.550000
297.308393	698.750000
299.787147	712.400000
302.267324	735.900000
304.744750	721.700000
307.221512	693.800000
309.697610	690.250000
312.170960	666.000000
314.643649	648.800000
317.115676	644.950000
319.587041	660.750000
322.055663	670.150000
324.523625	661.500000
326.993010	625.650000
329.457572	587.800000
331.925638	576.500000
334.388883	576.100000
336.851472	577.050000
339.313404	570.500000
341.774679	559.950000
344.233219	551.600000
346.693183	544.600000
349.150413	536.050000
351.606989	531.550000
354.062911	529.250000
356.516103	512.000000
358.970718	518.950000
361.420531	519.450000
363.873840	498.050000
366.322350	502.350000
368.770210	479.400000
371.219492	504.850000
373.663979	491.450000
376.109890	469.700000
378.555150	464.950000
380.997692	457.250000
383.439586	480.250000
385.880832	438.850000
388.319364	456.450000
390.759316	454.400000
393.196555	448.800000
395.631083	435.500000
398.069097	435.050000
400.502336	429.350000
402.936995	433.900000
405.366882	433.900000
407.800254	442.050000
410.228856	428.900000
412.656816	397.500000
415.086198	415.950000
417.510814	409.550000
419.936852	402.650000
422.362249	401.750000
424.787006	400.350000
427.207004	401.800000
429.628424	395.850000
432.047148	394.000000
434.467292	388.750000
436.884741	387.450000
439.303610	371.550000
441.719785	365.700000
444.131214	361.500000
446.546119	338.150000
448.958335	342.500000
451.369916	319.150000
453.780863	319.600000
456.189123	301.300000
458.596752	302.700000
461.003748	294.800000
463.410113	280.350000
465.813795	282.200000
468.216847	287.050000
470.619269	298.050000
473.021061	288.000000
475.420175	305.500000
477.820709	303.750000
480.220614	291.350000
482.615797	290.050000
485.014446	311.950000
487.408374	333.900000
489.801677	333.800000
492.194355	364.600000
494.586407	414.750000
496.979877	444.300000
499.368635	505.100000
501.754727	641.450000
504.142239	816.450000
506.529128	1086.300000
508.913352	1574.700000
511.298996	2264.700000
513.681978	3360.200000
516.062299	4629.300000
518.444039	5759.500000
520.823120	5944.100000
523.203619	5405.800000
525.581462	4431.550000
527.956648	3591.750000
530.331218	2931.050000
532.707205	2463.350000
535.080540	2093.700000
537.455292	1843.200000
539.825358	1635.200000
542.194810	1469.250000
544.565679	1363.900000
546.931867	1257.250000
549.299474	1169.450000
551.664435	1073.000000
554.028784	1036.750000
556.392519	945.050000
558.757672	918.050000
561.118153	859.550000
563.480052	845.400000
565.839310	794.100000
568.195930	779.650000
570.555996	747.800000
572.909370	709.150000
575.266189	675.300000
577.620373	661.900000
579.973948	650.250000
582.326916	619.700000
584.677251	611.100000
587.029004	588.800000
589.374080	585.750000
591.724619	570.400000
594.068486	559.450000
596.417814	557.250000
598.762493	542.050000
601.104548	523.550000
603.448020	517.800000
605.788869	529.950000
608.129115	532.200000
610.466741	548.100000
612.807802	562.500000
615.144226	618.000000
617.482066	640.750000
619.817289	639.850000
622.149895	602.100000
624.483919	603.400000
626.815328	571.750000
629.146139	539.150000
631.476352	529.400000
633.805968	524.150000
636.130960	514.700000
638.461394	543.200000
640.787207	528.350000
643.110412	519.750000
645.435034	496.650000
647.757050	502.550000
650.078472	480.550000
652.397291	488.050000
654.717527	474.250000
657.037169	483.350000
659.354210	472.850000
661.670659	469.250000
663.984510	458.750000
666.299777	466.250000
668.612447	441.650000
670.926532	454.800000
673.236017	453.500000
675.546918	461.500000
677.855226	441.700000
680.162946	439.000000
682.472080	438.400000
684.776622	417.450000
687.080578	409.150000
689.383948	395.750000
691.688732	401.200000
693.988929	383.100000
696.290542	392.350000
698.591569	365.050000
700.888015	378.100000
703.185876	365.650000
705.483153	357.400000
707.779847	366.350000
710.071965	361.500000
712.367494	353.850000
714.658449	362.500000
716.950819	367.250000
719.240614	362.600000
721.529828	352.900000
723.818463	358.050000
726.104525	347.400000
728.392002	349.900000
730.676907	351.550000
732.961235	346.000000
735.242994	341.300000
737.526167	332.150000
739.808763	344.000000
742.086803	355.650000
744.366257	350.300000
746.645136	346.700000
748.923440	360.800000
751.197193	347.800000
753.472361	344.950000
755.746955	344.950000
758.018990	342.300000
760.292438	343.150000
762.563328	345.100000
764.831662	334.050000
767.101409	334.900000
769.368601	325.550000
771.635224	334.050000
773.901276	332.800000
776.164777	341.150000
778.429691	336.800000
780.694035	323.650000
782.953850	348.900000
785.215077	340.650000
787.475737	332.700000
789.733851	336.650000
791.989420	339.850000
794.248379	346.400000
796.500840	328.200000
798.758668	352.700000
801.011977	336.000000
803.262746	332.000000
805.514927	338.550000
807.764569	334.850000
810.015623	335.500000
812.262167	348.200000
814.510122	327.350000
816.755543	333.800000
819.002375	329.050000
821.248646	323.250000
823.490412	346.100000
825.735562	337.650000
827.974239	335.850000
830.216298	329.000000
832.453859	326.750000
834.692832	325.500000
836.929278	328.650000
839.167135	328.100000
841.402467	301.500000
843.635276	319.850000
845.869495	319.650000
848.101193	302.900000
850.332336	302.900000
852.562924	297.950000
854.792958	310.650000
857.022438	315.700000
859.247436	302.300000
861.475808	304.500000
863.699702	305.200000
865.925007	309.150000
868.145836	306.650000
870.370037	302.950000
872.589765	295.300000
874.810903	295.450000
877.031491	298.100000
879.249570	306.050000
881.469058	305.900000
883.684080	312.700000
885.898554	287.250000
888.112481	295.900000
890.325861	305.700000
892.538693	293.550000
894.750978	310.950000
896.960762	312.650000
899.170000	292.250000
901.378693	309.050000
903.584886	292.150000
905.792489	301.350000
907.997595	296.850000
910.202157	300.700000
912.404224	309.100000
914.607700	309.400000
916.808682	300.450000
919.009122	331.600000
921.210971	332.750000
923.406429	331.950000
925.605245	345.750000
927.799624	384.300000
929.997360	416.150000
932.190660	490.350000
934.385369	529.500000
936.577591	585.050000
938.769276	658.800000
940.960423	689.350000
943.149087	704.150000
945.337215	723.400000
947.522861	703.900000
949.711861	695.950000
951.896437	698.600000
954.080478	720.650000
956.267869	710.400000
958.446956	725.800000
960.629394	731.250000
962.811298	728.600000
964.990727	715.650000
967.167684	758.050000
969.346049	737.450000
971.525821	752.650000
973.699244	751.250000
975.876013	737.100000
978.048375	752.800000
980.222145	736.650000
982.391511	724.800000
984.564221	705.750000
986.734466	660.950000
988.904181	623.100000
991.073368	567.400000
993.238158	506.450000
995.406290	465.450000
997.570026	435.250000
999.735170	403.500000
1001.897854	383.200000
1004.060013	355.150000
1006.219715	367.050000
1008.378892	359.700000
1010.539476	344.750000
1012.697605	337.350000
1014.855211	321.550000
1017.012293	312.250000
1019.168851	300.350000
1021.321030	312.000000
1023.474616	274.100000
1025.627680	258.050000
1027.778295	270.850000
1029.930316	254.800000
1032.077965	261.000000
1034.228945	261.000000
1036.375554	258.150000
1038.521644	253.250000
1040.667216	245.250000
1042.814193	230.650000
1044.954881	253.900000
1047.098898	244.150000
1049.240476	240.200000
1051.381536	234.400000
1053.524002	252.500000
1055.660187	245.600000
1057.799699	250.350000
1059.934855	249.000000
1062.073336	243.100000
1064.207464	237.100000
1066.341078	253.950000
1068.476096	251.050000
1070.606766	255.900000
1072.738840	241.000000
1074.868485	241.400000
1076.997617	242.600000
1079.126239	239.100000
1081.254349	249.750000
1083.380033	243.500000
1085.505207	239.850000
1087.631785	261.900000
1089.754025	241.900000
1091.877670	237.800000
1093.996980	245.400000
1096.121519	244.300000
1098.239814	240.000000
1100.359512	238.200000
1102.476793	227.400000
1104.593566	233.600000
1106.709833	234.000000
1108.823685	228.050000
1110.938940	227.350000
1113.049873	243.100000
1115.164118	215.250000
1117.274042	241.150000
1119.385370	230.850000
1121.496193	225.700000
1123.602700	224.200000
1125.712516	223.650000
1127.818019	218.250000
1129.924924	229.450000
1132.025614	205.350000
1134.131516	213.300000
1136.233109	223.500000
1138.336105	209.200000
1140.438600	198.700000
1142.534888	225.550000
1144.636383	209.400000
1146.733576	216.150000
1148.830271	204.400000
1150.926467	200.250000
1153.022165	211.300000
1155.117366	211.200000
1157.210170	208.350000
1159.304376	217.750000
1161.392391	209.700000
1163.485604	211.150000
1165.572630	202.250000
1167.662954	211.000000
1169.748990	199.750000
1171.838324	207.050000
1173.921477	216.150000
1176.006033	205.600000
1178.091990	204.900000
1180.173665	210.400000
1182.256741	197.450000
1184.337432	196.800000
1186.417632	216.600000
1188.497340	211.200000
1190.576557	209.600000
1192.653391	199.700000
1194.727845	192.050000
1196.805591	200.900000
1198.879066	204.050000
1200.953943	216.450000
1203.024552	196.200000
1205.096562	214.400000
1207.166196	207.700000
1209.237231	202.750000
1211.307779	206.500000
1213.374065	193.650000
1215.441752	199.900000
1217.507066	206.350000
1219.573781	199.750000
1221.636241	212.300000
1223.701985	207.850000
1225.763475	208.700000
1227.826366	206.750000
1229.886888	208.150000
1231.946928	221.500000
1234.006484	216.100000
1236.063676	203.900000
1238.120385	207.250000
1240.174732	218.450000
1242.232360	191.650000
1244.287624	202.150000
1246.338649	194.150000
1248.391073	194.000000
1250.443017	194.600000
1252.492603	185.050000
1254.541710	203.300000
1256.590338	201.500000
1258.638488	202.500000
1260.686160	203.450000
1262.729601	206.500000
1264.776318	191.100000
1266.820681	210.450000
1268.864568	209.000000
1270.906103	205.700000
1272.945289	180.850000
1274.987748	195.750000
1277.025984	195.400000
1279.065619	204.100000
1281.104778	193.850000
1283.139720	210.500000
1285.176060	205.150000
1287.210056	209.900000
1289.245449	198.200000
1291.276629	197.150000
1293.309208	183.250000
1295.341315	203.400000
1297.371081	172.000000
1299.402244	190.450000
1301.429200	202.200000
1303.457555	197.700000
1305.481704	189.550000
1307.509119	171.650000
1309.532331	190.400000
1311.556941	193.550000
1313.579216	179.400000
1315.602889	196.950000
1317.624229	197.000000
1319.645102	192.800000
1321.665507	181.000000
1323.681719	190.700000
1325.699328	181.000000
1327.714609	186.850000
1329.733149	172.650000
1331.747499	191.200000
1333.759524	193.800000
1335.774807	191.550000
1337.785904	200.750000
1339.798397	214.050000
1341.806708	210.350000
1343.818275	209.250000
1345.823803	205.000000
1347.832586	220.350000
1349.837191	197.200000
1351.845050	218.200000
1353.852447	193.900000
1355.853813	187.050000
1357.856575	180.450000
1359.858878	190.000000
1361.860721	188.650000
1363.862104	180.250000
1365.861173	194.050000
1367.859785	184.750000
1369.857937	175.400000
1371.855632	196.700000
1373.849164	184.150000
1375.844091	181.450000
1377.838562	175.750000
1379.832576	191.550000
1381.824283	184.750000
1383.815534	181.700000
1385.804480	185.400000
1387.794821	183.250000
1389.784708	170.650000
1391.772290	186.850000
1393.759419	184.350000
1395.744246	175.750000
1397.730468	180.950000
1399.714389	177.400000
1401.697858	168.750000
1403.680875	185.750000
1405.661594	184.500000
1407.643707	182.950000
1409.623523	182.350000
1411.602889	174.850000
1413.578116	182.850000
1415.556581	175.500000
1417.532753	160.400000
1419.508475	167.200000
1421.483749	155.050000
1423.456731	168.750000
1425.429265	167.800000
1427.401351	168.400000
1429.372990	179.950000
1431.340500	175.950000
1433.313084	154.250000
1435.277862	171.500000
1437.247713	165.000000
1439.213439	171.150000
1441.180559	177.600000
1443.145395	161.700000
1445.106111	158.500000
1447.071895	167.450000
1449.031724	155.500000
1450.992947	157.750000
1452.955561	158.900000
1454.914061	171.400000
1456.872119	171.800000
1458.829735	163.000000
1460.786908	156.050000
1462.741806	165.100000
1464.698097	163.950000
1466.652113	158.300000
1468.605688	157.300000
1470.556991	152.500000
1472.509686	152.600000
1474.460110	151.400000
1476.410095	150.150000
1478.359641	171.900000
1480.306918	146.150000
1482.251927	156.250000
1484.198329	155.400000
1486.144293	164.550000
1488.089820	158.350000
1490.033081	156.600000
1491.975906	160.400000
1493.916468	163.100000
1495.858422	157.250000
1497.798113	171.450000
1499.737369	164.550000
1501.676191	168.950000
1503.612753	128.450000
1505.550706	153.350000
1507.486400	170.850000
1509.421661	163.600000
1511.354665	158.700000
1513.287237	158.300000
1515.219377	164.900000
1517.151085	161.850000
1519.080540	151.550000
1521.011385	177.550000
1522.941798	166.150000
1524.868139	156.450000
1526.795870	158.300000
1528.721352	161.850000
1530.646404	158.100000
1532.571027	165.250000
1534.495220	153.950000
1536.417167	175.000000
1538.340504	162.250000
1540.261594	177.300000
1542.180440	162.950000
1544.100676	168.550000
1546.018668	160.300000
1547.936234	175.450000
1549.851559	172.500000
1551.768273	182.100000
1553.680932	196.550000
1555.596794	186.800000
1557.510418	186.000000
1559.421803	196.800000
1561.334578	184.550000
1563.243303	213.900000
1565.153417	209.400000
1567.063108	221.050000
1568.972376	241.450000
1570.879409	241.850000
1572.784210	270.350000
1574.690400	298.900000
1576.594359	331.000000
1578.497896	389.650000
1580.401013	447.300000
1582.301900	521.100000
1584.204176	555.650000
1586.104223	623.350000
1588.005659	663.600000
1589.903061	632.750000
1591.800044	570.050000
1593.696609	501.450000
1595.594561	399.900000
1597.486679	358.150000
1599.381991	291.400000
1601.276885	236.600000
1603.169557	226.550000
1605.061812	215.050000
1606.951848	212.300000
1608.841468	195.350000
1610.730673	185.850000
1612.619462	183.100000
1614.506035	188.900000
1616.393995	175.300000
1618.277938	161.550000
1620.163268	172.650000
1622.048185	162.500000
1623.930888	161.650000
1625.814978	169.500000
1627.695056	161.600000
1629.576522	153.300000
1631.455776	145.350000
1633.336418	152.000000
1635.211255	145.900000
1637.091073	128.550000
1638.966887	138.750000
1640.842290	143.250000
1642.719079	140.850000
1644.590071	134.000000
1646.464246	135.600000
1648.334421	138.600000
1650.207777	133.750000
1652.078930	147.300000
1653.947881	147.850000
1655.818218	130.550000
1657.684562	133.700000
1659.552291	136.150000
1661.417821	127.800000
1663.284737	128.300000
1665.147663	131.650000
1667.011976	141.650000
1668.874092	129.350000
1670.735803	126.550000
1672.598899	117.500000
1674.459801	125.200000
1676.318510	131.250000
1678.176815	123.000000
1680.036504	132.900000
1681.890427	118.950000
1683.747523	126.550000
1685.604215	121.750000
1687.456932	119.400000
1689.312820	115.250000
1691.164734	130.900000
1693.016247	116.900000
1694.867359	114.900000
1696.718070	117.700000
1698.568381	107.350000
1700.416508	117.800000
1702.266019	123.600000
1704.109780	119.900000
1705.958492	119.450000
1707.801457	130.550000
1709.647588	119.300000
1711.489758	123.100000
1713.335093	115.500000
1715.174687	125.650000
1717.015665	130.050000
1718.858026	115.200000
1720.696430	133.250000
1722.536218	120.000000
1724.373831	119.800000
1726.211049	125.150000
1728.046093	120.700000
1729.882520	124.700000
1731.716774	121.200000
1733.550635	104.600000
1735.384101	136.300000
1737.213621	102.000000
1739.046301	116.500000
1740.875035	129.300000
1742.706928	115.950000
1744.534878	116.950000
1746.362436	123.800000
1748.189603	109.150000
1750.016378	112.750000
1751.842761	115.050000
1753.665208	124.400000
1755.490810	112.350000
1757.312477	117.300000
1759.135525	114.800000
1760.956413	110.450000
1762.776912	100.250000
1764.598791	114.950000
1766.414971	114.600000
1768.234303	112.650000
1770.049708	103.900000
1771.868264	119.800000
1773.682894	105.900000
1775.497137	116.750000
1777.310994	109.900000
1779.124464	105.350000
1780.935780	109.300000
1782.748478	119.400000
1784.560790	109.450000
1786.369183	114.350000
1788.178958	109.100000
1789.984818	117.750000
1791.793823	132.250000
1793.598915	120.500000
1795.405388	116.800000
1797.211476	125.700000
1799.013655	111.300000
1800.818978	123.250000
1802.620391	114.050000
1804.423186	113.200000
1806.222074	119.650000
1808.022343	110.950000
1809.822230	109.450000
1811.619975	117.850000
1813.417340	110.450000
1815.214324	122.900000
1817.010929	104.900000
1818.805393	113.600000
1820.601238	110.550000
1822.391427	114.950000
1824.186513	110.300000
1825.975946	119.700000
1827.768517	110.100000
1829.558952	108.950000
1831.347252	112.800000
1833.138688	109.550000
1834.924479	114.650000
1836.711649	115.500000
1838.496687	108.300000
1840.284858	108.100000
1842.069145	112.050000
1843.851301	103.950000
1845.634837	104.300000
1847.416244	110.850000
1849.199029	108.550000
1850.977935	120.950000
1852.758219	108.700000
1854.536378	106.500000
1856.315914	107.550000
1858.093326	129.900000
1859.868615	104.150000
1861.645281	118.400000
1863.419825	123.800000
1865.195746	106.100000
1866.966048	107.050000
1868.739477	118.800000
1870.510786	113.900000
1872.281724	108.900000
1874.054040	105.000000
1875.820742	124.750000
1877.590569	104.450000
1879.356533	114.500000
1881.125621	109.650000
1882.890847	120.500000
1884.655705	111.300000
1886.421939	120.650000
1888.184316	112.300000
1889.946324	108.500000
1891.707966	112.350000
1893.469240	106.400000
1895.230148	106.900000
1896.990688	106.450000
1898.749120	110.650000
1900.507185	117.000000
1902.263143	98.100000
1904.020477	114.800000
1905.777446	100.950000
1907.532308	105.450000
1909.285066	105.600000
1911.037459	106.000000
1912.791229	101.600000
1914.542895	103.200000
1916.292458	109.450000
1918.043398	114.250000
1919.793974	106.200000
1921.540712	111.400000
1923.288825	103.000000
1925.034840	108.350000
1926.782229	97.100000
1928.527520	116.950000
1930.270715	112.500000
1932.015284	98.350000
1933.757757	100.100000
1935.499871	112.050000
1937.241624	96.850000
1938.983017	101.150000
1940.722317	101.750000
1942.461258	116.600000
1944.199840	102.150000
1945.936331	100.300000
1947.672463	100.450000
1949.409971	100.600000
1951.143656	101.350000
1952.878716	100.950000
1954.611687	104.250000
1956.344302	105.900000
1958.076560	103.100000
1959.808462	108.000000
1961.538279	97.150000
1963.266010	113.100000
1964.995116	108.700000
1966.723866	104.800000
1968.450533	108.350000
1970.176846	110.000000
1971.904533	103.850000
1973.626683	89.500000
1975.351934	95.600000
1977.073378	108.200000
1978.797922	103.200000
1980.520387	105.500000
1982.239048	101.800000
1983.960809	101.200000
1985.678767	100.600000
1987.398098	99.500000
1989.113630	99.550000
1990.833982	90.500000
1992.550536	106.250000
1994.263293	98.800000
1995.979146	110.750000
1997.692927	109.400000
1999.406358	96.150000
2001.117718	96.750000
2002.830450	106.300000
2004.539392	112.800000
2006.251426	94.250000
2007.957951	99.350000
2009.667569	104.750000
2011.375119	100.300000
2013.082322	108.300000
2014.787459	97.100000
2016.492250	100.700000
2018.198412	105.450000
2019.900791	90.300000
2021.604543	94.650000
2023.306232	98.100000
2025.007575	106.750000
2026.708574	113.350000
2028.407511	106.150000
2030.107820	96.950000
2031.804353	103.900000
2033.502258	107.250000
2035.198105	100.500000
2036.897037	97.050000
2038.590483	101.950000
2040.285300	89.600000
2041.979774	98.600000
2043.670481	104.900000
2045.364270	103.100000
2047.054294	88.550000
2048.745688	97.100000
2050.435028	99.150000
2052.125740	91.900000
2053.812688	89.700000
2055.499296	102.100000
2057.187275	98.200000
2058.871494	96.100000
2060.557083	89.950000
2062.242333	102.000000
2063.925535	100.800000
2065.610107	101.500000
2067.289215	82.200000
2068.973110	87.300000
2070.651543	85.800000
2072.333054	96.400000
2074.010813	90.850000
2075.688236	89.950000
2077.367028	82.200000
2079.043777	90.100000
2080.718485	99.950000
2082.394563	82.450000
2084.068599	82.950000
2085.742301	106.850000
2087.415667	90.650000
2089.086994	96.500000
2090.757987	74.000000
2092.428646	95.700000
2094.098971	92.500000
2095.768962	98.450000
2097.436917	96.050000
2099.104538	82.150000
2100.770126	92.900000
2102.437082	96.200000
2104.102005	89.500000
2105.766596	107.350000
2107.429155	101.800000
2109.093082	84.650000
2110.754978	89.150000
2112.416544	93.800000
2114.077778	89.900000
2115.736983	97.500000
2117.395859	91.200000
2119.054405	95.800000
2120.712620	79.650000
2122.367113	86.550000
2124.024670	93.400000
2125.681897	90.700000
2127.335404	91.550000
2128.990278	92.700000
2130.641433	87.900000
2132.295651	92.100000
2133.946151	87.850000
2135.598019	89.800000
2137.244478	91.250000
2138.895691	99.200000
2140.543192	79.850000
2142.192059	95.000000
2143.838907	89.300000
2145.485430	95.400000
2147.131627	87.100000
2148.774116	96.250000
2150.419662	86.650000
2152.061502	94.300000
2153.706399	91.900000
2155.347591	90.050000
2156.988459	74.350000
2158.629004	98.400000
2160.267536	88.300000
2161.907434	90.700000
2163.543632	92.000000
2165.181196	91.750000
2166.818438	89.000000
2168.453670	84.000000
2170.088580	94.950000
2171.723169	90.950000
2173.357437	83.250000
2174.988011	92.800000
2176.621637	85.050000
2178.251571	86.800000
2179.882870	92.100000
2181.512164	86.700000
2183.141139	92.100000
2184.769794	85.600000
2186.398130	83.150000
2188.024463	84.950000
2189.650478	93.950000
2191.274492	85.950000
2192.899871	74.850000
2194.523249	75.450000
2196.147992	86.150000
2197.769054	82.700000
2199.389799	99.000000
2201.011908	88.200000
2202.632020	89.800000
2204.250136	82.050000
2205.867936	78.200000
2207.485420	81.300000
2209.102590	85.650000
2210.719443	94.000000
2212.335982	94.000000
2213.950528	93.400000
2215.563081	91.800000
2217.176998	95.900000
2218.788924	92.800000
2220.402213	78.050000
2222.013512	91.550000
2223.622821	85.300000
2225.233493	95.650000
2226.842177	93.950000
2228.450549	81.400000
2230.056934	83.550000
2231.664681	90.600000
2233.270443	91.100000
2234.875893	88.450000
2236.479358	90.000000
2238.084186	92.000000
2239.687030	88.500000
2241.287891	84.500000
2242.890115	98.150000
2244.490357	88.600000
2246.091961	87.550000
2247.689912	89.300000
2249.289226	89.600000
2250.886560	84.700000
2252.483586	89.650000
2254.081973	90.300000
2255.676713	90.200000
2257.269475	100.750000
2258.863600	86.150000
2260.459086	87.900000
2262.050927	82.350000
2263.642462	82.500000
2265.235359	91.850000
2266.822946	89.750000
2268.415229	87.950000
2270.002205	74.100000
2271.592210	88.850000
2273.176910	78.300000
2274.766304	77.200000
2276.350395	76.700000
2277.935848	94.600000
2279.519332	94.200000
2281.105841	91.600000
2282.688717	78.750000
2284.271290	92.650000
2285.853559	76.850000
2287.432198	94.300000
2289.013862	81.700000
2290.591897	81.550000
2292.172955	66.200000
2293.750386	74.800000
2295.325854	83.400000
2296.904344	88.150000
2298.479210	80.950000
2300.053775	88.900000
2301.628039	72.100000
2303.202003	84.900000
2304.775667	62.350000
2306.349031	88.950000
2307.918776	82.150000
2309.488222	80.650000
2311.060686	80.550000
2312.627876	86.650000
2314.198083	77.600000
2315.764677	85.150000
2317.332629	87.550000
2318.898627	89.500000
2320.464327	80.550000
2322.029729	84.600000
2323.593178	81.450000
2325.157986	96.250000
2326.719186	83.700000
2328.283399	95.950000
2329.842352	113.750000
2331.404318	94.900000
2332.964334	87.550000
2334.524054	81.350000
2336.081826	82.150000
2337.639302	83.200000
2339.196484	72.350000
2340.751718	89.900000
2342.306659	86.550000
2343.861305	73.650000
2345.415658	76.300000
2346.969717	82.450000
2348.523483	74.750000
2350.075304	89.450000
2351.625182	84.800000
2353.178069	80.350000
2354.725712	71.500000
2356.276364	80.000000
2357.823424	74.850000
2359.371842	78.150000
2360.919969	87.900000
2362.464507	81.750000
2364.010403	80.900000
2365.554361	92.350000
2367.099675	77.800000
2368.641405	88.150000
2370.184493	96.150000
2371.725644	89.000000
2373.266506	82.900000
2374.807079	77.600000
2376.347363	85.050000
2377.887358	90.350000
2379.423774	82.500000
2380.963192	97.650000
2382.499033	78.000000
2384.036231	85.600000
2385.569853	83.350000
2387.106475	86.350000
2388.641167	78.650000
2390.173929	90.950000
2391.706404	74.200000
2393.236951	84.400000
2394.770496	82.100000
2396.298830	88.650000
2397.828520	73.850000
2399.357925	92.200000
2400.887045	83.350000
2402.415879	80.200000
2403.939509	89.500000
2405.467774	75.150000
2406.990837	94.150000
2408.518533	91.000000
2410.039390	74.850000
2411.564879	86.900000
2413.086809	82.700000
2414.610093	83.050000
2416.131457	87.450000
2417.650901	92.250000
2419.171700	88.300000
2420.690580	92.300000
2422.209179	80.150000
2423.725859	92.050000
2425.243895	83.650000
2426.761649	86.200000
2428.275851	92.950000
2429.789774	85.400000
2431.303416	85.850000
2432.818412	97.350000
2434.329861	81.300000
2435.842663	109.300000
2437.353553	108.800000
2438.864164	93.750000
2440.372863	99.150000
2441.884548	87.650000
2443.392690	108.000000
2444.900554	93.100000
2446.408139	98.100000
2447.912185	89.750000
2449.419215	103.050000
2450.924337	109.000000
2452.429182	117.550000
2453.932120	102.800000
2455.434782	112.000000
2456.937167	107.100000
2458.437647	115.350000
2459.939480	110.000000
2461.439408	123.800000
2462.939061	116.500000
2464.438439	113.650000
2465.935914	115.850000
2467.431487	102.800000
2468.930040	108.200000
2470.425065	99.750000
2471.921442	109.500000
2473.414293	93.250000
2474.908497	92.200000
2476.402427	99.950000
2477.892833	108.000000
2479.386217	96.650000
2480.877703	109.300000
2482.367292	94.650000
2483.856609	108.350000
2485.344030	93.300000
2486.834427	103.400000
2488.321306	99.500000
2489.809536	91.300000
2491.294249	98.550000
2492.778692	91.350000
2494.264487	90.700000
2495.748390	94.600000
2497.233643	93.350000
2498.713763	97.400000
2500.196856	85.700000
2501.678058	87.000000
2503.158991	90.300000
2504.638035	80.250000
2506.116810	75.050000
2507.595317	87.200000
2509.073555	80.050000
2510.551526	104.500000
2512.025991	91.750000
2513.503426	80.600000
2514.977356	81.950000
2516.452638	103.650000
2517.927652	85.200000
2519.399165	81.400000
2520.872029	75.450000
2522.343010	83.350000
2523.815341	78.050000
2525.282558	81.400000
2526.752742	83.800000
2528.221045	86.700000
2529.689083	84.200000
2531.156855	81.650000
2532.624363	76.800000
2534.091607	84.500000
2535.555358	70.100000
2537.020459	93.200000
2538.483683	84.250000
2539.948256	88.550000
2541.409341	79.300000
2542.871775	83.300000
2544.333946	80.350000
2545.792630	92.000000
2547.255887	73.950000
2548.714047	82.950000
2550.173557	85.900000
2551.627972	78.300000
2553.086958	76.400000
2554.544072	90.800000
2555.999314	92.850000
2557.454296	79.700000
2558.907408	86.750000
2560.361869	80.700000
2561.814461	71.500000
2563.266793	79.500000
2564.717257	77.400000
2566.170678	87.850000
2567.619016	76.850000
2569.070309	80.150000
2570.519737	78.850000
2571.965692	91.500000
2573.414602	81.000000
2574.860042	70.200000
2576.306829	89.200000
2577.751753	76.150000
2579.196420	75.150000
2580.642434	89.650000
2582.084982	85.700000
2583.528876	91.400000
2584.969306	83.850000
2586.411084	87.350000
2587.851002	83.650000
2589.292267	92.150000
2590.730070	92.050000
2592.170823	80.200000
2593.606514	84.100000
2595.045153	83.600000
2596.481936	85.900000
2597.916863	81.400000
2599.354737	93.150000
2600.787554	93.300000
2602.221718	79.900000
2603.654028	84.700000
2605.087684	83.250000
2606.519487	98.700000
2607.951036	97.600000
2609.382332	98.300000
2610.811777	87.250000
2612.240969	83.000000
2613.668310	88.450000
2615.096998	98.900000
2616.525433	94.200000
2617.950422	100.300000
2619.376756	85.950000
2620.801243	101.350000
2622.227075	94.500000
2623.649463	101.800000
2625.073196	96.250000
2626.495084	121.800000
2627.916721	97.400000
2629.336514	111.450000
2630.757652	114.350000
2632.178540	114.450000
2633.595989	107.600000
2635.016378	117.000000
2636.433330	119.950000
2637.850034	117.250000
2639.266489	122.500000
2640.682696	138.400000
2642.098655	131.850000
2643.512773	157.050000
2644.926643	157.650000
2646.338674	150.500000
2647.752050	172.800000
2649.161996	172.500000
2650.574878	179.450000
2651.984331	202.900000
2653.393538	212.800000
2654.800909	228.000000
2656.211214	242.500000
2657.619683	261.750000
2659.026318	270.900000
2660.432707	287.950000
2661.837262	308.850000
2663.243161	352.100000
2664.647227	382.350000
2666.051048	417.700000
2667.454625	443.300000
2668.856371	505.300000
2670.259460	528.300000
2671.659131	588.600000
2673.060146	629.700000
2674.457745	646.100000
2675.858273	690.150000
2677.255387	746.800000
2678.653844	754.550000
2680.050474	790.700000
2681.446861	782.750000
2682.843006	824.650000
2684.237325	812.700000
2685.632987	804.400000
2687.025240	793.700000
2688.418835	766.600000
2689.810606	720.100000
2691.203720	712.600000
2692.595010	665.200000
2693.984477	616.950000
2695.373704	573.600000
2696.762692	527.600000
2698.153021	483.900000
2699.538367	451.000000
2700.926636	405.200000
2702.313085	380.550000
2703.699295	345.000000
2705.085266	312.450000
2706.467839	286.850000
2707.851754	287.950000
2709.235430	242.950000
2710.618869	241.700000
2711.998912	214.350000
2713.380297	207.850000
2714.759867	183.400000
2716.140777	176.800000
2717.519873	172.250000
2718.897155	158.150000
2720.275778	152.500000
2721.652587	145.150000
2723.029161	143.700000
2724.405499	130.200000
2725.780025	129.100000
2727.155892	138.550000
2728.528373	128.750000
2729.903769	131.350000
2731.274205	107.400000
2732.645981	108.700000
2734.017524	102.200000
2735.387258	100.600000
2736.758332	93.200000
2738.127599	109.700000
2739.496632	101.600000
2740.863859	91.800000
2742.230852	104.100000
2743.597613	102.250000
2744.964141	98.900000
2746.328865	106.900000
2747.693356	77.500000
2749.057616	83.700000
2750.421643	84.600000
2751.785438	95.550000
2753.145861	93.850000
2754.509193	96.350000
2755.867583	81.650000
2757.228883	78.200000
2758.586813	84.050000
2759.947651	75.700000
2761.306689	79.650000
2762.662360	89.500000
2764.020938	92.450000
2765.376149	79.250000
2766.731131	86.600000
2768.084316	75.550000
2769.440408	80.200000
2770.793136	83.950000
2772.145636	72.800000
2773.497907	69.400000
2774.851516	75.500000
2776.201765	66.950000
2777.550219	71.250000
2778.901578	80.450000
2780.249579	71.600000
2781.598917	78.200000
2782.946463	68.950000
2784.293783	75.000000
2785.640875	74.500000
2786.986177	82.600000
2788.331253	67.100000
2789.676103	65.000000
2791.020727	68.450000
2792.361999	78.000000
2793.704608	72.250000
2795.046993	75.350000
2796.389152	65.500000
2797.727962	62.250000
2799.069672	75.450000
2800.408033	74.800000
2801.747732	73.350000
2803.085646	66.850000
2804.421774	86.550000
2805.757680	75.000000
2807.094923	67.950000
2808.430382	72.500000
2809.765617	66.550000
2811.099071	78.100000
2812.433861	87.900000
2813.765311	78.050000
2815.099656	55.700000
2816.429102	59.400000
2817.759886	66.000000
2819.090449	74.450000
2820.419232	62.850000
2821.749351	69.350000
2823.077692	69.950000
2824.405812	69.550000
2825.732154	66.800000
2827.059832	61.350000
2828.384178	74.300000
2829.709860	85.150000
2831.033766	72.400000
2832.357452	72.250000
2833.682474	84.350000
2835.004167	72.800000
2836.325641	71.800000
2837.646895	77.000000
2838.967932	61.950000
2840.287195	64.300000
2841.607794	53.100000
2842.926621	69.950000
2844.245231	66.000000
2845.562069	68.450000
2846.878690	68.350000
2848.195094	70.300000
2849.509728	47.350000
2850.825697	54.200000
2852.138347	59.700000
2853.452331	65.250000
2854.766099	45.050000
2856.079650	67.350000
2857.391435	55.750000
2858.701453	67.100000
2860.012806	65.550000
2861.320844	61.400000
2862.630216	67.100000
2863.939373	68.550000
2865.248316	55.250000
2866.555494	66.000000
2867.860910	58.850000
2869.167659	50.150000
2870.472647	59.200000
2871.777420	64.650000
2873.080433	60.800000
2874.386326	65.700000
2875.687365	56.700000
2876.989737	64.850000
2878.290351	61.800000
2879.592297	63.600000
2880.894031	62.500000
2882.192461	62.350000
2883.492224	60.050000
2884.790230	57.900000
2886.088024	64.800000
2887.384062	70.800000
2888.681432	74.200000
2889.977048	63.600000
2891.272452	66.600000
2892.567645	64.150000
2893.859541	66.150000
2895.154312	66.950000
2896.445788	64.000000
2897.738596	71.750000
2899.031194	66.200000
2900.320497	64.250000
2901.611134	65.250000
2902.900019	66.450000
2904.190236	64.750000
2905.477162	62.000000
2906.765420	65.000000
2908.051929	74.350000
2909.338229	53.050000
2910.624321	65.200000
2911.908665	55.250000
2913.195881	70.450000
2914.478270	52.250000
2915.761991	69.400000
2917.043965	54.200000
2918.325733	60.650000
2919.605755	66.300000
2920.888648	59.100000
2922.169794	57.050000
2923.447659	62.200000
2924.728393	52.850000
2926.005847	54.350000
2927.283094	61.650000
2928.558599	69.400000
2929.836972	65.100000
2931.110531	56.000000
2932.386957	50.600000
2933.661642	58.300000
2934.934586	52.450000
2936.208862	49.050000
2937.481398	41.950000
2938.753729	59.150000
2940.022788	60.900000
2941.294712	61.250000
2942.564898	54.150000
2943.834880	53.300000
2945.104659	57.850000
2946.372702	57.050000
2947.639008	67.400000
2948.905112	60.050000
2950.172547	58.600000
2951.438246	59.850000
2952.703744	73.950000
2953.969039	55.950000
2955.231069	58.050000
2956.494429	56.900000
2957.757588	63.750000
2959.019015	60.900000
2960.281771	57.200000
2961.542795	52.250000
2962.802089	47.250000
2964.061182	51.600000
2965.320076	51.850000
2966.578769	63.350000
2967.837261	52.150000
2969.094025	62.050000
2970.350590	62.000000
2971.605426	56.450000
2972.861592	59.300000
2974.114503	60.150000
2975.368742	56.900000
2976.622783	53.750000
2977.875098	63.150000
2979.127215	57.800000
2980.377607	52.100000
2981.630854	58.200000
2982.879324	41.100000
2984.130649	50.700000
2985.378724	62.100000
2986.626602	55.000000
2987.874284	36.200000
2989.121768	44.150000
2990.367531	51.950000
2991.613098	60.050000
2992.859992	49.800000
2994.103642	63.550000
2995.348619	58.550000
2996.590354	54.650000
2997.834940	49.350000
2999.077807	41.150000
3000.317433	56.950000
3001.559909	54.900000
3002.799145	50.650000
3004.039709	57.500000
3005.278556	56.900000
3006.517209	54.350000
3007.754146	38.650000
3008.992411	57.900000
3010.228960	50.100000
3011.465316	46.650000
3012.701478	52.800000
3013.935926	60.950000
3015.170181	54.700000
3016.404244	51.700000
3017.636593	48.850000
3018.867231	59.600000
3020.100715	49.850000
3021.332488	57.050000
3022.562549	43.900000
3023.792419	63.300000
3025.020579	46.200000
3026.250066	58.150000
3027.477843	58.700000
3028.705429	51.400000
3029.934341	59.500000
3031.158511	49.400000
3032.385524	48.300000
3033.609314	44.950000
3034.834429	49.150000
3036.057839	49.350000
3037.281058	52.150000
3038.502572	38.750000
3039.726927	44.100000
3040.946547	47.000000
3042.167493	44.650000
3043.388249	53.250000
3044.607303	63.200000
3045.827681	53.750000
3047.044843	47.050000
3048.263330	41.950000
3049.480116	52.100000
3050.696713	46.100000
3051.913123	48.650000
3053.126319	56.200000
3054.342353	45.400000
3055.555175	51.350000
3056.770834	50.050000
3057.981771	57.450000
3059.194032	44.000000
3060.406106	53.700000
3061.617994	50.250000
3062.828185	49.800000
3064.038189	48.100000
3065.248007	57.250000
3066.456129	52.350000
3067.664066	35.700000
3068.870307	52.400000
3070.077873	49.800000
3071.283744	48.325000
3072.489430	46.850000
3073.694932	43.700000
3074.898740	59.400000
3076.103872	45.350000
3077.307311	49.700000
3078.509059	54.500000
3079.710622	59.250000
3080.912002	43.100000
3082.113198	40.950000
3083.312704	48.250000
3084.512027	59.200000
3085.712673	60.250000
3086.911629	37.500000
3088.107391	46.200000
3089.305981	46.450000
3090.501378	41.800000
3091.698099	55.950000
3092.891627	51.950000
3094.087983	42.350000
3095.282652	49.750000
3096.474131	45.900000
3097.669942	46.700000
3098.861058	46.500000
3100.053498	39.400000
3101.242749	45.750000
3102.434827	51.700000
3103.625221	33.950000
3104.812429	46.600000
3106.000959	45.150000
3107.190812	49.900000
3108.377480	35.500000
3109.563969	37.600000
3110.750279	45.350000
3111.937910	47.900000
3113.122359	51.000000
3114.305129	41.900000
3115.490721	53.650000
3116.674634	34.900000
3117.856867	38.700000
3119.038923	42.000000
3120.220800	49.100000
3121.402499	48.900000
3122.582521	48.900000
3123.760866	43.150000
3124.942031	56.700000
3126.120021	52.800000
3127.297834	46.100000
3128.475470	54.300000
3129.651431	42.000000
3130.827216	52.150000
3132.004321	37.300000
3133.179753	47.450000
3134.353511	44.450000
3135.525596	31.450000
3136.699003	48.800000
3137.872233	41.100000
3139.043792	55.350000
3140.216671	43.250000
3141.386383	30.000000
3142.557416	48.100000
3143.726778	42.450000
3144.894471	44.650000
3146.064979	35.350000
3147.230829	43.400000
3148.400987	46.750000
3149.566488	44.050000
3150.731816	44.150000
3151.896970	38.400000
3153.061951	46.900000
3154.228251	44.100000
3155.389898	48.250000
3156.552866	52.850000
3157.715661	51.050000
3158.878283	27.850000
3160.039239	57.550000
3161.200024	48.350000
3162.360636	42.800000
3163.519584	46.850000
3164.678361	46.750000
3165.836965	37.550000
3166.995398	44.450000
3168.153660	30.250000
3169.310259	34.750000
3170.465197	38.150000
3171.621454	29.500000
3172.776050	34.850000
3173.930476	36.550000
3175.083242	49.500000
3176.235837	40.500000
3177.388263	36.750000
3178.540518	54.700000
3179.692604	38.250000
3180.841543	50.500000
3181.993289	50.550000
3183.143378	40.000000
3184.291810	27.400000
3185.440072	45.750000
3186.588166	41.300000
3187.736091	47.900000
3188.882360	50.100000
3190.028461	43.950000
3191.172908	33.350000
3192.317187	44.050000
3193.461297	43.400000
3194.606726	42.850000
3195.749016	50.500000
3196.891139	45.900000
3198.033094	46.700000
3199.174882	45.250000
3200.316503	44.100000
3201.454989	47.600000
3202.594792	31.500000
3203.735912	34.950000
3204.873899	34.850000
3206.010235	45.800000
3207.146407	37.850000
3208.283895	38.900000
3209.419735	47.800000
3210.556892	35.150000
3211.689436	36.000000
3212.826261	37.450000
3213.958476	48.250000
3215.092007	54.900000
3216.225373	40.950000
3217.355613	35.300000
3218.488650	36.750000
3219.618561	43.150000
3220.749788	44.750000
3221.877891	52.850000
3223.008790	52.850000
3224.138045	35.500000
3225.265657	47.600000
3226.390146	42.350000
3227.518911	29.850000
3228.644554	44.300000
3229.770034	34.450000
3230.893873	58.950000
3232.020507	55.200000
3233.142543	47.700000
3234.265895	50.700000
3235.389085	59.250000
3236.512112	45.500000
3237.633501	39.600000
3238.754727	49.800000
3239.874315	47.450000
3240.993742	53.200000
3242.111532	61.400000
3243.232113	58.650000
3244.349581	72.150000
3245.466888	63.350000
3246.584035	70.150000
3247.699545	71.500000
3248.816371	73.500000
3249.930087	79.150000
3251.046592	79.150000
3252.161462	56.650000
3253.273224	84.150000
3254.384827	59.000000
3255.497745	63.750000
3256.610503	60.600000
3257.720155	68.000000
3258.831122	59.650000
3259.941930	54.000000
3261.051106	49.100000
3262.158651	47.750000
3263.267511	53.950000
3264.376212	38.800000
3265.481811	56.700000
3266.588725	49.450000
3267.694009	29.800000
3268.800607	45.600000
3269.904105	41.950000
3271.008917	40.650000
3272.113572	47.750000
3273.215129	51.900000
3274.316529	51.600000
3275.419243	47.400000
3276.521801	41.550000
3277.621262	32.950000
3278.723507	27.750000
3279.822656	24.450000
3280.920180	41.150000
3282.017550	48.850000
3283.117701	35.000000
3284.214760	23.350000
3285.311663	30.100000
3286.408411	35.550000
3287.500600	41.150000
3288.597039	34.250000
3289.691855	39.850000
3290.786517	44.750000
3291.879556	29.200000
3292.972442	44.950000
3294.063707	43.400000
3295.156285	45.000000
3296.247243	33.950000
3297.336581	25.900000
3298.425766	32.750000
3299.516263	41.400000
3300.603677	32.550000
3301.690937	48.000000
3302.779510	38.050000
3303.867930	39.850000
3304.951804	34.700000
3306.039919	36.750000
3307.124952	28.550000
3308.208370	39.850000
3309.293100	34.850000
3310.376214	35.800000
3311.460641	41.400000
3312.541989	51.800000
3313.624649	31.300000
3314.705694	34.750000
3315.786589	30.950000
3316.865871	48.350000
3317.945002	44.950000
3319.025445	40.150000
3320.102813	34.700000
3321.181493	38.150000
3322.258561	39.150000
3323.335479	36.700000
3324.410787	24.350000
3325.485945	42.100000
3326.562414	39.650000
3327.635813	39.750000
3328.709062	40.600000
3329.783623	40.250000
3330.856575	33.200000
3331.927918	26.800000
3333.000572	26.700000
3334.070159	32.200000
3335.141058	28.850000
3336.210349	37.300000
3337.280950	37.900000
3338.349946	34.700000
3339.417335	35.250000
3340.483119	28.500000
3341.553129	32.100000
3342.620076	35.550000
3343.683961	32.450000
3344.750613	37.650000
3345.815662	23.100000
3346.879107	31.050000
3347.942406	38.800000
3349.005558	36.700000
3350.068564	25.650000
3351.131424	36.750000
3352.192681	33.000000
3353.250882	39.550000
3354.313304	28.950000
3355.372670	48.750000
3356.431890	34.250000
3357.492419	36.850000
3358.548440	43.350000
3359.607224	38.150000
3360.661501	44.600000
3361.718542	37.800000
3362.773984	28.450000
3363.830736	40.350000
3364.885889	34.000000
3365.939445	37.450000
3366.991404	31.150000
3368.046126	38.800000
3369.097798	37.950000
3370.149327	47.450000
3371.202164	33.850000
3372.251954	34.550000
3373.303053	38.800000
3374.351105	38.900000
3375.401918	36.700000
3376.449685	54.450000
3377.497310	35.700000
3378.544793	26.700000
3379.590683	45.800000
3380.637881	39.550000
3381.682037	30.300000
3382.728951	39.650000
3383.774273	27.350000
3384.816554	26.400000
3385.858694	43.200000
3386.902143	30.600000
3387.945450	32.400000
3388.987167	38.650000
3390.028744	37.900000
3391.070179	32.850000
3392.110026	38.300000
3393.148284	30.050000
3394.187850	35.650000
3395.227276	38.050000
3396.265114	32.150000
3397.301365	28.800000
3398.337477	31.750000
3399.374895	40.600000
3400.409281	26.000000
3401.444975	28.250000
3402.480529	35.550000
3403.513052	37.100000
3404.548327	30.500000
3405.580573	39.800000
3406.612680	39.300000
3407.643203	31.150000
3408.675033	26.250000
3409.706725	41.400000
3410.735389	37.100000
3411.763916	37.900000
3412.793749	38.800000
3413.823445	38.700000
3414.850115	32.950000
3415.878091	46.400000
3416.903044	31.500000
3417.930746	34.000000
3418.955424	47.500000
3419.981409	33.200000
3421.005815	37.700000
3422.030084	38.900000
3423.052774	27.700000
3424.075328	39.750000
3425.099188	42.650000
3426.120028	31.450000
3427.140732	28.050000
3428.162742	45.400000
3429.181734	27.700000
3430.200591	41.900000
3431.220754	33.950000
3432.237900	30.950000
