-117.018713	13.200000
-114.349113	-20.000000
-111.682448	-9.500000
-109.016535	13.400000
-106.353555	-6.700000
-103.689144	0.600000
-101.027664	2.000000
-98.364755	13.800000
-95.706952	14.900000
-93.047720	13.900000
-90.389236	8.000000
-87.733677	11.000000
-85.076688	10.100000
-82.424798	0.900000
-79.771478	3.100000
-77.121077	8.400000
-74.469248	3.500000
-71.822509	2.600000
-69.174340	0.500000
-66.526914	13.700000
-63.882403	-10.400000
-61.236462	-0.500000
-58.595603	-22.000000
-55.953315	-1.600000
-53.313936	-0.700000
-50.673128	10.800000
-48.033059	9.900000
-45.398064	-1.900000
-42.761639	2.600000
-40.128117	2.300000
-37.493167	31.100000
-34.863283	15.700000
-32.229805	13.800000
-29.601390	24.300000
-26.973709	13.800000
-24.344599	36.900000
-21.720547	25.100000
-19.092904	53.700000
-16.470316	55.600000
-13.848458	83.900000
-11.227331	167.100000
-8.606935	365.200000
-5.989426	1142.400000
-3.370489	3333.800000
-0.754438	10648.300000
1.860886	16771.000000
4.475481	8406.600000
7.087195	794.600000
9.700337	129.500000
12.308445	65.000000
14.920134	26.200000
17.526793	53.400000
20.134881	24.200000
22.742243	23.300000
25.344581	26.500000
27.950498	11.000000
30.551392	8.900000
33.153714	11.700000
35.751018	25.000000
38.351899	23.100000
40.947764	3.700000
43.545057	11.200000
46.141632	14.200000
48.733197	7.600000
51.326190	12.500000
53.916322	13.100000
56.507881	5.500000
59.096582	-1.400000
61.686709	7.400000
64.271837	-14.100000
66.858393	3.500000
69.444235	3.400000
72.027222	3.800000
74.611637	11.500000
77.188923	17.800000
79.769775	16.500000
82.347778	8.100000
84.925070	-2.200000
87.503790	20.600000
90.077527	6.400000
92.652691	5.600000
95.225012	21.800000
97.796626	-2.800000
100.365399	8.200000
102.935599	7.700000
105.502960	3.500000
108.071748	9.300000
110.637699	6.300000
113.200815	7.500000
115.767487	4.100000
118.324937	15.900000
120.888073	40.800000
123.446250	34.500000
126.007981	57.400000
128.564755	85.900000
131.122955	120.200000
133.676203	194.800000
136.228753	295.100000
138.784853	402.200000
141.336005	480.400000
143.886460	643.300000
146.436217	743.900000
148.983155	830.000000
151.529398	844.000000
154.077066	874.600000
156.624038	872.600000
159.166075	856.500000
161.707418	871.500000
164.248068	842.900000
166.790144	854.600000
169.329408	847.400000
171.865863	844.200000
174.401628	854.600000
176.938818	867.100000
179.475317	831.400000
182.009010	842.500000
184.539899	838.500000
187.070100	851.700000
189.601727	837.400000
192.130552	823.400000
194.656578	848.400000
197.181918	823.400000
199.708683	837.000000
202.232652	821.700000
204.755936	843.600000
207.278534	846.500000
209.798340	821.300000
212.317463	844.200000
214.835903	801.900000
217.355768	819.100000
219.868630	849.900000
222.385024	867.100000
224.900737	858.900000
227.411559	909.100000
229.923806	902.600000
232.433270	902.500000
234.942056	915.600000
237.450164	884.500000
239.959696	935.800000
242.464347	916.500000
244.968322	899.500000
247.473721	872.100000
249.974245	891.900000
252.478292	901.400000
254.975369	879.800000
257.475969	899.300000
259.973797	883.000000
262.470952	860.100000
264.967434	883.400000
267.459053	858.400000
269.954192	872.000000
272.446564	881.200000
274.938266	877.100000
277.427205	876.200000
279.917567	897.600000
282.405168	935.200000
284.890009	894.900000
287.378365	909.400000
289.859781	916.300000
292.344711	923.300000
294.824796	956.700000
297.308393	958.700000
299.787147	984.400000
302.267324	1006.300000
304.744750	1023.000000
307.221512	1001.500000
309.697610	978.500000
312.170960	974.600000
314.643649	951.200000
317.115676	971.700000
319.587041	996.100000
322.055663	997.200000
324.523625	978.900000
326.993010	948.400000
329.457572	919.100000
331.925638	878.000000
334.388883	887.400000
336.851472	878.900000
339.313404	858.300000
341.774679	859.600000
344.233219	856.700000
346.693183	823.600000
349.150413	812.700000
351.606989	793.200000
354.062911	787.100000
356.516103	820.400000
358.970718	826.900000
361.420531	800.900000
363.873840	800.200000
366.322350	804.200000
368.770210	766.100000
371.219492	773.000000
373.663979	756.500000
376.109890	748.000000
378.555150	724.000000
380.997692	733.900000
383.439586	719.100000
385.880832	722.300000
388.319364	745.600000
390.759316	740.000000
393.196555	741.700000
395.631083	716.400000
398.069097	758.800000
400.502336	706.900000
402.936995	689.900000
405.366882	718.900000
407.800254	721.900000
410.228856	735.100000
412.656816	706.300000
415.086198	743.200000
417.510814	690.000000
419.936852	695.100000
422.362249	676.800000
424.787006	690.200000
427.207004	689.700000
429.628424	706.100000
432.047148	695.000000
434.467292	680.400000
436.884741	681.700000
439.303610	671.500000
441.719785	676.500000
444.131214	678.300000
446.546119	651.400000
448.958335	648.800000
451.369916	642.600000
453.780863	605.800000
456.189123	606.500000
458.596752	600.900000
461.003748	608.000000
463.410113	612.800000
465.813795	589.000000
468.216847	607.500000
470.619269	600.700000
473.021061	609.600000
475.420175	615.800000
477.820709	602.000000
480.220614	613.400000
482.615797	630.100000
485.014446	642.600000
487.408374	638.300000
489.801677	669.400000
492.194355	681.500000
494.586407	699.500000
496.979877	745.800000
499.368635	819.500000
501.754727	930.300000
504.142239	1132.300000
506.529128	1424.600000
508.913352	1902.300000
511.298996	2659.100000
513.681978	3707.000000
516.062299	4861.700000
518.444039	5660.700000
520.823120	5576.700000
523.203619	5036.100000
525.581462	4228.400000
527.956648	3568.300000
530.331218	3005.300000
532.707205	2598.400000
535.080540	2256.900000
537.455292	1995.000000
539.825358	1823.300000
542.194810	1683.300000
544.565679	1512.500000
546.931867	1404.600000
549.299474	1348.200000
551.664435	1255.400000
554.028784	1205.200000
556.392519	1171.900000
558.757672	1131.300000
561.118153	1090.000000
563.480052	1094.000000
565.839310	1076.400000
568.195930	1015.200000
570.555996	1008.400000
572.909370	993.300000
575.266189	976.000000
577.620373	938.700000
579.973948	919.000000
582.326916	898.000000
584.677251	872.200000
587.029004	874.200000
589.374080	855.900000
591.724619	814.300000
594.068486	804.600000
596.417814	796.700000
598.762493	788.700000
601.104548	767.100000
603.448020	759.700000
605.788869	781.000000
608.129115	790.900000
610.466741	794.700000
612.807802	852.600000
615.144226	863.900000
617.482066	860.900000
619.817289	844.400000
622.149895	795.000000
624.483919	816.100000
626.815328	772.200000
629.146139	750.300000
631.476352	727.500000
633.805968	715.000000
636.130960	711.500000
638.461394	722.800000
640.787207	687.900000
643.110412	706.700000
645.435034	690.800000
647.757050	700.400000
650.078472	682.000000
652.397291	681.900000
654.717527	657.200000
657.037169	674.500000
659.354210	657.200000
661.670659	675.800000
663.984510	659.400000
666.299777	675.200000
668.612447	670.600000
670.926532	681.200000
673.236017	687.100000
675.546918	701.400000
677.855226	711.000000
680.162946	658.300000
682.472080	707.400000
684.776622	697.800000
687.080578	657.600000
689.383948	650.500000
691.688732	618.300000
693.988929	628.400000
696.290542	604.800000
698.591569	606.500000
700.888015	615.900000
703.185876	600.700000
705.483153	590.600000
707.779847	588.100000
710.071965	584.900000
712.367494	592.400000
714.658449	594.100000
716.950819	587.800000
719.240614	573.400000
721.529828	558.800000
723.818463	577.300000
726.104525	586.600000
728.392002	597.600000
730.676907	575.200000
732.961235	583.400000
735.242994	572.600000
737.526167	536.300000
739.808763	550.900000
742.086803	560.100000
744.366257	563.400000
746.645136	544.300000
748.923440	552.800000
751.197193	560.900000
753.472361	558.700000
755.746955	558.300000
758.018990	545.800000
760.292438	568.400000
762.563328	554.600000
764.831662	559.200000
767.101409	567.700000
769.368601	552.200000
771.635224	569.100000
773.901276	546.100000
776.164777	567.200000
778.429691	555.000000
780.694035	553.500000
782.953850	560.800000
785.215077	560.400000
787.475737	565.100000
789.733851	573.100000
791.989420	578.900000
794.248379	578.500000
796.500840	583.800000
798.758668	576.700000
801.011977	578.300000
803.262746	598.200000
805.514927	573.300000
807.764569	607.900000
810.015623	617.700000
812.262167	572.100000
814.510122	556.000000
816.755543	580.500000
819.002375	563.400000
821.248646	584.300000
823.490412	553.600000
825.735562	544.400000
827.974239	543.500000
830.216298	527.000000
832.453859	530.200000
834.692832	556.400000
836.929278	559.400000
839.167135	566.900000
841.402467	555.900000
843.635276	577.800000
845.869495	545.700000
848.101193	547.800000
850.332336	560.800000
852.562924	570.600000
854.792958	554.400000
857.022438	562.000000
859.247436	556.100000
861.475808	536.200000
863.699702	562.100000
865.925007	528.200000
868.145836	531.700000
870.370037	534.300000
872.589765	548.500000
874.810903	537.800000
877.031491	555.800000
879.249570	550.600000
881.469058	578.800000
883.684080	543.500000
885.898554	597.000000
888.112481	550.900000
890.325861	540.300000
892.538693	525.400000
894.750978	511.600000
896.960762	553.900000
899.170000	570.000000
901.378693	542.900000
903.584886	541.800000
905.792489	555.200000
907.997595	559.900000
910.202157	578.800000
912.404224	565.300000
914.607700	573.900000
916.808682	577.100000
919.009122	597.000000
921.210971	611.900000
923.406429	608.700000
925.605245	668.700000
927.799624	712.100000
929.997360	760.600000
932.190660	830.900000
934.385369	866.400000
936.577591	941.100000
938.769276	988.000000
940.960423	1032.000000
943.149087	1046.100000
945.337215	1073.200000
947.522861	1051.800000
949.711861	1047.100000
951.896437	1038.700000
954.080478	1019.000000
956.267869	1030.600000
958.446956	1040.600000
960.629394	1050.500000
962.811298	1018.600000
964.990727	1065.300000
967.167684	1029.100000
969.346049	1072.000000
971.525821	1083.800000
973.699244	1073.500000
975.876013	1085.000000
978.048375	1094.700000
980.222145	1071.400000
982.391511	1067.300000
984.564221	1061.700000
986.734466	986.500000
988.904181	909.200000
991.073368	836.800000
993.238158	813.800000
995.406290	766.800000
997.570026	739.800000
999.735170	708.900000
1001.897854	699.000000
1004.060013	704.100000
1006.219715	688.100000
1008.378892	662.700000
1010.539476	671.600000
1012.697605	674.700000
1014.855211	664.600000
1017.012293	662.600000
1019.168851	640.900000
1021.321030	652.800000
1023.474616	620.800000
1025.627680	639.900000
1027.778295	620.900000
1029.930316	610.100000
1032.077965	600.200000
1034.228945	587.700000
1036.375554	584.700000
1038.521644	596.100000
1040.667216	572.500000
1042.814193	571.000000
1044.954881	580.600000
1047.098898	608.900000
1049.240476	582.800000
1051.381536	583.300000
1053.524002	579.200000
1055.660187	591.100000
1057.799699	583.500000
1059.934855	591.200000
1062.073336	599.900000
1064.207464	576.000000
1066.341078	581.800000
1068.476096	578.000000
1070.606766	594.400000
1072.738840	572.800000
1074.868485	588.300000
1076.997617	549.900000
1079.126239	556.100000
1081.254349	559.400000
1083.380033	557.200000
1085.505207	564.100000
1087.631785	521.000000
1089.754025	542.700000
1091.877670	567.300000
1093.996980	556.000000
1096.121519	554.200000
1098.239814	561.300000
1100.359512	572.300000
1102.476793	565.500000
1104.593566	561.000000
1106.709833	565.800000
1108.823685	542.200000
1110.938940	540.900000
1113.049873	555.400000
1115.164118	542.500000
1117.274042	532.000000
1119.385370	545.200000
1121.496193	520.500000
1123.602700	542.100000
1125.712516	531.300000
1127.818019	537.700000
1129.924924	515.900000
1132.025614	538.800000
1134.131516	542.800000
1136.233109	534.300000
1138.336105	516.800000
1140.438600	512.600000
1142.534888	489.900000
1144.636383	492.400000
1146.733576	512.900000
1148.830271	507.300000
1150.926467	508.500000
1153.022165	518.500000
1155.117366	538.900000
1157.210170	538.500000
1159.304376	531.200000
1161.392391	553.900000
1163.485604	528.900000
1165.572630	537.000000
1167.662954	527.600000
1169.748990	535.100000
1171.838324	546.700000
1173.921477	538.200000
1176.006033	546.800000
1178.091990	540.900000
1180.173665	542.500000
1182.256741	550.000000
1184.337432	543.800000
1186.417632	568.200000
1188.497340	559.600000
1190.576557	561.000000
1192.653391	566.500000
1194.727845	567.400000
1196.805591	540.500000
1198.879066	564.400000
1200.953943	579.800000
1203.024552	576.800000
1205.096562	537.500000
1207.166196	570.400000
1209.237231	544.800000
1211.307779	556.800000
1213.374065	522.500000
1215.441752	544.800000
1217.507066	519.500000
1219.573781	541.000000
1221.636241	573.900000
1223.701985	526.200000
1225.763475	548.300000
1227.826366	544.600000
1229.886888	543.700000
1231.946928	555.300000
1234.006484	558.000000
1236.063676	577.200000
1238.120385	579.900000
1240.174732	562.800000
1242.232360	578.300000
1244.287624	585.300000
1246.338649	606.800000
1248.391073	587.900000
1250.443017	603.700000
1252.492603	588.000000
1254.541710	613.400000
1256.590338	621.300000
1258.638488	617.500000
1260.686160	647.000000
1262.729601	653.100000
1264.776318	645.500000
1266.820681	635.100000
1268.864568	638.900000
1270.906103	644.300000
1272.945289	656.100000
1274.987748	620.900000
1277.025984	631.400000
1279.065619	657.600000
1281.104778	631.300000
1283.139720	628.400000
1285.176060	631.800000
1287.210056	623.700000
1289.245449	636.800000
1291.276629	655.400000
1293.309208	648.800000
1295.341315	651.600000
1297.371081	629.000000
1299.402244	639.700000
1301.429200	651.000000
1303.457555	610.700000
1305.481704	665.200000
1307.509119	647.400000
1309.532331	645.200000
1311.556941	666.900000
1313.579216	636.800000
1315.602889	656.200000
1317.624229	651.200000
1319.645102	662.000000
1321.665507	647.300000
1323.681719	645.100000
1325.699328	641.600000
1327.714609	605.600000
1329.733149	639.600000
1331.747499	619.000000
1333.759524	610.200000
1335.774807	606.200000
1337.785904	624.300000
1339.798397	603.600000
1341.806708	626.000000
1343.818275	603.100000
1345.823803	629.600000
1347.832586	647.300000
1349.837191	662.900000
1351.845050	658.600000
1353.852447	678.500000
1355.853813	679.700000
1357.856575	690.000000
1359.858878	686.400000
1361.860721	668.700000
1363.862104	686.200000
1365.861173	691.500000
1367.859785	702.100000
1369.857937	677.200000
1371.855632	672.500000
1373.849164	681.700000
1375.844091	692.200000
1377.838562	686.800000
1379.832576	682.000000
1381.824283	676.900000
1383.815534	662.200000
1385.804480	671.400000
1387.794821	676.800000
1389.784708	657.400000
1391.772290	638.500000
1393.759419	653.400000
1395.744246	644.000000
1397.730468	654.800000
1399.714389	672.400000
1401.697858	665.200000
1403.680875	647.900000
1405.661594	670.000000
1407.643707	695.200000
1409.623523	670.700000
1411.602889	695.600000
1413.578116	701.200000
1415.556581	668.800000
1417.532753	687.000000
1419.508475	693.800000
1421.483749	689.100000
1423.456731	689.100000
1425.429265	668.100000
1427.401351	654.000000
1429.372990	638.600000
1431.340500	653.900000
1433.313084	649.800000
1435.277862	651.700000
1437.247713	671.400000
1439.213439	641.600000
1441.180559	659.700000
1443.145395	660.800000
1445.106111	667.800000
1447.071895	669.900000
1449.031724	697.000000
1450.992947	701.800000
1452.955561	706.000000
1454.914061	733.800000
1456.872119	718.000000
1458.829735	695.900000
1460.786908	703.000000
1462.741806	711.400000
1464.698097	720.100000
1466.652113	688.300000
1468.605688	690.700000
1470.556991	701.100000
1472.509686	700.100000
1474.460110	680.000000
1476.410095	697.400000
1478.359641	672.100000
1480.306918	665.900000
1482.251927	656.400000
1484.198329	657.200000
1486.144293	670.600000
1488.089820	632.000000
1490.033081	654.800000
1491.975906	645.800000
1493.916468	617.400000
1495.858422	634.300000
1497.798113	646.200000
1499.737369	636.400000
1501.676191	655.500000
1503.612753	641.200000
1505.550706	674.600000
1507.486400	671.200000
1509.421661	667.100000
1511.354665	659.500000
1513.287237	711.400000
1515.219377	689.200000
1517.151085	686.500000
1519.080540	712.700000
1521.011385	687.000000
1522.941798	698.300000
1524.868139	688.600000
1526.795870	726.500000
1528.721352	737.100000
1530.646404	752.200000
1532.571027	736.000000
1534.495220	732.000000
1536.417167	745.600000
1538.340504	726.500000
1540.261594	753.400000
1542.180440	779.600000
1544.100676	783.000000
1546.018668	768.600000
1547.936234	811.200000
1549.851559	788.700000
1551.768273	805.500000
1553.680932	800.900000
1555.596794	827.400000
1557.510418	831.700000
1559.421803	829.800000
1561.334578	834.100000
1563.243303	849.200000
1565.153417	849.000000
1567.063108	863.900000
1568.972376	931.700000
1570.879409	944.800000
1572.784210	938.800000
1574.690400	968.300000
1576.594359	1012.100000
1578.497896	1079.600000
1580.401013	1147.700000
1582.301900	1223.600000
1584.204176	1302.800000
1586.104223	1450.700000
1588.005659	1564.800000
1589.903061	1598.400000
1591.800044	1646.100000
1593.696609	1563.100000
1595.594561	1475.500000
1597.486679	1321.500000
1599.381991	1184.000000
1601.276885	1064.300000
1603.169557	993.300000
1605.061812	928.700000
1606.951848	906.400000
1608.841468	861.800000
1610.730673	854.500000
1612.619462	817.400000
1614.506035	802.100000
1616.393995	772.600000
1618.277938	760.700000
1620.163268	752.600000
1622.048185	728.400000
1623.930888	718.900000
1625.814978	702.800000
1627.695056	659.200000
1629.576522	675.400000
1631.455776	660.400000
1633.336418	632.600000
1635.211255	597.700000
1637.091073	607.500000
1638.966887	598.400000
1640.842290	608.500000
1642.719079	564.400000
1644.590071	595.600000
1646.464246	574.900000
1648.334421	595.500000
1650.207777	560.700000
1652.078930	565.400000
1653.947881	544.600000
1655.818218	557.900000
1657.684562	541.100000
1659.552291	551.300000
1661.417821	550.500000
1663.284737	527.800000
1665.147663	539.000000
1667.011976	530.000000
1668.874092	520.800000
1670.735803	502.500000
1672.598899	509.800000
1674.459801	491.400000
1676.318510	506.300000
1678.176815	492.700000
1680.036504	498.800000
1681.890427	489.000000
1683.747523	505.100000
1685.604215	482.800000
1687.456932	493.200000
1689.312820	484.100000
1691.164734	469.700000
1693.016247	448.900000
1694.867359	454.300000
1696.718070	465.000000
1698.568381	438.100000
1700.416508	426.700000
1702.266019	425.800000
1704.109780	438.500000
1705.958492	451.100000
1707.801457	427.700000
1709.647588	434.200000
1711.489758	439.700000
1713.335093	421.000000
1715.174687	419.200000
1717.015665	422.000000
1718.858026	448.300000
1720.696430	427.400000
1722.536218	444.100000
1724.373831	443.800000
1726.211049	457.800000
1728.046093	419.600000
1729.882520	446.200000
1731.716774	427.900000
1733.550635	417.700000
1735.384101	419.200000
1737.213621	432.100000
1739.046301	414.800000
1740.875035	427.600000
1742.706928	407.200000
1744.534878	451.000000
1746.362436	428.000000
1748.189603	430.300000
1750.016378	424.700000
1751.842761	409.400000
1753.665208	417.300000
1755.490810	428.800000
1757.312477	412.700000
1759.135525	416.300000
1760.956413	424.400000
1762.776912	426.300000
1764.598791	426.900000
1766.414971	413.800000
1768.234303	414.900000
1770.049708	425.600000
1771.868264	389.900000
1773.682894	442.500000
1775.497137	414.200000
1777.310994	418.400000
1779.124464	427.300000
1780.935780	401.200000
1782.748478	430.700000
1784.560790	443.000000
1786.369183	432.800000
1788.178958	422.700000
1789.984818	389.300000
1791.793823	415.800000
1793.598915	425.000000
1795.405388	410.900000
1797.211476	394.500000
1799.013655	399.200000
1800.818978	419.800000
1802.620391	402.200000
1804.423186	398.800000
1806.222074	381.600000
1808.022343	389.000000
1809.822230	409.100000
1811.619975	416.300000
1813.417340	397.400000
1815.214324	402.800000
1817.010929	403.500000
1818.805393	406.800000
1820.601238	401.800000
1822.391427	406.900000
1824.186513	422.100000
1825.975946	435.000000
1827.768517	426.000000
1829.558952	421.700000
1831.347252	427.000000
1833.138688	418.900000
1834.924479	440.600000
1836.711649	434.500000
1838.496687	430.000000
1840.284858	427.300000
1842.069145	412.500000
1843.851301	445.200000
1845.634837	443.000000
1847.416244	421.200000
1849.199029	424.900000
1850.977935	416.300000
1852.758219	416.800000
1854.536378	424.500000
1856.315914	438.600000
1858.093326	426.800000
1859.868615	410.800000
1861.645281	409.600000
1863.419825	428.500000
1865.195746	416.000000
1866.966048	418.100000
1868.739477	441.200000
1870.510786	413.000000
1872.281724	406.900000
1874.054040	429.300000
1875.820742	413.700000
1877.590569	431.700000
1879.356533	423.300000
1881.125621	428.200000
1882.890847	418.600000
1884.655705	435.500000
1886.421939	417.100000
1888.184316	418.500000
1889.946324	395.500000
1891.707966	428.600000
1893.469240	413.800000
1895.230148	423.500000
1896.990688	418.200000
1898.749120	422.700000
1900.507185	402.600000
1902.263143	436.500000
1904.020477	422.600000
1905.777446	419.100000
1907.532308	404.900000
1909.285066	415.800000
1911.037459	419.000000
1912.791229	380.900000
1914.542895	390.900000
1916.292458	397.800000
1918.043398	374.800000
1919.793974	379.900000
1921.540712	414.700000
1923.288825	388.000000
1925.034840	385.700000
1926.782229	365.500000
1928.527520	387.000000
1930.270715	384.700000
1932.015284	417.500000
1933.757757	376.600000
1935.499871	401.400000
1937.241624	383.500000
1938.983017	403.700000
1940.722317	392.900000
1942.461258	410.100000
1944.199840	406.900000
1945.936331	405.600000
1947.672463	398.750000
1949.409971	391.900000
1951.143656	408.200000
1952.878716	366.700000
1954.611687	364.000000
1956.344302	372.700000
1958.076560	374.600000
1959.808462	403.500000
1961.538279	393.200000
1963.266010	384.200000
1964.995116	397.400000
1966.723866	384.200000
1968.450533	390.600000
1970.176846	386.000000
1971.904533	379.400000
1973.626683	354.500000
1975.351934	368.800000
1977.073378	361.500000
1978.797922	394.500000
1980.520387	360.400000
1982.239048	380.600000
1983.960809	371.500000
1985.678767	386.300000
1987.398098	368.600000
1989.113630	385.600000
1990.833982	360.100000
1992.550536	384.100000
1994.263293	377.100000
1995.979146	383.700000
1997.692927	373.300000
1999.406358	390.500000
2001.117718	386.600000
2002.830450	404.900000
2004.539392	398.400000
2006.251426	396.600000
2007.957951	375.400000
2009.667569	390.200000
2011.375119	385.900000
2013.082322	374.600000
2014.787459	408.900000
2016.492250	402.200000
2018.198412	404.600000
2019.900791	390.700000
2021.604543	407.000000
2023.306232	408.300000
2025.007575	394.000000
2026.708574	392.100000
2028.407511	402.400000
2030.107820	387.900000
2031.804353	376.500000
2033.502258	379.800000
2035.198105	387.400000
2036.897037	382.200000
2038.590483	392.500000
2040.285300	373.000000
2041.979774	378.700000
2043.670481	362.200000
2045.364270	366.100000
2047.054294	391.000000
2048.745688	375.300000
2050.435028	370.400000
2052.125740	377.300000
2053.812688	379.900000
2055.499296	371.400000
2057.187275	386.800000
2058.871494	377.600000
2060.557083	376.700000
2062.242333	415.500000
2063.925535	378.500000
2065.610107	373.900000
2067.289215	368.500000
2068.973110	408.200000
2070.651543	393.400000
2072.333054	412.100000
2074.010813	416.500000
2075.688236	394.100000
2077.367028	384.400000
2079.043777	390.700000
2080.718485	399.700000
2082.394563	396.900000
2084.068599	396.900000
2085.742301	379.300000
2087.415667	406.100000
2089.086994	387.900000
2090.757987	398.600000
2092.428646	402.200000
2094.098971	396.500000
2095.768962	397.900000
2097.436917	382.100000
2099.104538	396.300000
2100.770126	387.300000
2102.437082	394.200000
2104.102005	370.000000
2105.766596	391.500000
2107.429155	398.700000
2109.093082	392.400000
2110.754978	387.500000
2112.416544	359.700000
2114.077778	373.100000
2115.736983	388.800000
2117.395859	359.600000
2119.054405	372.500000
2120.712620	376.600000
2122.367113	388.600000
2124.024670	371.800000
2125.681897	363.600000
2127.335404	378.700000
2128.990278	367.500000
2130.641433	362.200000
2132.295651	363.700000
2133.946151	349.100000
2135.598019	351.000000
2137.244478	364.000000
2138.895691	362.900000
2140.543192	345.500000
2142.192059	364.000000
2143.838907	343.900000
2145.485430	363.600000
2147.131627	349.600000
2148.774116	374.400000
2150.419662	374.100000
2152.061502	376.100000
2153.706399	348.500000
2155.347591	380.600000
2156.988459	373.000000
2158.629004	381.600000
2160.267536	377.500000
2161.907434	387.200000
2163.543632	389.100000
2165.181196	377.900000
2166.818438	389.800000
2168.453670	391.200000
2170.088580	393.800000
2171.723169	386.000000
2173.357437	405.500000
2174.988011	386.400000
2176.621637	385.100000
2178.251571	391.600000
2179.882870	385.600000
2181.512164	377.300000
2183.141139	373.200000
2184.769794	380.500000
2186.398130	372.100000
2188.024463	357.500000
2189.650478	392.100000
2191.274492	360.900000
2192.899871	374.500000
2194.523249	377.500000
2196.147992	363.300000
2197.769054	384.400000
2199.389799	383.900000
2201.011908	404.600000
2202.632020	376.200000
2204.250136	390.500000
2205.867936	404.300000
2207.485420	384.400000
2209.102590	392.500000
2210.719443	402.400000
2212.335982	388.700000
2213.950528	374.700000
2215.563081	383.000000
2217.176998	366.000000
2218.788924	365.200000
2220.402213	375.700000
2222.013512	373.200000
2223.622821	383.300000
2225.233493	383.800000
2226.842177	378.400000
2228.450549	363.000000
2230.056934	346.800000
2231.664681	363.000000
2233.270443	371.300000
2234.875893	365.000000
2236.479358	360.500000
2238.084186	356.600000
2239.687030	360.600000
2241.287891	367.700000
2242.890115	353.400000
2244.490357	357.600000
2246.091961	363.100000
2247.689912	365.300000
2249.289226	378.000000
2250.886560	394.200000
2252.483586	390.700000
2254.081973	379.300000
2255.676713	389.100000
2257.269475	386.800000
2258.863600	387.700000
2260.459086	383.500000
2262.050927	386.800000
2263.642462	392.900000
2265.235359	386.000000
2266.822946	367.200000
2268.415229	386.100000
2270.002205	364.200000
2271.592210	395.700000
2273.176910	372.700000
2274.766304	402.600000
2276.350395	376.800000
2277.935848	353.800000
2279.519332	366.600000
2281.105841	370.000000
2282.688717	346.900000
2284.271290	337.200000
2285.853559	364.500000
2287.432198	322.000000
2289.013862	378.900000
2290.591897	352.500000
2292.172955	352.100000
2293.750386	358.450000
2295.325854	364.800000
2296.904344	337.800000
2298.479210	340.400000
2300.053775	349.900000
2301.628039	361.800000
2303.202003	345.800000
2304.775667	347.800000
2306.349031	339.300000
2307.918776	372.800000
2309.488222	354.600000
2311.060686	359.500000
2312.627876	345.500000
2314.198083	343.800000
2315.764677	367.600000
2317.332629	348.700000
2318.898627	363.600000
2320.464327	366.100000
2322.029729	348.700000
2323.593178	360.500000
2325.157986	362.600000
2326.719186	364.500000
2328.283399	351.500000
2329.842352	355.500000
2331.404318	344.500000
2332.964334	358.400000
2334.524054	328.100000
2336.081826	362.400000
2337.639302	346.200000
2339.196484	325.100000
2340.751718	342.300000
2342.306659	353.000000
2343.861305	342.200000
2345.415658	359.200000
2346.969717	359.500000
2348.523483	359.800000
2350.075304	334.100000
2351.625182	351.200000
2353.178069	361.200000
2354.725712	378.900000
2356.276364	361.200000
2357.823424	353.500000
2359.371842	347.100000
2360.919969	371.800000
2362.464507	350.000000
2364.010403	345.300000
2365.554361	344.600000
2367.099675	352.100000
2368.641405	333.400000
2370.184493	336.100000
2371.725644	355.000000
2373.266506	350.400000
2374.807079	348.300000
2376.347363	342.800000
2377.887358	343.700000
2379.423774	329.700000
2380.963192	343.100000
2382.499033	348.800000
2384.036231	355.100000
2385.569853	354.500000
2387.106475	348.800000
2388.641167	336.800000
2390.173929	359.200000
2391.706404	351.500000
2393.236951	354.000000
2394.770496	342.200000
2396.298830	342.300000
2397.828520	340.000000
2399.357925	320.000000
2400.887045	351.300000
2402.415879	355.500000
2403.939509	332.700000
2405.467774	351.700000
2406.990837	368.000000
2408.518533	359.200000
2410.039390	383.000000
2411.564879	329.100000
2413.086809	377.000000
2414.610093	346.900000
2416.131457	354.900000
2417.650901	361.600000
2419.171700	359.000000
2420.690580	367.800000
2422.209179	353.700000
2423.725859	350.700000
2425.243895	345.100000
2426.761649	357.400000
2428.275851	366.200000
2429.789774	375.200000
2431.303416	373.200000
2432.818412	352.800000
2434.329861	363.600000
2435.842663	369.700000
2437.353553	382.300000
2438.864164	367.200000
2440.372863	390.700000
2441.884548	394.100000
2443.392690	382.900000
2444.900554	397.700000
2446.408139	411.200000
2447.912185	415.700000
2449.419215	416.000000
2450.924337	406.800000
2452.429182	436.100000
2453.932120	423.500000
2455.434782	416.500000
2456.937167	390.100000
2458.437647	437.100000
2459.939480	415.500000
2461.439408	414.900000
2462.939061	405.100000
2464.438439	383.600000
2465.935914	417.800000
2467.431487	376.200000
2468.930040	391.300000
2470.425065	390.500000
2471.921442	379.000000
2473.414293	384.000000
2474.908497	395.800000
2476.402427	360.100000
2477.892833	381.200000
2479.386217	354.900000
2480.877703	380.000000
2482.367292	377.500000
2483.856609	362.600000
2485.344030	362.200000
2486.834427	368.900000
2488.321306	352.300000
2489.809536	353.000000
2491.294249	337.000000
2492.778692	351.000000
2494.264487	344.000000
2495.748390	356.400000
2497.233643	341.100000
2498.713763	322.300000
2500.196856	331.700000
2501.678058	338.300000
2503.158991	353.300000
2504.638035	324.800000
2506.116810	306.500000
2507.595317	321.300000
2509.073555	324.100000
2510.551526	337.000000
2512.025991	340.300000
2513.503426	325.700000
2514.977356	336.900000
2516.452638	334.700000
2517.927652	334.000000
2519.399165	343.000000
2520.872029	329.300000
2522.343010	333.600000
2523.815341	342.700000
2525.282558	307.900000
2526.752742	347.200000
2528.221045	322.000000
2529.689083	331.500000
2531.156855	309.300000
2532.624363	338.500000
2534.091607	329.400000
2535.555358	343.200000
2537.020459	327.300000
2538.483683	314.600000
2539.948256	335.000000
2541.409341	344.700000
2542.871775	331.300000
2544.333946	351.200000
2545.792630	338.600000
2547.255887	329.300000
2548.714047	324.800000
2550.173557	341.300000
2551.627972	332.100000
2553.086958	358.800000
2554.544072	343.400000
2555.999314	348.900000
2557.454296	337.600000
2558.907408	345.600000
2560.361869	342.500000
2561.814461	351.400000
2563.266793	334.900000
2564.717257	350.700000
2566.170678	343.900000
2567.619016	329.900000
2569.070309	335.800000
2570.519737	338.000000
2571.965692	343.400000
2573.414602	352.600000
2574.860042	355.700000
2576.306829	366.200000
2577.751753	361.500000
2579.196420	368.600000
2580.642434	358.000000
2582.084982	359.900000
2583.528876	338.600000
2584.969306	351.400000
2586.411084	371.700000
2587.851002	337.800000
2589.292267	355.200000
2590.730070	347.000000
2592.170823	344.600000
2593.606514	348.000000
2595.045153	343.300000
2596.481936	354.200000
2597.916863	370.100000
2599.354737	332.800000
2600.787554	340.100000
2602.221718	323.300000
2603.654028	351.900000
2605.087684	335.800000
2606.519487	337.300000
2607.951036	335.200000
2609.382332	348.100000
2610.811777	347.900000
2612.240969	314.000000
2613.668310	331.000000
2615.096998	357.600000
2616.525433	335.800000
2617.950422	337.400000
2619.376756	362.200000
2620.801243	370.800000
2622.227075	367.300000
2623.649463	363.400000
2625.073196	375.400000
2626.495084	355.300000
2627.916721	364.800000
2629.336514	376.100000
2630.757652	381.700000
2632.178540	384.300000
2633.595989	382.800000
2635.016378	393.500000
2636.433330	389.700000
2637.850034	401.000000
2639.266489	401.300000
2640.682696	396.300000
2642.098655	396.200000
2643.512773	419.800000
2644.926643	423.700000
2646.338674	408.700000
2647.752050	434.000000
2649.161996	413.600000
2650.574878	411.200000
2651.984331	439.800000
2653.393538	453.500000
2654.800909	457.800000
2656.211214	457.600000
2657.619683	482.600000
2659.026318	467.600000
2660.432707	484.100000
2661.837262	493.200000
2663.243161	512.900000
2664.647227	551.500000
2666.051048	567.400000
2667.454625	578.600000
2668.856371	589.200000
2670.259460	612.600000
2671.659131	664.000000
2673.060146	684.800000
2674.457745	699.500000
2675.858273	744.600000
2677.255387	792.100000
2678.653844	803.800000
2680.050474	865.100000
2681.446861	875.700000
2682.843006	925.600000
2684.237325	963.900000
2685.632987	975.600000
2687.025240	1045.600000
2688.418835	1063.500000
2689.810606	1085.400000
2691.203720	1103.300000
2692.595010	1092.400000
2693.984477	1117.500000
2695.373704	1102.200000
2696.762692	1103.400000
2698.153021	1074.700000
2699.538367	1044.900000
2700.926636	1013.800000
2702.313085	991.600000
2703.699295	940.800000
2705.085266	938.900000
2706.467839	881.200000
2707.851754	802.900000
2709.235430	786.100000
2710.618869	760.300000
2711.998912	706.600000
2713.380297	679.200000
2714.759867	644.400000
2716.140777	597.500000
2717.519873	611.600000
2718.897155	580.400000
2720.275778	553.200000
2721.652587	541.100000
2723.029161	542.100000
2724.405499	508.700000
2725.780025	494.500000
2727.155892	517.600000
2728.528373	449.000000
2729.903769	454.300000
2731.274205	428.600000
2732.645981	415.500000
2734.017524	441.100000
2735.387258	403.500000
2736.758332	406.200000
2738.127599	384.500000
2739.496632	379.800000
2740.863859	373.700000
2742.230852	381.900000
2743.597613	369.700000
2744.964141	372.700000
2746.328865	364.500000
2747.693356	342.000000
2749.057616	349.000000
2750.421643	348.100000
2751.785438	342.700000
2753.145861	317.100000
2754.509193	344.700000
2755.867583	285.400000
2757.228883	314.900000
2758.586813	304.100000
2759.947651	302.400000
2761.306689	317.800000
2762.662360	303.700000
2764.020938	299.200000
2765.376149	285.100000
2766.731131	299.500000
2768.084316	308.200000
2769.440408	312.900000
2770.793136	293.500000
2772.145636	309.400000
2773.497907	319.500000
2774.851516	310.800000
2776.201765	297.600000
2777.550219	338.100000
2778.901578	325.100000
2780.249579	298.800000
2781.598917	295.900000
2782.946463	300.300000
2784.293783	309.400000
2785.640875	301.900000
2786.986177	313.800000
2788.331253	293.400000
2789.676103	297.200000
2791.020727	293.500000
2792.361999	307.400000
2793.704608	304.000000
2795.046993	313.700000
2796.389152	316.200000
2797.727962	309.000000
2799.069672	322.200000
2800.408033	285.800000
2801.747732	305.000000
2803.085646	301.400000
2804.421774	295.300000
2805.757680	306.400000
2807.094923	296.800000
2808.430382	310.100000
2809.765617	313.600000
2811.099071	298.000000
2812.433861	306.200000
2813.765311	314.000000
2815.099656	325.800000
2816.429102	332.300000
2817.759886	322.400000
2819.090449	303.100000
2820.419232	288.300000
2821.749351	302.000000
2823.077692	298.800000
2824.405812	277.800000
2825.732154	278.400000
2827.059832	289.000000
2828.384178	276.500000
2829.709860	260.800000
2831.033766	295.600000
2832.357452	267.600000
2833.682474	269.100000
2835.004167	284.200000
2836.325641	267.600000
2837.646895	278.400000
2838.967932	262.600000
2840.287195	281.600000
2841.607794	283.500000
2842.926621	302.600000
2844.245231	273.800000
2845.562069	273.500000
2846.878690	269.400000
2848.195094	278.300000
2849.509728	270.000000
2850.825697	280.800000
2852.138347	293.700000
2853.452331	264.700000
2854.766099	283.400000
2856.079650	292.400000
2857.391435	304.300000
2858.701453	287.200000
2860.012806	267.600000
2861.320844	273.300000
2862.630216	260.100000
2863.939373	263.200000
2865.248316	252.200000
2866.555494	260.300000
2867.860910	271.800000
2869.167659	257.600000
2870.472647	275.500000
2871.777420	288.800000
2873.080433	252.600000
2874.386326	271.600000
2875.687365	283.200000
2876.989737	248.900000
2878.290351	241.500000
2879.592297	260.400000
2880.894031	247.200000
2882.192461	244.500000
2883.492224	242.000000
2884.790230	239.100000
2886.088024	239.000000
2887.384062	261.800000
2888.681432	237.600000
2889.977048	254.400000
2891.272452	248.900000
2892.567645	242.200000
2893.859541	246.100000
2895.154312	247.400000
2896.445788	237.200000
2897.738596	245.200000
2899.031194	252.000000
2900.320497	253.200000
2901.611134	231.800000
2902.900019	255.300000
2904.190236	250.200000
2905.477162	240.900000
2906.765420	262.900000
2908.051929	269.000000
2909.338229	262.900000
2910.624321	260.400000
2911.908665	261.200000
2913.195881	256.700000
2914.478270	232.100000
2915.761991	257.200000
2917.043965	232.700000
2918.325733	254.800000
2919.605755	250.900000
2920.888648	247.000000
2922.169794	225.900000
2923.447659	235.700000
2924.728393	235.800000
2926.005847	241.500000
2927.283094	278.800000
2928.558599	239.000000
2929.836972	240.000000
2931.110531	243.900000
2932.386957	258.400000
2933.661642	259.700000
2934.934586	236.800000
2936.208862	269.800000
2937.481398	258.200000
2938.753729	248.100000
2940.022788	252.400000
2941.294712	247.000000
2942.564898	246.700000
2943.834880	248.200000
2945.104659	259.400000
2946.372702	277.300000
2947.639008	240.500000
2948.905112	238.500000
2950.172547	259.100000
2951.438246	242.800000
2952.703744	252.000000
2953.969039	242.800000
2955.231069	244.300000
2956.494429	242.600000
2957.757588	218.700000
2959.019015	251.300000
2960.281771	233.000000
2961.542795	248.700000
2962.802089	238.700000
2964.061182	239.200000
2965.320076	277.900000
2966.578769	243.900000
2967.837261	241.400000
2969.094025	241.600000
2970.350590	236.200000
2971.605426	239.400000
2972.861592	242.800000
2974.114503	250.400000
2975.368742	240.900000
2976.622783	250.700000
2977.875098	251.800000
2979.127215	243.500000
2980.377607	248.500000
2981.630854	268.300000
2982.879324	255.500000
2984.130649	243.200000
2985.378724	254.300000
2986.626602	255.800000
2987.874284	234.200000
2989.121768	254.800000
2990.367531	239.400000
2991.613098	239.000000
2992.859992	244.600000
2994.103642	235.800000
2995.348619	232.200000
2996.590354	240.100000
2997.834940	233.500000
2999.077807	256.800000
3000.317433	246.200000
3001.559909	224.800000
3002.799145	240.100000
3004.039709	245.300000
3005.278556	244.200000
3006.517209	234.200000
3007.754146	230.400000
3008.992411	241.500000
3010.228960	234.800000
3011.465316	237.900000
3012.701478	246.000000
3013.935926	246.500000
3015.170181	250.000000
3016.404244	221.900000
3017.636593	233.800000
3018.867231	246.800000
3020.100715	230.200000
3021.332488	206.000000
3022.562549	241.800000
3023.792419	232.100000
3025.020579	243.300000
3026.250066	243.200000
3027.477843	235.500000
3028.705429	245.300000
3029.934341	228.100000
3031.158511	232.300000
3032.385524	240.000000
3033.609314	224.100000
3034.834429	228.300000
3036.057839	230.500000
3037.281058	221.600000
3038.502572	221.100000
3039.726927	219.900000
3040.946547	231.500000
3042.167493	226.300000
3043.388249	212.500000
3044.607303	236.500000
3045.827681	222.000000
3047.044843	225.500000
3048.263330	230.800000
3049.480116	252.000000
3050.696713	234.500000
3051.913123	249.100000
3053.126319	228.200000
3054.342353	218.600000
3055.555175	242.200000
3056.770834	238.100000
3057.981771	230.200000
3059.194032	235.100000
3060.406106	231.400000
3061.617994	222.600000
3062.828185	210.500000
3064.038189	223.500000
3065.248007	206.000000
3066.456129	221.000000
3067.664066	211.500000
3068.870307	225.000000
3070.077873	219.200000
3071.283744	211.350000
3072.489430	203.500000
3073.694932	208.600000
3074.898740	196.300000
3076.103872	197.800000
3077.307311	192.800000
3078.509059	214.300000
3079.710622	182.400000
3080.912002	193.500000
3082.113198	209.100000
3083.312704	194.500000
3084.512027	212.000000
3085.712673	189.700000
3086.911629	199.100000
3088.107391	195.400000
3089.305981	203.200000
3090.501378	194.500000
3091.698099	186.800000
3092.891627	190.700000
3094.087983	204.000000
3095.282652	189.000000
3096.474131	184.600000
3097.669942	211.300000
3098.861058	190.700000
3100.053498	194.600000
3101.242749	196.900000
3102.434827	181.300000
3103.625221	181.400000
3104.812429	192.200000
3106.000959	217.400000
3107.190812	197.900000
3108.377480	205.800000
3109.563969	184.900000
3110.750279	201.500000
3111.937910	190.800000
3113.122359	193.400000
3114.305129	175.600000
3115.490721	190.100000
3116.674634	193.200000
3117.856867	206.400000
3119.038923	192.300000
3120.220800	191.500000
3121.402499	218.800000
3122.582521	169.300000
3123.760866	195.500000
3124.942031	192.500000
3126.120021	195.800000
3127.297834	191.400000
3128.475470	178.000000
3129.651431	195.600000
3130.827216	179.700000
3132.004321	200.100000
3133.179753	191.500000
3134.353511	185.000000
3135.525596	170.100000
3136.699003	191.200000
3137.872233	176.400000
3139.043792	199.700000
3140.216671	183.700000
3141.386383	171.300000
3142.557416	185.600000
3143.726778	190.800000
3144.894471	187.400000
3146.064979	175.100000
3147.230829	190.000000
3148.400987	168.000000
3149.566488	192.400000
3150.731816	182.500000
3151.896970	183.700000
3153.061951	196.100000
3154.228251	210.900000
3155.389898	166.000000
3156.552866	180.700000
3157.715661	195.700000
3158.878283	204.700000
3160.039239	181.900000
3161.200024	186.800000
3162.360636	181.300000
3163.519584	191.800000
3164.678361	197.000000
3165.836965	196.300000
3166.995398	185.900000
3168.153660	180.900000
3169.310259	204.700000
3170.465197	184.300000
3171.621454	185.900000
3172.776050	190.800000
3173.930476	179.200000
3175.083242	188.700000
3176.235837	196.300000
3177.388263	200.300000
3178.540518	191.500000
3179.692604	174.400000
3180.841543	194.700000
3181.993289	179.600000
3183.143378	184.400000
3184.291810	182.700000
3185.440072	171.000000
3186.588166	180.500000
3187.736091	170.400000
3188.882360	172.500000
3190.028461	182.600000
3191.172908	199.000000
3192.317187	186.900000
3193.461297	170.900000
3194.606726	178.000000
3195.749016	183.800000
3196.891139	188.800000
3198.033094	187.300000
3199.174882	181.100000
3200.316503	177.600000
3201.454989	186.500000
3202.594792	177.700000
3203.735912	183.200000
3204.873899	189.500000
3206.010235	177.600000
3207.146407	183.300000
3208.283895	177.600000
3209.419735	167.200000
3210.556892	165.800000
3211.689436	170.300000
3212.826261	191.100000
3213.958476	171.500000
3215.092007	174.300000
3216.225373	190.800000
3217.355613	181.000000
3218.488650	178.500000
3219.618561	151.200000
3220.749788	184.500000
3221.877891	175.300000
3223.008790	190.100000
3224.138045	187.300000
3225.265657	161.800000
3226.390146	175.600000
3227.518911	187.600000
3228.644554	185.200000
3229.770034	182.400000
3230.893873	161.100000
3232.020507	201.500000
3233.142543	201.700000
3234.265895	197.200000
3235.389085	209.500000
3236.512112	198.300000
3237.633501	185.700000
3238.754727	191.300000
3239.874315	192.600000
3240.993742	194.900000
3242.111532	177.100000
3243.232113	191.600000
3244.349581	191.800000
3245.466888	189.100000
3246.584035	181.600000
3247.699545	184.300000
3248.816371	201.800000
3249.930087	191.700000
3251.046592	188.300000
3252.161462	186.100000
3253.273224	195.800000
3254.384827	187.800000
3255.497745	167.900000
3256.610503	189.100000
3257.720155	179.500000
3258.831122	173.700000
3259.941930	177.000000
3261.051106	164.200000
3262.158651	177.300000
3263.267511	159.800000
3264.376212	176.100000
3265.481811	169.400000
3266.588725	163.000000
3267.694009	166.000000
3268.800607	194.300000
3269.904105	161.000000
3271.008917	171.400000
3272.113572	179.100000
3273.215129	171.500000
3274.316529	187.900000
3275.419243	150.400000
3276.521801	158.100000
3277.621262	168.900000
3278.723507	156.900000
3279.822656	163.000000
3280.920180	146.300000
3282.017550	159.300000
3283.117701	158.800000
3284.214760	162.900000
3285.311663	152.500000
3286.408411	164.000000
3287.500600	162.200000
3288.597039	159.500000
3289.691855	146.700000
3290.786517	149.000000
3291.879556	163.900000
3292.972442	136.900000
3294.063707	143.000000
3295.156285	156.000000
3296.247243	140.800000
3297.336581	156.500000
3298.425766	152.700000
3299.516263	137.100000
3300.603677	153.800000
3301.690937	158.000000
3302.779510	175.300000
3303.867930	167.300000
3304.951804	153.800000
3306.039919	152.600000
3307.124952	164.000000
3308.208370	152.600000
3309.293100	163.000000
3310.376214	152.400000
3311.460641	171.900000
3312.541989	155.000000
3313.624649	147.500000
3314.705694	149.600000
3315.786589	146.200000
3316.865871	154.000000
3317.945002	145.600000
3319.025445	152.900000
3320.102813	158.100000
3321.181493	166.900000
3322.258561	146.700000
3323.335479	143.100000
3324.410787	168.100000
3325.485945	137.900000
3326.562414	169.600000
3327.635813	151.300000
3328.709062	154.200000
3329.783623	155.700000
3330.856575	153.300000
3331.927918	142.000000
3333.000572	151.200000
3334.070159	152.400000
3335.141058	145.700000
3336.210349	164.400000
3337.280950	157.100000
3338.349946	167.300000
3339.417335	182.200000
3340.483119	140.700000
3341.553129	158.200000
3342.620076	142.300000
3343.683961	132.500000
3344.750613	149.300000
3345.815662	145.600000
3346.879107	157.400000
3347.942406	149.200000
3349.005558	164.400000
3350.068564	155.900000
3351.131424	165.200000
3352.192681	140.900000
3353.250882	145.500000
3354.313304	127.600000
3355.372670	139.800000
3356.431890	133.900000
3357.492419	148.900000
3358.548440	164.100000
3359.607224	152.800000
3360.661501	159.100000
3361.718542	156.200000
3362.773984	143.800000
3363.830736	147.200000
3364.885889	151.900000
3365.939445	131.700000
3366.991404	142.400000
3368.046126	144.500000
3369.097798	128.700000
3370.149327	148.700000
3371.202164	145.500000
3372.251954	133.200000
3373.303053	141.700000
3374.351105	151.400000
3375.401918	141.700000
3376.449685	139.400000
3377.497310	155.400000
3378.544793	135.500000
3379.590683	151.400000
3380.637881	151.300000
3381.682037	142.700000
3382.728951	136.900000
3383.774273	142.200000
3384.816554	140.100000
3385.858694	133.000000
3386.902143	148.300000
3387.945450	157.500000
3388.987167	150.100000
3390.028744	134.800000
3391.070179	134.200000
3392.110026	144.000000
3393.148284	130.100000
3394.187850	143.800000
3395.227276	148.300000
3396.265114	148.800000
3397.301365	132.500000
3398.337477	128.900000
3399.374895	148.100000
3400.409281	145.200000
3401.444975	139.000000
3402.480529	143.000000
3403.513052	141.100000
3404.548327	137.600000
3405.580573	140.900000
3406.612680	133.700000
3407.643203	132.800000
3408.675033	145.300000
3409.706725	138.500000
3410.735389	150.600000
3411.763916	139.300000
3412.793749	147.900000
3413.823445	136.900000
3414.850115	136.700000
3415.878091	131.900000
3416.903044	128.800000
3417.930746	144.100000
3418.955424	142.500000
3419.981409	146.100000
3421.005815	141.600000
3422.030084	149.300000
3423.052774	158.300000
3424.075328	137.500000
3425.099188	131.900000
3426.120028	132.700000
3427.140732	135.600000
3428.162742	141.100000
3429.181734	131.400000
3430.200591	137.400000
3431.220754	131.200000
3432.237900	133.800000
