-117.018713	6.000000
-114.349113	8.250000
-111.682448	-11.100000
-109.016535	7.750000
-106.353555	-2.900000
-103.689144	15.500000
-101.027664	1.550000
-98.364755	4.250000
-95.706952	1.550000
-93.047720	1.000000
-90.389236	-6.450000
-87.733677	-8.550000
-85.076688	0.650000
-82.424798	-1.250000
-79.771478	0.900000
-77.121077	5.700000
-74.469248	-1.750000
-71.822509	3.500000
-69.174340	-3.800000
-66.526914	-10.750000
-63.882403	-6.400000
-61.236462	0.800000
-58.595603	-11.750000
-55.953315	10.500000
-53.313936	-11.000000
-50.673128	-1.700000
-48.033059	0.850000
-45.398064	4.950000
-42.761639	-8.700000
-40.128117	12.100000
-37.493167	-1.350000
-34.863283	5.200000
-32.229805	18.400000
-29.601390	6.450000
-26.973709	11.150000
-24.344599	9.150000
-21.720547	3.350000
-19.092904	18.200000
-16.470316	20.100000
-13.848458	29.050000
-11.227331	52.400000
-8.606935	143.650000
-5.989426	546.400000
-3.370489	1983.750000
-0.754438	4373.600000
1.860886	5041.250000
4.475481	2215.200000
7.087195	226.100000
9.700337	49.050000
12.308445	29.700000
14.920134	14.000000
17.526793	8.600000
20.134881	13.600000
22.742243	4.050000
25.344581	-9.600000
27.950498	17.350000
30.551392	0.250000
33.153714	2.300000
35.751018	5.400000
38.351899	8.800000
40.947764	2.850000
43.545057	-3.250000
46.141632	7.100000
48.733197	3.400000
51.326190	3.750000
53.916322	1.000000
56.507881	6.150000
59.096582	10.000000
61.686709	1.050000
64.271837	2.450000
66.858393	-2.400000
69.444235	2.050000
72.027222	-6.500000
74.611637	1.900000
77.188923	1.200000
79.769775	-0.200000
82.347778	-1.400000
84.925070	13.900000
87.503790	-1.400000
90.077527	3.050000
92.652691	11.450000
95.225012	0.400000
97.796626	7.850000
100.365399	-2.400000
102.935599	-4.400000
105.502960	15.300000
108.071748	12.600000
110.637699	7.350000
113.200815	-0.550000
115.767487	11.300000
118.324937	9.850000
120.888073	31.050000
123.446250	34.500000
126.007981	43.950000
128.564755	51.050000
131.122955	74.050000
133.676203	97.650000
136.228753	158.850000
138.784853	220.600000
141.336005	300.250000
143.886460	375.500000
146.436217	451.000000
148.983155	490.950000
151.529398	534.950000
154.077066	551.200000
156.624038	555.000000
159.166075	557.500000
161.707418	534.900000
164.248068	548.400000
166.790144	554.000000
169.329408	543.350000
171.865863	537.850000
174.401628	549.400000
176.938818	539.850000
179.475317	537.000000
182.009010	535.850000
184.539899	541.000000
187.070100	531.100000
189.601727	526.700000
192.130552	531.650000
194.656578	526.050000
197.181918	517.750000
199.708683	515.450000
202.232652	532.350000
204.755936	527.200000
207.278534	532.600000
209.798340	531.000000
212.317463	527.800000
214.835903	542.050000
217.355768	552.150000
219.868630	534.800000
222.385024	557.050000
224.900737	556.550000
227.411559	572.000000
229.923806	574.100000
232.433270	597.250000
234.942056	591.950000
237.450164	591.000000
239.959696	569.950000
242.464347	580.650000
244.968322	581.950000
247.473721	590.100000
249.974245	586.650000
252.478292	588.100000
254.975369	568.600000
257.475969	584.250000
259.973797	580.850000
262.470952	587.500000
264.967434	593.750000
267.459053	596.050000
269.954192	585.250000
272.446564	602.400000
274.938266	585.100000
277.427205	591.950000
279.917567	591.200000
282.405168	599.050000
284.890009	593.850000
287.378365	589.150000
289.859781	601.850000
292.344711	621.950000
294.824796	623.500000
297.308393	631.850000
299.787147	653.350000
302.267324	655.200000
304.744750	644.100000
307.221512	640.500000
309.697610	614.200000
312.170960	607.550000
314.643649	586.550000
317.115676	584.550000
319.587041	594.400000
322.055663	590.850000
324.523625	602.250000
326.993010	584.600000
329.457572	559.150000
331.925638	543.150000
334.388883	524.700000
336.851472	547.300000
339.313404	523.200000
341.774679	528.000000
344.233219	505.100000
346.693183	513.250000
349.150413	511.350000
351.606989	495.050000
354.062911	479.900000
356.516103	483.650000
358.970718	469.950000
361.420531	476.000000
363.873840	459.900000
366.322350	455.400000
368.770210	458.350000
371.219492	461.600000
373.663979	459.250000
376.109890	434.550000
378.555150	416.000000
380.997692	424.650000
383.439586	441.100000
385.880832	410.850000
388.319364	420.400000
390.759316	415.000000
393.196555	410.250000
395.631083	401.150000
398.069097	388.900000
400.502336	404.300000
402.936995	398.350000
405.366882	410.200000
407.800254	400.650000
410.228856	412.950000
412.656816	393.700000
415.086198	388.450000
417.510814	398.050000
419.936852	396.200000
422.362249	388.950000
424.787006	395.850000
427.207004	381.250000
429.628424	384.450000
432.047148	377.100000
434.467292	378.050000
436.884741	366.650000
439.303610	357.100000
441.719785	342.550000
444.131214	355.150000
446.546119	329.700000
448.958335	331.200000
451.369916	307.100000
453.780863	299.700000
456.189123	299.200000
458.596752	271.550000
461.003748	281.050000
463.410113	279.950000
465.813795	269.100000
468.216847	276.250000
470.619269	264.000000
473.021061	272.550000
475.420175	291.600000
477.820709	276.450000
480.220614	285.050000
482.615797	286.450000
485.014446	299.150000
487.408374	318.550000
489.801677	334.300000
492.194355	362.250000
494.586407	385.300000
496.979877	425.250000
499.368635	496.300000
501.754727	585.400000
504.142239	755.250000
506.529128	1051.750000
508.913352	1474.600000
511.298996	2139.600000
513.681978	3072.650000
516.062299	4152.100000
518.444039	4968.050000
520.823120	5042.350000
523.203619	4574.950000
525.581462	3735.500000
527.956648	3014.750000
530.331218	2434.900000
532.707205	2034.000000
535.080540	1754.900000
537.455292	1546.200000
539.825358	1383.550000
542.194810	1241.850000
544.565679	1128.950000
546.931867	1047.350000
549.299474	996.100000
551.664435	919.450000
554.028784	855.750000
556.392519	796.100000
558.757672	788.300000
561.118153	748.000000
563.480052	722.100000
565.839310	673.900000
568.195930	663.650000
570.555996	647.550000
572.909370	608.050000
575.266189	595.850000
577.620373	601.100000
579.973948	562.600000
582.326916	558.400000
584.677251	541.200000
587.029004	540.100000
589.374080	508.500000
591.724619	504.200000
594.068486	500.150000
596.417814	480.900000
598.762493	476.300000
601.104548	467.500000
603.448020	471.100000
605.788869	457.350000
608.129115	460.700000
610.466741	494.400000
612.807802	493.150000
615.144226	538.150000
617.482066	566.400000
619.817289	560.000000
622.149895	524.050000
624.483919	511.700000
626.815328	499.200000
629.146139	470.900000
631.476352	468.750000
633.805968	449.600000
636.130960	464.300000
638.461394	480.650000
640.787207	465.700000
643.110412	458.550000
645.435034	439.650000
647.757050	430.850000
650.078472	431.100000
652.397291	427.300000
654.717527	429.100000
657.037169	420.200000
659.354210	417.700000
661.670659	413.650000
663.984510	396.600000
666.299777	401.900000
668.612447	393.900000
670.926532	400.200000
673.236017	395.200000
675.546918	407.350000
677.855226	373.700000
680.162946	394.900000
682.472080	387.650000
684.776622	388.250000
687.080578	372.000000
689.383948	365.950000
691.688732	365.300000
693.988929	360.900000
696.290542	363.400000
698.591569	340.300000
700.888015	335.250000
703.185876	335.800000
705.483153	322.450000
707.779847	324.150000
710.071965	330.600000
712.367494	312.600000
714.658449	310.000000
716.950819	315.550000
719.240614	313.950000
721.529828	308.450000
723.818463	303.300000
726.104525	311.000000
728.392002	302.900000
730.676907	306.050000
732.961235	296.200000
735.242994	292.500000
737.526167	293.200000
739.808763	299.250000
742.086803	285.550000
744.366257	298.050000
746.645136	289.650000
748.923440	289.250000
751.197193	291.450000
753.472361	287.950000
755.746955	295.050000
758.018990	292.650000
760.292438	296.700000
762.563328	287.700000
764.831662	302.050000
767.101409	286.900000
769.368601	296.150000
771.635224	294.700000
773.901276	292.650000
776.164777	293.500000
778.429691	282.550000
780.694035	289.800000
782.953850	299.600000
785.215077	295.250000
787.475737	305.750000
789.733851	293.000000
791.989420	288.650000
794.248379	297.900000
796.500840	306.600000
798.758668	290.950000
801.011977	290.300000
803.262746	300.050000
805.514927	280.700000
807.764569	291.950000
810.015623	288.050000
812.262167	303.200000
814.510122	288.200000
816.755543	289.550000
819.002375	288.350000
821.248646	293.300000
823.490412	298.550000
825.735562	278.900000
827.974239	292.650000
830.216298	274.900000
832.453859	261.500000
834.692832	270.450000
836.929278	262.250000
839.167135	264.350000
841.402467	255.700000
843.635276	276.300000
845.869495	261.000000
848.101193	259.750000
850.332336	263.300000
852.562924	254.400000
854.792958	262.450000
857.022438	263.200000
859.247436	248.400000
861.475808	270.750000
863.699702	260.350000
865.925007	260.750000
868.145836	259.450000
870.370037	258.850000
872.589765	250.600000
874.810903	249.000000
877.031491	253.050000
879.249570	260.400000
881.469058	253.000000
883.684080	251.850000
885.898554	242.850000
888.112481	247.200000
890.325861	242.050000
892.538693	244.600000
894.750978	251.550000
896.960762	247.400000
899.170000	233.300000
901.378693	241.450000
903.584886	234.900000
905.792489	237.450000
907.997595	234.200000
910.202157	254.350000
912.404224	236.850000
914.607700	248.100000
916.808682	257.100000
919.009122	253.150000
921.210971	272.550000
923.406429	270.100000
925.605245	294.100000
927.799624	322.050000
929.997360	340.500000
932.190660	399.350000
934.385369	430.150000
936.577591	490.450000
938.769276	521.700000
940.960423	575.100000
943.149087	585.150000
945.337215	607.200000
947.522861	592.200000
949.711861	595.150000
951.896437	592.200000
954.080478	603.200000
956.267869	602.550000
958.446956	612.900000
960.629394	616.000000
962.811298	620.150000
964.990727	611.950000
967.167684	643.550000
969.346049	632.250000
971.525821	636.850000
973.699244	644.350000
975.876013	629.050000
978.048375	644.200000
980.222145	609.600000
982.391511	605.800000
984.564221	584.600000
986.734466	556.550000
988.904181	520.500000
991.073368	466.300000
993.238158	423.850000
995.406290	398.800000
997.570026	367.250000
999.735170	361.000000
1001.897854	329.350000
1004.060013	306.100000
1006.219715	308.850000
1008.378892	310.300000
1010.539476	289.550000
1012.697605	286.750000
1014.855211	270.000000
1017.012293	263.900000
1019.168851	256.950000
1021.321030	262.600000
1023.474616	253.850000
1025.627680	236.650000
1027.778295	251.000000
1029.930316	229.850000
1032.077965	240.550000
1034.228945	225.350000
1036.375554	233.650000
1038.521644	222.100000
1040.667216	231.850000
1042.814193	213.200000
1044.954881	214.700000
1047.098898	205.350000
1049.240476	206.400000
1051.381536	201.550000
1053.524002	219.000000
1055.660187	220.650000
1057.799699	216.100000
1059.934855	213.200000
1062.073336	207.650000
1064.207464	196.950000
1066.341078	211.450000
1068.476096	206.300000
1070.606766	207.700000
1072.738840	205.800000
1074.868485	221.150000
1076.997617	199.400000
1079.126239	202.350000
1081.254349	207.550000
1083.380033	203.350000
1085.505207	207.150000
1087.631785	218.050000
1089.754025	211.050000
1091.877670	214.850000
1093.996980	207.800000
1096.121519	220.850000
1098.239814	202.750000
1100.359512	217.100000
1102.476793	209.950000
1104.593566	195.100000
1106.709833	201.400000
1108.823685	212.750000
1110.938940	201.150000
1113.049873	212.000000
1115.164118	210.650000
1117.274042	207.700000
1119.385370	190.150000
1121.496193	202.200000
1123.602700	184.600000
1125.712516	189.800000
1127.818019	201.100000
1129.924924	195.000000
1132.025614	170.000000
1134.131516	181.450000
1136.233109	180.400000
1138.336105	202.650000
1140.438600	175.450000
1142.534888	192.050000
1144.636383	188.400000
1146.733576	188.850000
1148.830271	176.500000
1150.926467	172.200000
1153.022165	166.000000
1155.117366	184.350000
1157.210170	176.850000
1159.304376	185.950000
1161.392391	190.200000
1163.485604	193.800000
1165.572630	171.150000
1167.662954	187.100000
1169.748990	174.600000
1171.838324	175.300000
1173.921477	184.800000
1176.006033	194.950000
1178.091990	190.900000
1180.173665	178.300000
1182.256741	190.900000
1184.337432	175.400000
1186.417632	192.000000
1188.497340	193.900000
1190.576557	192.350000
1192.653391	172.150000
1194.727845	183.150000
1196.805591	174.150000
1198.879066	179.650000
1200.953943	186.900000
1203.024552	186.450000
1205.096562	187.200000
1207.166196	178.550000
1209.237231	176.100000
1211.307779	177.100000
1213.374065	178.850000
1215.441752	172.800000
1217.507066	176.500000
1219.573781	184.100000
1221.636241	179.300000
1223.701985	168.600000
1225.763475	178.150000
1227.826366	179.950000
1229.886888	166.150000
1231.946928	160.200000
1234.006484	196.150000
1236.063676	186.350000
1238.120385	179.000000
1240.174732	189.850000
1242.232360	168.150000
1244.287624	178.600000
1246.338649	171.700000
1248.391073	163.400000
1250.443017	160.100000
1252.492603	166.450000
1254.541710	184.100000
1256.590338	162.400000
1258.638488	171.350000
1260.686160	176.200000
1262.729601	174.850000
1264.776318	166.050000
1266.820681	177.550000
1268.864568	172.400000
1270.906103	167.100000
1272.945289	152.050000
1274.987748	166.500000
1277.025984	175.450000
1279.065619	166.450000
1281.104778	164.200000
1283.139720	178.550000
1285.176060	171.700000
1287.210056	170.950000
1289.245449	157.800000
1291.276629	172.200000
1293.309208	157.150000
1295.341315	177.750000
1297.371081	162.350000
1299.402244	161.550000
1301.429200	166.400000
1303.457555	166.450000
1305.481704	162.700000
1307.509119	137.300000
1309.532331	154.600000
1311.556941	157.100000
1313.579216	152.850000
1315.602889	160.700000
1317.624229	169.500000
1319.645102	160.850000
1321.665507	162.450000
1323.681719	163.050000
1325.699328	156.600000
1327.714609	159.150000
1329.733149	158.350000
1331.747499	175.100000
1333.759524	165.350000
1335.774807	185.950000
1337.785904	181.300000
1339.798397	191.300000
1341.806708	213.750000
1343.818275	187.550000
1345.823803	194.150000
1347.832586	193.750000
1349.837191	189.250000
1351.845050	193.350000
1353.852447	184.950000
1355.853813	176.050000
1357.856575	162.450000
1359.858878	167.550000
1361.860721	164.000000
1363.862104	164.050000
1365.861173	161.150000
1367.859785	166.700000
1369.857937	153.650000
1371.855632	164.550000
1373.849164	147.200000
1375.844091	155.550000
1377.838562	156.100000
1379.832576	152.150000
1381.824283	140.200000
1383.815534	153.800000
1385.804480	151.400000
1387.794821	149.100000
1389.784708	141.450000
1391.772290	155.350000
1393.759419	151.500000
1395.744246	151.250000
1397.730468	142.100000
1399.714389	133.450000
1401.697858	151.900000
1403.680875	155.150000
1405.661594	141.750000
1407.643707	146.750000
1409.623523	134.700000
1411.602889	144.050000
1413.578116	142.100000
1415.556581	150.250000
1417.532753	142.500000
1419.508475	141.250000
1421.483749	134.250000
1423.456731	135.700000
1425.429265	146.250000
1427.401351	148.950000
1429.372990	142.550000
1431.340500	145.050000
1433.313084	130.550000
1435.277862	142.600000
1437.247713	143.700000
1439.213439	151.150000
1441.180559	150.750000
1443.145395	143.900000
1445.106111	137.750000
1447.071895	138.200000
1449.031724	145.300000
1450.992947	143.300000
1452.955561	134.950000
1454.914061	141.150000
1456.872119	143.950000
1458.829735	144.600000
1460.786908	137.150000
1462.741806	137.500000
1464.698097	131.600000
1466.652113	139.750000
1468.605688	134.100000
1470.556991	144.750000
1472.509686	124.950000
1474.460110	128.350000
1476.410095	132.800000
1478.359641	134.900000
1480.306918	132.950000
1482.251927	150.150000
1484.198329	141.650000
1486.144293	143.950000
1488.089820	130.500000
1490.033081	143.000000
1491.975906	129.200000
1493.916468	133.100000
1495.858422	130.650000
1497.798113	138.100000
1499.737369	129.950000
1501.676191	147.700000
1503.612753	119.600000
1505.550706	123.000000
1507.486400	135.700000
1509.421661	136.350000
1511.354665	133.200000
1513.287237	134.600000
1515.219377	136.000000
1517.151085	137.300000
1519.080540	130.450000
1521.011385	137.100000
1522.941798	121.600000
1524.868139	130.200000
1526.795870	133.550000
1528.721352	131.550000
1530.646404	127.950000
1532.571027	140.500000
1534.495220	130.350000
1536.417167	138.050000
1538.340504	123.850000
1540.261594	137.650000
1542.180440	130.750000
1544.100676	139.500000
1546.018668	133.700000
1547.936234	132.400000
1549.851559	136.800000
1551.768273	137.000000
1553.680932	161.500000
1555.596794	159.850000
1557.510418	148.750000
1559.421803	161.750000
1561.334578	163.250000
1563.243303	175.850000
1565.153417	171.900000
1567.063108	189.700000
1568.972376	193.750000
1570.879409	213.900000
1572.784210	233.150000
1574.690400	255.000000
1576.594359	301.100000
1578.497896	317.150000
1580.401013	364.550000
1582.301900	424.950000
1584.204176	456.900000
1586.104223	501.300000
1588.005659	526.250000
1589.903061	511.100000
1591.800044	461.500000
1593.696609	385.650000
1595.594561	341.100000
1597.486679	298.000000
1599.381991	243.550000
1601.276885	196.800000
1603.169557	200.800000
1605.061812	179.450000
1606.951848	176.250000
1608.841468	164.700000
1610.730673	149.200000
1612.619462	151.350000
1614.506035	160.250000
1616.393995	154.700000
1618.277938	131.000000
1620.163268	144.550000
1622.048185	135.150000
1623.930888	139.600000
1625.814978	135.950000
1627.695056	137.400000
1629.576522	132.300000
1631.455776	127.250000
1633.336418	129.000000
1635.211255	126.250000
1637.091073	107.200000
1638.966887	114.950000
1640.842290	116.400000
1642.719079	110.650000
1644.590071	116.500000
1646.464246	112.250000
1648.334421	113.350000
1650.207777	94.150000
1652.078930	119.850000
1653.947881	122.150000
1655.818218	95.850000
1657.684562	110.550000
1659.552291	100.050000
1661.417821	106.350000
1663.284737	103.450000
1665.147663	109.850000
1667.011976	103.200000
1668.874092	104.100000
1670.735803	98.900000
1672.598899	100.850000
1674.459801	105.900000
1676.318510	114.200000
1678.176815	88.950000
1680.036504	104.900000
1681.890427	100.050000
1683.747523	98.000000
1685.604215	102.750000
1687.456932	96.400000
1689.312820	97.500000
1691.164734	100.200000
1693.016247	95.500000
1694.867359	96.050000
1696.718070	97.900000
1698.568381	98.150000
1700.416508	105.000000
1702.266019	100.750000
1704.109780	90.400000
1705.958492	96.150000
1707.801457	103.350000
1709.647588	96.900000
1711.489758	92.350000
1713.335093	105.500000
1715.174687	97.400000
1717.015665	111.450000
1718.858026	105.200000
1720.696430	106.650000
1722.536218	89.850000
1724.373831	94.800000
1726.211049	94.150000
1728.046093	93.300000
1729.882520	104.200000
1731.716774	106.800000
1733.550635	84.000000
1735.384101	118.000000
1737.213621	96.200000
1739.046301	94.500000
1740.875035	98.750000
1742.706928	102.200000
1744.534878	84.550000
1746.362436	107.100000
1748.189603	92.500000
1750.016378	93.050000
1751.842761	107.900000
1753.665208	96.900000
1755.490810	90.000000
1757.312477	94.850000
1759.135525	79.700000
1760.956413	93.100000
1762.776912	74.100000
1764.598791	98.050000
1766.414971	89.200000
1768.234303	100.100000
1770.049708	96.100000
1771.868264	83.700000
1773.682894	88.200000
1775.497137	99.350000
1777.310994	87.500000
1779.124464	80.650000
1780.935780	98.050000
1782.748478	99.450000
1784.560790	96.050000
1786.369183	85.300000
1788.178958	90.500000
1789.984818	105.650000
1791.793823	99.000000
1793.598915	91.750000
1795.405388	93.650000
1797.211476	97.700000
1799.013655	102.900000
1800.818978	92.150000
1802.620391	93.050000
1804.423186	92.500000
1806.222074	94.400000
1808.022343	86.650000
1809.822230	85.050000
1811.619975	101.550000
1813.417340	95.700000
1815.214324	97.700000
1817.010929	86.700000
1818.805393	102.900000
1820.601238	93.700000
1822.391427	87.700000
1824.186513	83.900000
1825.975946	88.200000
1827.768517	87.250000
1829.558952	80.850000
1831.347252	96.100000
1833.138688	88.600000
1834.924479	96.800000
1836.711649	76.350000
1838.496687	103.950000
1840.284858	87.150000
1842.069145	82.950000
1843.851301	89.750000
1845.634837	95.350000
1847.416244	90.150000
1849.199029	79.350000
1850.977935	88.200000
1852.758219	82.750000
1854.536378	86.800000
1856.315914	88.850000
1858.093326	94.450000
1859.868615	74.700000
1861.645281	89.450000
1863.419825	99.100000
1865.195746	93.250000
1866.966048	83.350000
1868.739477	75.700000
1870.510786	86.200000
1872.281724	73.200000
1874.054040	77.450000
1875.820742	91.100000
1877.590569	83.150000
1879.356533	86.300000
1881.125621	76.600000
1882.890847	95.250000
1884.655705	87.000000
1886.421939	89.450000
1888.184316	86.000000
1889.946324	75.000000
1891.707966	84.700000
1893.469240	82.700000
1895.230148	80.650000
1896.990688	89.050000
1898.749120	83.100000
1900.507185	76.950000
1902.263143	71.350000
1904.020477	88.900000
1905.777446	79.100000
1907.532308	80.550000
1909.285066	89.450000
1911.037459	95.400000
1912.791229	77.650000
1914.542895	87.850000
1916.292458	70.950000
1918.043398	74.200000
1919.793974	75.800000
1921.540712	89.350000
1923.288825	74.600000
1925.034840	91.800000
1926.782229	75.750000
1928.527520	93.450000
1930.270715	84.750000
1932.015284	83.050000
1933.757757	79.350000
1935.499871	88.500000
1937.241624	75.000000
1938.983017	74.550000
1940.722317	71.000000
1942.461258	92.150000
1944.199840	80.550000
1945.936331	81.650000
1947.672463	82.250000
1949.409971	82.850000
1951.143656	79.100000
1952.878716	80.150000
1954.611687	82.850000
1956.344302	89.200000
1958.076560	79.650000
1959.808462	82.950000
1961.538279	78.800000
1963.266010	87.250000
1964.995116	87.700000
1966.723866	72.300000
1968.450533	90.850000
1970.176846	70.150000
1971.904533	76.300000
1973.626683	73.500000
1975.351934	70.350000
1977.073378	80.550000
1978.797922	80.500000
1980.520387	82.800000
1982.239048	74.100000
1983.960809	83.000000
1985.678767	76.400000
1987.398098	71.850000
1989.113630	87.950000
1990.833982	80.550000
1992.550536	79.800000
1994.263293	77.150000
1995.979146	89.000000
1997.692927	81.650000
1999.406358	78.500000
2001.117718	87.950000
2002.830450	70.550000
2004.539392	80.350000
2006.251426	64.100000
2007.957951	85.700000
2009.667569	75.900000
2011.375119	74.300000
2013.082322	83.800000
2014.787459	78.900000
2016.492250	78.400000
2018.198412	85.100000
2019.900791	75.650000
2021.604543	75.750000
2023.306232	74.900000
2025.007575	91.200000
2026.708574	87.150000
2028.407511	88.100000
2030.107820	71.250000
2031.804353	83.850000
2033.502258	75.350000
2035.198105	75.500000
2036.897037	69.850000
2038.590483	70.600000
2040.285300	66.700000
2041.979774	75.300000
2043.670481	76.850000
2045.364270	81.200000
2047.054294	74.450000
2048.745688	73.450000
2050.435028	79.700000
2052.125740	70.850000
2053.812688	80.300000
2055.499296	65.050000
2057.187275	72.350000
2058.871494	74.800000
2060.557083	64.200000
2062.242333	75.600000
2063.925535	71.500000
2065.610107	81.650000
2067.289215	55.650000
2068.973110	78.450000
2070.651543	63.150000
2072.333054	79.300000
2074.010813	75.700000
2075.688236	77.500000
2077.367028	65.500000
2079.043777	67.400000
2080.718485	76.650000
2082.394563	66.850000
2084.068599	59.150000
2085.742301	80.250000
2087.415667	68.100000
2089.086994	78.050000
2090.757987	67.350000
2092.428646	78.200000
2094.098971	73.300000
2095.768962	73.750000
2097.436917	73.750000
2099.104538	72.800000
2100.770126	71.600000
2102.437082	77.100000
2104.102005	66.250000
2105.766596	62.700000
2107.429155	70.100000
2109.093082	58.300000
2110.754978	75.350000
2112.416544	78.100000
2114.077778	66.000000
2115.736983	75.850000
2117.395859	70.150000
2119.054405	70.600000
2120.712620	59.050000
2122.367113	73.050000
2124.024670	77.850000
2125.681897	68.850000
2127.335404	76.900000
2128.990278	75.550000
2130.641433	57.550000
2132.295651	72.450000
2133.946151	70.150000
2135.598019	73.450000
2137.244478	65.850000
2138.895691	76.300000
2140.543192	65.450000
2142.192059	71.250000
2143.838907	64.100000
2145.485430	73.000000
2147.131627	64.950000
2148.774116	83.550000
2150.419662	59.400000
2152.061502	67.550000
2153.706399	70.250000
2155.347591	66.850000
2156.988459	57.400000
2158.629004	74.750000
2160.267536	74.750000
2161.907434	64.350000
2163.543632	75.850000
2165.181196	62.350000
2166.818438	74.800000
2168.453670	72.000000
2170.088580	66.400000
2171.723169	61.850000
2173.357437	71.100000
2174.988011	71.100000
2176.621637	62.200000
2178.251571	59.350000
2179.882870	74.100000
2181.512164	69.300000
2183.141139	68.200000
2184.769794	60.400000
2186.398130	66.000000
2188.024463	71.850000
2189.650478	73.500000
2191.274492	64.600000
2192.899871	66.350000
2194.523249	67.950000
2196.147992	68.300000
2197.769054	72.600000
2199.389799	82.500000
2201.011908	65.450000
2202.632020	60.950000
2204.250136	70.500000
2205.867936	56.150000
2207.485420	65.200000
2209.102590	70.900000
2210.719443	76.150000
2212.335982	71.450000
2213.950528	82.900000
2215.563081	73.600000
2217.176998	68.250000
2218.788924	72.350000
2220.402213	68.550000
2222.013512	65.800000
2223.622821	76.500000
2225.233493	67.400000
2226.842177	70.050000
2228.450549	51.800000
2230.056934	70.000000
2231.664681	68.100000
2233.270443	66.200000
2234.875893	68.950000
2236.479358	63.800000
2238.084186	73.950000
2239.687030	77.150000
2241.287891	63.600000
2242.890115	73.700000
2244.490357	59.100000
2246.091961	66.250000
2247.689912	62.850000
2249.289226	75.450000
2250.886560	68.350000
2252.483586	74.750000
2254.081973	64.050000
2255.676713	63.600000
2257.269475	71.250000
2258.863600	60.500000
2260.459086	63.950000
2262.050927	72.900000
2263.642462	56.600000
2265.235359	60.550000
2266.822946	56.150000
2268.415229	48.950000
2270.002205	56.450000
2271.592210	63.450000
2273.176910	53.450000
2274.766304	68.450000
2276.350395	64.000000
2277.935848	64.700000
2279.519332	62.050000
2281.105841	68.400000
2282.688717	69.050000
2284.271290	71.600000
2285.853559	58.600000
2287.432198	69.750000
2289.013862	58.300000
2290.591897	74.200000
2292.172955	49.000000
2293.750386	60.875000
2295.325854	72.750000
2296.904344	78.000000
2298.479210	69.700000
2300.053775	73.050000
2301.628039	56.050000
2303.202003	68.800000
2304.775667	46.500000
2306.349031	66.450000
2307.918776	62.800000
2309.488222	66.950000
2311.060686	71.250000
2312.627876	65.300000
2314.198083	62.000000
2315.764677	70.350000
2317.332629	74.350000
2318.898627	63.700000
2320.464327	70.600000
2322.029729	70.650000
2323.593178	71.600000
2325.157986	67.250000
2326.719186	65.750000
2328.283399	88.350000
2329.842352	98.950000
2331.404318	75.350000
2332.964334	77.600000
2334.524054	58.750000
2336.081826	73.750000
2337.639302	74.650000
2339.196484	65.350000
2340.751718	66.550000
2342.306659	71.300000
2343.861305	63.800000
2345.415658	68.200000
2346.969717	71.050000
2348.523483	60.050000
2350.075304	72.550000
2351.625182	74.150000
2353.178069	76.350000
2354.725712	53.650000
2356.276364	76.650000
2357.823424	52.100000
2359.371842	65.800000
2360.919969	65.000000
2362.464507	76.200000
2364.010403	55.500000
2365.554361	77.850000
2367.099675	72.450000
2368.641405	65.250000
2370.184493	74.400000
2371.725644	59.500000
2373.266506	61.000000
2374.807079	63.850000
2376.347363	56.050000
2377.887358	70.100000
2379.423774	61.050000
2380.963192	70.300000
2382.499033	58.050000
2384.036231	49.800000
2385.569853	66.200000
2387.106475	57.850000
2388.641167	60.900000
2390.173929	58.650000
2391.706404	60.650000
2393.236951	68.000000
2394.770496	66.050000
2396.298830	64.650000
2397.828520	56.200000
2399.357925	70.200000
2400.887045	59.050000
2402.415879	58.200000
2403.939509	83.650000
2405.467774	60.000000
2406.990837	77.350000
2408.518533	63.700000
2410.039390	60.450000
2411.564879	70.050000
2413.086809	62.700000
2414.610093	70.500000
2416.131457	76.550000
2417.650901	73.600000
2419.171700	61.700000
2420.690580	67.450000
2422.209179	71.600000
2423.725859	79.500000
2425.243895	66.900000
2426.761649	72.250000
2428.275851	85.000000
2429.789774	65.750000
2431.303416	59.700000
2432.818412	71.900000
2434.329861	66.500000
2435.842663	87.950000
2437.353553	78.450000
2438.864164	64.300000
2440.372863	70.050000
2441.884548	72.900000
2443.392690	79.650000
2444.900554	79.350000
2446.408139	74.500000
2447.912185	81.300000
2449.419215	77.800000
2450.924337	88.550000
2452.429182	90.200000
2453.932120	83.150000
2455.434782	89.000000
2456.937167	78.650000
2458.437647	86.450000
2459.939480	86.000000
2461.439408	87.400000
2462.939061	97.400000
2464.438439	83.650000
2465.935914	86.150000
2467.431487	86.250000
2468.930040	91.400000
2470.425065	80.250000
2471.921442	95.250000
2473.414293	83.400000
2474.908497	76.300000
2476.402427	78.750000
2477.892833	94.250000
2479.386217	85.400000
2480.877703	77.700000
2482.367292	64.650000
2483.856609	94.500000
2485.344030	73.400000
2486.834427	78.300000
2488.321306	71.750000
2489.809536	63.200000
2491.294249	74.300000
2492.778692	74.650000
2494.264487	72.950000
2495.748390	79.300000
2497.233643	65.450000
2498.713763	73.300000
2500.196856	69.150000
2501.678058	73.800000
2503.158991	73.900000
2504.638035	64.950000
2506.116810	70.900000
2507.595317	70.000000
2509.073555	52.400000
2510.551526	76.500000
2512.025991	63.900000
2513.503426	71.400000
2514.977356	68.500000
2516.452638	80.150000
2517.927652	67.100000
2519.399165	75.600000
2520.872029	51.650000
2522.343010	58.150000
2523.815341	49.900000
2525.282558	66.450000
2526.752742	65.650000
2528.221045	58.750000
2529.689083	58.700000
2531.156855	61.300000
2532.624363	62.950000
2534.091607	69.400000
2535.555358	58.500000
2537.020459	72.950000
2538.483683	71.300000
2539.948256	68.250000
2541.409341	62.650000
2542.871775	61.850000
2544.333946	66.300000
2545.792630	62.250000
2547.255887	63.900000
2548.714047	72.300000
2550.173557	62.400000
2551.627972	65.250000
2553.086958	63.400000
2554.544072	72.200000
2555.999314	65.600000
2557.454296	67.550000
2558.907408	71.400000
2560.361869	72.400000
2561.814461	59.750000
2563.266793	61.100000
2564.717257	62.800000
2566.170678	75.650000
2567.619016	64.900000
2569.070309	61.650000
2570.519737	61.600000
2571.965692	82.400000
2573.414602	68.700000
2574.860042	56.000000
2576.306829	61.850000
2577.751753	62.350000
2579.196420	70.550000
2580.642434	72.750000
2582.084982	66.950000
2583.528876	72.300000
2584.969306	68.700000
2586.411084	71.650000
2587.851002	69.250000
2589.292267	79.200000
2590.730070	65.800000
2592.170823	54.550000
2593.606514	73.700000
2595.045153	82.650000
2596.481936	69.500000
2597.916863	55.250000
2599.354737	78.700000
2600.787554	76.400000
2602.221718	62.450000
2603.654028	68.750000
2605.087684	65.550000
2606.519487	76.650000
2607.951036	68.650000
2609.382332	69.300000
2610.811777	82.250000
2612.240969	70.950000
2613.668310	66.000000
2615.096998	81.200000
2616.525433	74.950000
2617.950422	72.450000
2619.376756	64.250000
2620.801243	80.650000
2622.227075	68.150000
2623.649463	73.550000
2625.073196	81.500000
2626.495084	80.500000
2627.916721	93.450000
2629.336514	87.900000
2630.757652	83.950000
2632.178540	81.450000
2633.595989	82.800000
2635.016378	93.500000
2636.433330	83.950000
2637.850034	96.350000
2639.266489	96.500000
2640.682696	111.900000
2642.098655	107.000000
2643.512773	115.750000
2644.926643	126.900000
2646.338674	117.500000
2647.752050	133.300000
2649.161996	137.200000
2650.574878	141.350000
2651.984331	146.550000
2653.393538	155.700000
2654.800909	164.050000
2656.211214	171.050000
2657.619683	192.800000
2659.026318	202.800000
2660.432707	205.950000
2661.837262	236.650000
2663.243161	252.850000
2664.647227	261.800000
2666.051048	283.900000
2667.454625	308.000000
2668.856371	337.400000
2670.259460	344.400000
2671.659131	393.400000
2673.060146	409.550000
2674.457745	423.100000
2675.858273	466.500000
2677.255387	485.050000
2678.653844	476.150000
2680.050474	506.350000
2681.446861	515.650000
2682.843006	543.300000
2684.237325	531.100000
2685.632987	519.150000
2687.025240	520.100000
2688.418835	509.150000
2689.810606	497.550000
2691.203720	476.950000
2692.595010	467.050000
2693.984477	438.400000
2695.373704	424.050000
2696.762692	394.200000
2698.153021	364.050000
2699.538367	345.450000
2700.926636	321.400000
2702.313085	292.150000
2703.699295	265.450000
2705.085266	256.150000
2706.467839	234.600000
2707.851754	225.050000
2709.235430	207.450000
2710.618869	212.400000
2711.998912	187.100000
2713.380297	162.300000
2714.759867	158.450000
2716.140777	151.150000
2717.519873	148.200000
2718.897155	132.100000
2720.275778	123.000000
2721.652587	137.500000
2723.029161	103.600000
2724.405499	113.300000
2725.780025	105.500000
2727.155892	107.200000
2728.528373	93.650000
2729.903769	106.550000
2731.274205	89.300000
2732.645981	94.750000
2734.017524	85.200000
2735.387258	89.400000
2736.758332	82.750000
2738.127599	95.950000
2739.496632	70.700000
2740.863859	81.450000
2742.230852	82.550000
2743.597613	84.500000
2744.964141	72.050000
2746.328865	73.600000
2747.693356	56.400000
2749.057616	68.000000
2750.421643	74.850000
2751.785438	62.850000
2753.145861	77.900000
2754.509193	69.450000
2755.867583	68.400000
2757.228883	68.950000
2758.586813	67.450000
2759.947651	63.500000
2761.306689	63.900000
2762.662360	69.050000
2764.020938	65.150000
2765.376149	62.950000
2766.731131	67.500000
2768.084316	61.100000
2769.440408	65.900000
2770.793136	66.250000
2772.145636	47.600000
2773.497907	51.950000
2774.851516	55.300000
2776.201765	59.900000
2777.550219	56.500000
2778.901578	59.000000
2780.249579	46.450000
2781.598917	59.000000
2782.946463	49.400000
2784.293783	65.150000
2785.640875	58.250000
2786.986177	57.900000
2788.331253	55.400000
2789.676103	63.950000
2791.020727	53.250000
2792.361999	65.550000
2793.704608	50.950000
2795.046993	58.600000
2796.389152	47.350000
2797.727962	59.400000
2799.069672	55.650000
2800.408033	63.600000
2801.747732	51.200000
2803.085646	50.800000
2804.421774	53.850000
2805.757680	56.650000
2807.094923	55.250000
2808.430382	53.350000
2809.765617	52.250000
2811.099071	59.550000
2812.433861	51.500000
2813.765311	56.450000
2815.099656	45.250000
2816.429102	52.250000
2817.759886	58.750000
2819.090449	51.050000
2820.419232	52.950000
2821.749351	48.600000
2823.077692	58.600000
2824.405812	66.400000
2825.732154	50.500000
2827.059832	54.400000
2828.384178	55.550000
2829.709860	69.700000
2831.033766	50.900000
2832.357452	51.600000
2833.682474	54.750000
2835.004167	49.000000
2836.325641	61.550000
2837.646895	54.750000
2838.967932	51.800000
2840.287195	60.350000
2841.607794	51.450000
2842.926621	50.850000
2844.245231	53.600000
2845.562069	61.300000
2846.878690	42.100000
2848.195094	61.350000
2849.509728	42.800000
2850.825697	49.300000
2852.138347	51.350000
2853.452331	57.900000
2854.766099	34.600000
2856.079650	50.250000
2857.391435	52.050000
2858.701453	49.750000
2860.012806	60.400000
2861.320844	54.400000
2862.630216	57.150000
2863.939373	51.650000
2865.248316	47.450000
2866.555494	46.150000
2867.860910	52.900000
2869.167659	36.850000
2870.472647	48.100000
2871.777420	53.500000
2873.080433	45.950000
2874.386326	46.600000
2875.687365	45.950000
2876.989737	61.100000
2878.290351	50.500000
2879.592297	61.550000
2880.894031	42.000000
2882.192461	43.250000
2883.492224	44.300000
2884.790230	41.750000
2886.088024	48.450000
2887.384062	47.900000
2888.681432	57.950000
2889.977048	58.500000
2891.272452	42.800000
2892.567645	43.400000
2893.859541	48.950000
2895.154312	59.950000
2896.445788	41.750000
2897.738596	49.150000
2899.031194	48.450000
2900.320497	47.650000
2901.611134	53.700000
2902.900019	51.850000
2904.190236	53.450000
2905.477162	56.800000
2906.765420	40.700000
2908.051929	51.750000
2909.338229	42.600000
2910.624321	47.200000
2911.908665	42.950000
2913.195881	48.600000
2914.478270	42.500000
2915.761991	48.250000
2917.043965	43.400000
2918.325733	43.600000
2919.605755	57.000000
2920.888648	49.400000
2922.169794	43.750000
2923.447659	46.900000
2924.728393	40.250000
2926.005847	48.950000
2927.283094	54.100000
2928.558599	51.050000
2929.836972	39.550000
2931.110531	43.350000
2932.386957	35.200000
2933.661642	54.350000
2934.934586	44.350000
2936.208862	38.350000
2937.481398	33.800000
2938.753729	44.650000
2940.022788	52.100000
2941.294712	54.050000
2942.564898	39.800000
2943.834880	38.150000
2945.104659	48.100000
2946.372702	48.650000
2947.639008	43.850000
2948.905112	57.550000
2950.172547	45.150000
2951.438246	56.250000
2952.703744	50.450000
2953.969039	47.450000
2955.231069	48.200000
2956.494429	59.550000
2957.757588	50.600000
2959.019015	48.700000
2960.281771	31.650000
2961.542795	48.350000
2962.802089	41.800000
2964.061182	47.200000
2965.320076	49.950000
2966.578769	53.150000
2967.837261	40.650000
2969.094025	53.200000
2970.350590	40.950000
2971.605426	35.300000
2972.861592	48.050000
2974.114503	38.100000
2975.368742	40.200000
2976.622783	48.700000
2977.875098	64.300000
2979.127215	46.250000
2980.377607	41.200000
2981.630854	39.850000
2982.879324	38.050000
2984.130649	31.850000
2985.378724	50.250000
2986.626602	55.250000
2987.874284	30.300000
2989.121768	39.000000
2990.367531	36.300000
2991.613098	37.600000
2992.859992	34.800000
2994.103642	51.000000
2995.348619	52.950000
2996.590354	47.400000
2997.834940	43.900000
2999.077807	45.500000
3000.317433	37.350000
3001.559909	47.800000
3002.799145	38.600000
3004.039709	48.300000
3005.278556	43.900000
3006.517209	47.400000
3007.754146	38.600000
3008.992411	55.100000
3010.228960	36.300000
3011.465316	41.000000
3012.701478	39.600000
3013.935926	32.550000
3015.170181	48.450000
3016.404244	42.400000
3017.636593	45.950000
3018.867231	41.750000
3020.100715	30.600000
3021.332488	43.750000
3022.562549	28.050000
3023.792419	55.550000
3025.020579	48.500000
3026.250066	46.500000
3027.477843	38.750000
3028.705429	37.250000
3029.934341	45.800000
3031.158511	39.700000
3032.385524	30.200000
3033.609314	38.250000
3034.834429	37.300000
3036.057839	48.750000
3037.281058	38.400000
3038.502572	38.050000
3039.726927	43.300000
3040.946547	40.700000
3042.167493	40.350000
3043.388249	42.750000
3044.607303	50.400000
3045.827681	40.350000
3047.044843	39.800000
3048.263330	44.950000
3049.480116	50.300000
3050.696713	42.900000
3051.913123	42.350000
3053.126319	51.300000
3054.342353	46.100000
3055.555175	41.800000
3056.770834	22.200000
3057.981771	41.600000
3059.194032	33.950000
3060.406106	50.200000
3061.617994	33.500000
3062.828185	38.800000
3064.038189	31.650000
3065.248007	45.200000
3066.456129	32.250000
3067.664066	28.050000
3068.870307	44.500000
3070.077873	36.700000
3071.283744	44.525000
3072.489430	52.350000
3073.694932	34.550000
3074.898740	46.300000
3076.103872	28.550000
3077.307311	36.650000
3078.509059	42.900000
3079.710622	47.650000
3080.912002	41.100000
3082.113198	35.000000
3083.312704	38.400000
3084.512027	42.350000
3085.712673	44.550000
3086.911629	38.050000
3088.107391	28.700000
3089.305981	38.300000
3090.501378	39.250000
3091.698099	39.650000
3092.891627	39.050000
3094.087983	40.950000
3095.282652	37.900000
3096.474131	37.200000
3097.669942	40.250000
3098.861058	44.700000
3100.053498	39.650000
3101.242749	38.050000
3102.434827	43.100000
3103.625221	39.450000
3104.812429	41.700000
3106.000959	35.550000
3107.190812	27.950000
3108.377480	48.250000
3109.563969	45.450000
3110.750279	26.200000
3111.937910	46.750000
3113.122359	34.800000
3114.305129	25.850000
3115.490721	39.200000
3116.674634	24.800000
3117.856867	35.400000
3119.038923	27.350000
3120.220800	37.450000
3121.402499	31.450000
3122.582521	46.200000
3123.760866	38.100000
3124.942031	38.050000
3126.120021	31.250000
3127.297834	39.050000
3128.475470	31.000000
3129.651431	41.250000
3130.827216	37.950000
3132.004321	33.400000
3133.179753	36.200000
3134.353511	35.200000
3135.525596	28.600000
3136.699003	31.000000
3137.872233	35.100000
3139.043792	39.500000
3140.216671	31.350000
3141.386383	29.400000
3142.557416	34.900000
3143.726778	40.800000
3144.894471	34.950000
3146.064979	30.400000
3147.230829	40.050000
3148.400987	43.400000
3149.566488	41.150000
3150.731816	36.950000
3151.896970	38.150000
3153.061951	38.900000
3154.228251	31.550000
3155.389898	38.450000
3156.552866	47.100000
3157.715661	40.650000
3158.878283	30.950000
3160.039239	36.600000
3161.200024	42.700000
3162.360636	34.250000
3163.519584	31.900000
3164.678361	44.350000
3165.836965	30.050000
3166.995398	38.150000
3168.153660	25.200000
3169.310259	30.600000
3170.465197	18.450000
3171.621454	28.050000
3172.776050	30.050000
3173.930476	30.300000
3175.083242	29.050000
3176.235837	40.450000
3177.388263	32.950000
3178.540518	36.700000
3179.692604	41.300000
3180.841543	40.450000
3181.993289	41.700000
3183.143378	34.450000
3184.291810	21.800000
3185.440072	30.850000
3186.588166	30.750000
3187.736091	44.850000
3188.882360	33.300000
3190.028461	36.400000
3191.172908	29.900000
3192.317187	37.100000
3193.461297	35.650000
3194.606726	35.800000
3195.749016	38.300000
3196.891139	24.100000
3198.033094	50.550000
3199.174882	37.200000
3200.316503	32.500000
3201.454989	40.150000
3202.594792	23.250000
3203.735912	36.500000
3204.873899	27.050000
3206.010235	38.050000
3207.146407	36.500000
3208.283895	35.500000
3209.419735	41.550000
3210.556892	20.300000
3211.689436	27.300000
3212.826261	34.700000
3213.958476	31.150000
3215.092007	39.100000
3216.225373	41.850000
3217.355613	34.050000
3218.488650	32.650000
3219.618561	40.350000
3220.749788	34.900000
3221.877891	40.600000
3223.008790	37.950000
3224.138045	39.850000
3225.265657	38.800000
3226.390146	34.150000
3227.518911	27.750000
3228.644554	46.750000
3229.770034	27.300000
3230.893873	36.950000
3232.020507	47.800000
3233.142543	43.800000
3234.265895	37.500000
3235.389085	45.250000
3236.512112	30.500000
3237.633501	43.300000
3238.754727	41.550000
3239.874315	44.050000
3240.993742	43.950000
3242.111532	52.150000
3243.232113	48.950000
3244.349581	56.050000
3245.466888	49.250000
3246.584035	55.500000
3247.699545	54.800000
3248.816371	47.000000
3249.930087	53.700000
3251.046592	56.850000
3252.161462	42.900000
3253.273224	46.600000
3254.384827	40.450000
3255.497745	35.450000
3256.610503	52.850000
3257.720155	52.850000
3258.831122	36.350000
3259.941930	43.400000
3261.051106	36.500000
3262.158651	27.050000
3263.267511	39.600000
3264.376212	33.400000
3265.481811	40.650000
3266.588725	48.850000
3267.694009	22.600000
3268.800607	40.450000
3269.904105	27.300000
3271.008917	37.000000
3272.113572	33.250000
3273.215129	29.100000
3274.316529	34.800000
3275.419243	48.900000
3276.521801	38.100000
3277.621262	24.950000
3278.723507	25.100000
3279.822656	28.300000
3280.920180	28.950000
3282.017550	35.150000
3283.117701	31.100000
3284.214760	29.000000
3285.311663	23.350000
3286.408411	35.550000
3287.500600	30.900000
3288.597039	25.050000
3289.691855	20.100000
3290.786517	29.300000
3291.879556	24.400000
3292.972442	35.250000
3294.063707	43.450000
3295.156285	34.350000
3296.247243	20.300000
3297.336581	20.650000
3298.425766	35.100000
3299.516263	31.700000
3300.603677	29.700000
3301.690937	35.700000
3302.779510	30.900000
3303.867930	23.350000
3304.951804	24.700000
3306.039919	27.500000
3307.124952	25.000000
3308.208370	30.400000
3309.293100	36.000000
3310.376214	34.400000
3311.460641	22.300000
3312.541989	43.350000
3313.624649	24.950000
3314.705694	15.850000
3315.786589	23.450000
3316.865871	37.300000
3317.945002	26.150000
3319.025445	37.100000
3320.102813	28.850000
3321.181493	31.850000
3322.258561	30.250000
3323.335479	20.950000
3324.410787	21.750000
3325.485945	36.550000
3326.562414	28.200000
3327.635813	37.100000
3328.709062	23.500000
3329.783623	28.650000
3330.856575	24.850000
3331.927918	29.650000
3333.000572	13.700000
3334.070159	29.950000
3335.141058	34.900000
3336.210349	28.000000
3337.280950	25.850000
3338.349946	34.200000
3339.417335	21.500000
3340.483119	25.700000
3341.553129	28.900000
3342.620076	34.400000
3343.683961	16.250000
3344.750613	36.650000
3345.815662	20.350000
3346.879107	23.450000
3347.942406	27.000000
3349.005558	34.550000
3350.068564	29.450000
3351.131424	27.700000
3352.192681	25.450000
3353.250882	33.500000
3354.313304	14.750000
3355.372670	43.900000
3356.431890	26.550000
3357.492419	34.150000
3358.548440	34.050000
3359.607224	26.750000
3360.661501	27.200000
3361.718542	27.250000
3362.773984	28.300000
3363.830736	28.700000
3364.885889	32.900000
3365.939445	31.150000
3366.991404	25.450000
3368.046126	27.400000
3369.097798	36.350000
3370.149327	32.250000
3371.202164	32.250000
3372.251954	35.150000
3373.303053	24.800000
3374.351105	38.750000
3375.401918	34.700000
3376.449685	36.200000
3377.497310	25.150000
3378.544793	30.700000
3379.590683	39.850000
3380.637881	33.450000
3381.682037	24.850000
3382.728951	26.150000
3383.774273	26.250000
3384.816554	29.550000
3385.858694	32.250000
3386.902143	27.350000
3387.945450	18.050000
3388.987167	27.400000
3390.028744	33.950000
3391.070179	34.350000
3392.110026	23.900000
3393.148284	14.950000
3394.187850	30.250000
3395.227276	22.450000
3396.265114	25.350000
3397.301365	26.150000
3398.337477	30.750000
3399.374895	28.850000
3400.409281	16.700000
3401.444975	24.650000
3402.480529	21.850000
3403.513052	28.550000
3404.548327	29.650000
3405.580573	33.750000
3406.612680	25.800000
3407.643203	21.250000
3408.675033	13.600000
3409.706725	23.650000
3410.735389	26.800000
3411.763916	29.100000
3412.793749	18.200000
3413.823445	36.950000
3414.850115	25.500000
3415.878091	34.550000
3416.903044	24.000000
3417.930746	25.500000
3418.955424	35.400000
3419.981409	32.050000
3421.005815	15.200000
3422.030084	28.150000
3423.052774	27.250000
3424.075328	26.350000
3425.099188	25.800000
3426.120028	26.400000
3427.140732	16.500000
3428.162742	33.250000
3429.181734	25.950000
3430.200591	24.350000
3431.220754	19.550000
3432.237900	28.000000
