-117.018713	-1.000000
-114.349113	-14.600000
-111.682448	-8.100000
-109.016535	-2.900000
-106.353555	-11.700000
-103.689144	3.500000
-101.027664	10.600000
-98.364755	14.500000
-95.706952	14.000000
-93.047720	-7.800000
-90.389236	-0.800000
-87.733677	14.600000
-85.076688	-1.800000
-82.424798	-10.000000
-79.771478	10.800000
-77.121077	22.400000
-74.469248	-3.100000
-71.822509	31.800000
-69.174340	4.700000
-66.526914	7.500000
-63.882403	-12.400000
-61.236462	6.600000
-58.595603	-9.900000
-55.953315	27.400000
-53.313936	13.400000
-50.673128	12.200000
-48.033059	15.900000
-45.398064	12.300000
-42.761639	5.300000
-40.128117	8.900000
-37.493167	10.300000
-34.863283	20.300000
-32.229805	17.900000
-29.601390	21.700000
-26.973709	25.800000
-24.344599	42.700000
-21.720547	10.200000
-19.092904	48.300000
-16.470316	57.300000
-13.848458	85.500000
-11.227331	145.300000
-8.606935	387.700000
-5.989426	1257.000000
-3.370489	3831.800000
-0.754438	10972.600000
1.860886	18539.700000
4.475481	9411.600000
7.087195	959.400000
9.700337	140.700000
12.308445	101.000000
14.920134	41.500000
17.526793	44.900000
20.134881	28.600000
22.742243	59.100000
25.344581	35.200000
27.950498	27.300000
30.551392	8.900000
33.153714	7.700000
35.751018	21.300000
38.351899	28.800000
40.947764	6.000000
43.545057	10.200000
46.141632	0.200000
48.733197	0.300000
51.326190	11.300000
53.916322	-3.800000
56.507881	-5.900000
59.096582	19.400000
61.686709	19.600000
64.271837	18.300000
66.858393	29.400000
69.444235	19.100000
72.027222	8.100000
74.611637	21.900000
77.188923	9.000000
79.769775	23.100000
82.347778	18.700000
84.925070	-0.800000
87.503790	2.800000
90.077527	15.000000
92.652691	-14.200000
95.225012	0.200000
97.796626	20.700000
100.365399	3.000000
102.935599	8.800000
105.502960	28.200000
108.071748	6.100000
110.637699	12.900000
113.200815	-0.600000
115.767487	19.600000
118.324937	16.000000
120.888073	42.900000
123.446250	46.000000
126.007981	77.000000
128.564755	66.000000
131.122955	118.400000
133.676203	182.100000
136.228753	247.900000
138.784853	353.600000
141.336005	496.500000
143.886460	571.100000
146.436217	657.400000
148.983155	716.000000
151.529398	730.100000
154.077066	755.500000
156.624038	775.700000
159.166075	725.400000
161.707418	764.200000
164.248068	742.500000
166.790144	754.000000
169.329408	745.000000
171.865863	769.600000
174.401628	755.300000
176.938818	747.600000
179.475317	710.200000
182.009010	733.500000
184.539899	735.500000
187.070100	707.500000
189.601727	716.100000
192.130552	740.000000
194.656578	716.400000
197.181918	737.300000
199.708683	708.600000
202.232652	744.700000
204.755936	728.300000
207.278534	745.900000
209.798340	715.300000
212.317463	730.800000
214.835903	723.300000
217.355768	727.600000
219.868630	731.400000
222.385024	757.100000
224.900737	727.400000
227.411559	762.600000
229.923806	778.900000
232.433270	783.300000
234.942056	792.600000
237.450164	784.300000
239.959696	772.900000
242.464347	788.800000
244.968322	761.800000
247.473721	787.000000
249.974245	785.100000
252.478292	773.700000
254.975369	772.200000
257.475969	773.400000
259.973797	755.800000
262.470952	764.000000
264.967434	751.800000
267.459053	768.200000
269.954192	764.000000
272.446564	757.400000
274.938266	783.200000
277.427205	813.900000
279.917567	790.200000
282.405168	795.300000
284.890009	810.400000
287.378365	808.800000
289.859781	830.200000
292.344711	832.700000
294.824796	838.400000
297.308393	864.500000
299.787147	899.300000
302.267324	934.200000
304.744750	899.300000
307.221512	906.000000
309.697610	857.600000
312.170960	853.200000
314.643649	828.700000
317.115676	867.500000
319.587041	869.200000
322.055663	902.300000
324.523625	861.000000
326.993010	819.300000
329.457572	826.000000
331.925638	797.200000
334.388883	775.000000
336.851472	780.600000
339.313404	742.500000
341.774679	730.300000
344.233219	726.700000
346.693183	692.800000
349.150413	734.000000
351.606989	697.800000
354.062911	689.800000
356.516103	709.700000
358.970718	682.000000
361.420531	709.800000
363.873840	700.000000
366.322350	682.800000
368.770210	650.100000
371.219492	654.200000
373.663979	642.400000
376.109890	642.300000
378.555150	626.900000
380.997692	627.800000
383.439586	643.900000
385.880832	631.300000
388.319364	593.500000
390.759316	603.300000
393.196555	617.100000
395.631083	606.400000
398.069097	609.100000
400.502336	625.200000
402.936995	603.100000
405.366882	604.000000
407.800254	603.000000
410.228856	619.000000
412.656816	594.800000
415.086198	579.500000
417.510814	580.100000
419.936852	590.700000
422.362249	568.300000
424.787006	594.300000
427.207004	573.000000
429.628424	560.700000
432.047148	592.300000
434.467292	589.900000
436.884741	579.200000
439.303610	573.900000
441.719785	526.100000
444.131214	530.500000
446.546119	534.800000
448.958335	499.400000
451.369916	510.400000
453.780863	472.600000
456.189123	481.100000
458.596752	492.400000
461.003748	457.600000
463.410113	448.800000
465.813795	461.800000
468.216847	451.000000
470.619269	467.100000
473.021061	481.400000
475.420175	467.400000
477.820709	478.900000
480.220614	457.100000
482.615797	483.900000
485.014446	491.200000
487.408374	514.800000
489.801677	519.300000
492.194355	549.100000
494.586407	570.000000
496.979877	617.200000
499.368635	690.100000
501.754727	805.400000
504.142239	1013.100000
506.529128	1294.500000
508.913352	1800.900000
511.298996	2587.100000
513.681978	3683.200000
516.062299	4939.200000
518.444039	5810.000000
520.823120	5909.500000
523.203619	5258.500000
525.581462	4355.500000
527.956648	3609.000000
530.331218	2999.700000
532.707205	2502.900000
535.080540	2148.000000
537.455292	1916.700000
539.825358	1680.400000
542.194810	1549.800000
544.565679	1406.600000
546.931867	1295.400000
549.299474	1230.400000
551.664435	1152.000000
554.028784	1068.500000
556.392519	1056.500000
558.757672	1038.700000
561.118153	965.700000
563.480052	956.500000
565.839310	933.900000
568.195930	897.200000
570.555996	854.700000
572.909370	819.400000
575.266189	831.300000
577.620373	801.400000
579.973948	737.500000
582.326916	752.900000
584.677251	718.600000
587.029004	702.900000
589.374080	688.400000
591.724619	662.600000
594.068486	657.000000
596.417814	644.000000
598.762493	630.200000
601.104548	623.300000
603.448020	621.000000
605.788869	639.800000
608.129115	628.700000
610.466741	658.800000
612.807802	658.600000
615.144226	680.700000
617.482066	699.400000
619.817289	697.200000
622.149895	657.400000
624.483919	660.200000
626.815328	617.700000
629.146139	601.000000
631.476352	591.100000
633.805968	599.100000
636.130960	564.200000
638.461394	556.100000
640.787207	553.500000
643.110412	558.900000
645.435034	563.900000
647.757050	549.700000
650.078472	525.000000
652.397291	528.000000
654.717527	515.200000
657.037169	525.500000
659.354210	520.000000
661.670659	528.900000
663.984510	534.200000
666.299777	543.300000
668.612447	540.600000
670.926532	563.700000
673.236017	565.900000
675.546918	559.500000
677.855226	522.300000
680.162946	527.300000
682.472080	517.300000
684.776622	496.700000
687.080578	505.600000
689.383948	476.700000
691.688732	486.800000
693.988929	464.400000
696.290542	451.800000
698.591569	465.300000
700.888015	471.500000
703.185876	448.600000
705.483153	437.100000
707.779847	433.400000
710.071965	401.400000
712.367494	423.000000
714.658449	410.100000
716.950819	427.600000
719.240614	426.900000
721.529828	412.000000
723.818463	417.200000
726.104525	419.400000
728.392002	415.200000
730.676907	412.900000
732.961235	404.000000
735.242994	407.300000
737.526167	377.900000
739.808763	418.900000
742.086803	419.500000
744.366257	399.900000
746.645136	384.100000
748.923440	391.200000
751.197193	386.300000
753.472361	399.500000
755.746955	398.400000
758.018990	412.800000
760.292438	429.600000
762.563328	391.000000
764.831662	409.500000
767.101409	414.300000
769.368601	403.100000
771.635224	410.800000
773.901276	402.600000
776.164777	424.600000
778.429691	424.600000
780.694035	410.000000
782.953850	389.800000
785.215077	417.600000
787.475737	402.000000
789.733851	412.400000
791.989420	408.600000
794.248379	411.300000
796.500840	416.400000
798.758668	396.600000
801.011977	411.800000
803.262746	431.100000
805.514927	415.600000
807.764569	422.000000
810.015623	410.700000
812.262167	433.100000
814.510122	399.500000
816.755543	424.800000
819.002375	412.500000
821.248646	417.000000
823.490412	383.900000
825.735562	398.200000
827.974239	378.000000
830.216298	415.100000
832.453859	386.600000
834.692832	418.700000
836.929278	410.800000
839.167135	412.300000
841.402467	413.200000
843.635276	415.200000
845.869495	382.400000
848.101193	410.500000
850.332336	399.900000
852.562924	386.000000
854.792958	386.400000
857.022438	416.900000
859.247436	373.200000
861.475808	387.000000
863.699702	369.700000
865.925007	373.000000
868.145836	377.000000
870.370037	384.600000
872.589765	387.300000
874.810903	377.200000
877.031491	388.800000
879.249570	402.100000
881.469058	366.600000
883.684080	393.800000
885.898554	359.700000
888.112481	377.000000
890.325861	354.900000
892.538693	354.300000
894.750978	370.300000
896.960762	391.000000
899.170000	375.700000
901.378693	396.300000
903.584886	388.300000
905.792489	387.900000
907.997595	376.000000
910.202157	389.300000
912.404224	402.000000
914.607700	407.700000
916.808682	391.000000
919.009122	426.000000
921.210971	434.100000
923.406429	446.700000
925.605245	459.800000
927.799624	516.100000
929.997360	555.200000
932.190660	626.500000
934.385369	700.800000
936.577591	745.100000
938.769276	824.900000
940.960423	881.500000
943.149087	884.100000
945.337215	900.000000
947.522861	848.600000
949.711861	836.900000
951.896437	854.500000
954.080478	847.100000
956.267869	857.900000
958.446956	868.300000
960.629394	869.700000
962.811298	880.600000
964.990727	865.900000
967.167684	893.500000
969.346049	887.400000
971.525821	899.000000
973.699244	893.400000
975.876013	905.900000
978.048375	882.900000
980.222145	906.000000
982.391511	854.900000
984.564221	819.000000
986.734466	805.800000
988.904181	737.000000
991.073368	657.000000
993.238158	605.200000
995.406290	591.100000
997.570026	531.700000
999.735170	529.900000
1001.897854	511.400000
1004.060013	474.800000
1006.219715	512.700000
1008.378892	489.800000
1010.539476	485.800000
1012.697605	450.800000
1014.855211	455.300000
1017.012293	453.800000
1019.168851	460.200000
1021.321030	441.900000
1023.474616	423.800000
1025.627680	410.700000
1027.778295	402.500000
1029.930316	406.000000
1032.077965	391.800000
1034.228945	404.800000
1036.375554	394.800000
1038.521644	376.000000
1040.667216	373.300000
1042.814193	374.100000
1044.954881	384.800000
1047.098898	391.700000
1049.240476	402.200000
1051.381536	373.100000
1053.524002	388.300000
1055.660187	384.200000
1057.799699	382.500000
1059.934855	391.900000
1062.073336	404.400000
1064.207464	373.800000
1066.341078	391.300000
1068.476096	373.800000
1070.606766	379.100000
1072.738840	373.900000
1074.868485	390.300000
1076.997617	370.400000
1079.126239	361.400000
1081.254349	356.100000
1083.380033	373.100000
1085.505207	358.600000
1087.631785	360.600000
1089.754025	341.900000
1091.877670	353.700000
1093.996980	344.600000
1096.121519	353.800000
1098.239814	329.300000
1100.359512	376.100000
1102.476793	355.600000
1104.593566	367.900000
1106.709833	332.800000
1108.823685	333.100000
1110.938940	334.300000
1113.049873	344.700000
1115.164118	338.000000
1117.274042	340.000000
1119.385370	338.200000
1121.496193	343.000000
1123.602700	336.700000
1125.712516	358.200000
1127.818019	322.800000
1129.924924	331.200000
1132.025614	313.600000
1134.131516	311.600000
1136.233109	331.200000
1138.336105	338.800000
1140.438600	328.600000
1142.534888	331.600000
1144.636383	320.400000
1146.733576	337.600000
1148.830271	298.800000
1150.926467	327.100000
1153.022165	316.900000
1155.117366	326.800000
1157.210170	321.600000
1159.304376	315.200000
1161.392391	332.900000
1163.485604	326.600000
1165.572630	306.100000
1167.662954	323.300000
1169.748990	326.500000
1171.838324	318.100000
1173.921477	332.000000
1176.006033	349.400000
1178.091990	320.200000
1180.173665	324.700000
1182.256741	318.600000
1184.337432	335.300000
1186.417632	329.200000
1188.497340	338.900000
1190.576557	338.600000
1192.653391	334.900000
1194.727845	338.400000
1196.805591	323.800000
1198.879066	328.700000
1200.953943	335.700000
1203.024552	328.100000
1205.096562	321.000000
1207.166196	314.100000
1209.237231	315.100000
1211.307779	313.100000
1213.374065	335.900000
1215.441752	297.900000
1217.507066	332.300000
1219.573781	303.500000
1221.636241	325.400000
1223.701985	303.300000
1225.763475	312.400000
1227.826366	324.200000
1229.886888	321.600000
1231.946928	316.700000
1234.006484	335.200000
1236.063676	321.700000
1238.120385	335.200000
1240.174732	324.100000
1242.232360	360.500000
1244.287624	323.800000
1246.338649	348.400000
1248.391073	327.700000
1250.443017	320.800000
1252.492603	319.800000
1254.541710	332.100000
1256.590338	353.300000
1258.638488	355.100000
1260.686160	355.000000
1262.729601	356.900000
1264.776318	320.800000
1266.820681	358.600000
1268.864568	357.000000
1270.906103	363.400000
1272.945289	346.200000
1274.987748	338.800000
1277.025984	342.900000
1279.065619	364.300000
1281.104778	349.700000
1283.139720	358.800000
1285.176060	344.100000
1287.210056	344.100000
1289.245449	326.400000
1291.276629	342.600000
1293.309208	352.600000
1295.341315	348.500000
1297.371081	341.800000
1299.402244	345.100000
1301.429200	338.900000
1303.457555	336.800000
1305.481704	353.100000
1307.509119	356.900000
1309.532331	325.500000
1311.556941	351.500000
1313.579216	326.700000
1315.602889	351.900000
1317.624229	309.600000
1319.645102	356.500000
1321.665507	329.500000
1323.681719	357.000000
1325.699328	362.500000
1327.714609	359.600000
1329.733149	338.400000
1331.747499	359.700000
1333.759524	354.800000
1335.774807	350.800000
1337.785904	343.300000
1339.798397	359.200000
1341.806708	374.600000
1343.818275	374.400000
1345.823803	352.800000
1347.832586	377.500000
1349.837191	398.200000
1351.845050	376.700000
1353.852447	354.300000
1355.853813	386.700000
1357.856575	374.600000
1359.858878	383.100000
1361.860721	369.100000
1363.862104	394.500000
1365.861173	365.000000
1367.859785	377.100000
1369.857937	355.800000
1371.855632	352.400000
1373.849164	354.600000
1375.844091	395.300000
1377.838562	356.200000
1379.832576	370.300000
1381.824283	333.400000
1383.815534	367.300000
1385.804480	361.600000
1387.794821	349.200000
1389.784708	333.800000
1391.772290	346.400000
1393.759419	337.000000
1395.744246	357.400000
1397.730468	353.600000
1399.714389	355.000000
1401.697858	364.700000
1403.680875	353.300000
1405.661594	355.000000
1407.643707	361.400000
1409.623523	341.100000
1411.602889	338.100000
1413.578116	377.500000
1415.556581	342.900000
1417.532753	359.700000
1419.508475	354.000000
1421.483749	358.800000
1423.456731	326.800000
1425.429265	356.100000
1427.401351	371.800000
1429.372990	333.900000
1431.340500	334.100000
1433.313084	353.500000
1435.277862	352.100000
1437.247713	370.400000
1439.213439	360.300000
1441.180559	354.600000
1443.145395	351.300000
1445.106111	328.300000
1447.071895	351.800000
1449.031724	365.200000
1450.992947	383.400000
1452.955561	369.400000
1454.914061	370.000000
1456.872119	367.900000
1458.829735	368.900000
1460.786908	375.800000
1462.741806	364.800000
1464.698097	377.300000
1466.652113	382.400000
1468.605688	374.900000
1470.556991	361.100000
1472.509686	371.100000
1474.460110	371.500000
1476.410095	356.700000
1478.359641	384.100000
1480.306918	350.900000
1482.251927	342.100000
1484.198329	326.500000
1486.144293	357.000000
1488.089820	337.200000
1490.033081	337.300000
1491.975906	332.300000
1493.916468	336.800000
1495.858422	339.400000
1497.798113	336.300000
1499.737369	342.300000
1501.676191	371.200000
1503.612753	330.000000
1505.550706	358.200000
1507.486400	348.000000
1509.421661	379.900000
1511.354665	373.100000
1513.287237	374.500000
1515.219377	383.500000
1517.151085	381.300000
1519.080540	377.000000
1521.011385	374.900000
1522.941798	372.400000
1524.868139	386.900000
1526.795870	402.600000
1528.721352	415.200000
1530.646404	402.300000
1532.571027	416.900000
1534.495220	412.700000
1536.417167	419.300000
1538.340504	422.700000
1540.261594	441.500000
1542.180440	431.900000
1544.100676	451.900000
1546.018668	438.300000
1547.936234	470.000000
1549.851559	504.800000
1551.768273	497.800000
1553.680932	510.500000
1555.596794	538.200000
1557.510418	531.800000
1559.421803	560.500000
1561.334578	552.500000
1563.243303	616.100000
1565.153417	669.500000
1567.063108	720.000000
1568.972376	772.700000
1570.879409	848.100000
1572.784210	978.800000
1574.690400	1085.000000
1576.594359	1239.900000
1578.497896	1422.900000
1580.401013	1682.200000
1582.301900	1960.900000
1584.204176	2216.800000
1586.104223	2384.100000
1588.005659	2510.800000
1589.903061	2500.200000
1591.800044	2423.700000
1593.696609	2294.000000
1595.594561	2002.700000
1597.486679	1722.700000
1599.381991	1385.600000
1601.276885	1150.100000
1603.169557	966.300000
1605.061812	840.800000
1606.951848	723.400000
1608.841468	643.200000
1610.730673	613.600000
1612.619462	594.700000
1614.506035	525.400000
1616.393995	508.200000
1618.277938	477.800000
1620.163268	466.400000
1622.048185	447.600000
1623.930888	430.700000
1625.814978	404.300000
1627.695056	388.200000
1629.576522	358.700000
1631.455776	348.900000
1633.336418	350.800000
1635.211255	341.900000
1637.091073	335.700000
1638.966887	329.500000
1640.842290	315.200000
1642.719079	314.700000
1644.590071	304.000000
1646.464246	307.900000
1648.334421	291.300000
1650.207777	308.400000
1652.078930	279.200000
1653.947881	283.600000
1655.818218	282.200000
1657.684562	270.300000
1659.552291	288.300000
1661.417821	284.700000
1663.284737	266.400000
1665.147663	259.400000
1667.011976	262.700000
1668.874092	260.700000
1670.735803	267.800000
1672.598899	241.900000
1674.459801	247.400000
1676.318510	231.100000
1678.176815	245.200000
1680.036504	261.000000
1681.890427	234.100000
1683.747523	257.300000
1685.604215	244.900000
1687.456932	228.600000
1689.312820	232.600000
1691.164734	240.300000
1693.016247	212.300000
1694.867359	225.000000
1696.718070	206.400000
1698.568381	232.400000
1700.416508	227.300000
1702.266019	220.200000
1704.109780	207.100000
1705.958492	222.000000
1707.801457	223.600000
1709.647588	207.400000
1711.489758	213.200000
1713.335093	229.100000
1715.174687	197.100000
1717.015665	219.200000
1718.858026	220.900000
1720.696430	228.900000
1722.536218	214.200000
1724.373831	230.800000
1726.211049	204.700000
1728.046093	213.000000
1729.882520	198.900000
1731.716774	214.500000
1733.550635	214.100000
1735.384101	218.500000
1737.213621	204.300000
1739.046301	200.600000
1740.875035	207.300000
1742.706928	211.100000
1744.534878	214.300000
1746.362436	202.000000
1748.189603	201.200000
1750.016378	207.200000
1751.842761	188.200000
1753.665208	213.800000
1755.490810	213.500000
1757.312477	217.500000
1759.135525	203.800000
1760.956413	222.300000
1762.776912	197.400000
1764.598791	222.400000
1766.414971	217.400000
1768.234303	219.500000
1770.049708	196.500000
1771.868264	196.700000
1773.682894	227.300000
1775.497137	203.100000
1777.310994	202.600000
1779.124464	191.800000
1780.935780	207.600000
1782.748478	192.300000
1784.560790	193.900000
1786.369183	202.200000
1788.178958	220.500000
1789.984818	196.200000
1791.793823	196.400000
1793.598915	203.300000
1795.405388	189.500000
1797.211476	205.800000
1799.013655	176.200000
1800.818978	216.500000
1802.620391	195.900000
1804.423186	189.100000
1806.222074	194.300000
1808.022343	202.000000
1809.822230	196.900000
1811.619975	182.000000
1813.417340	205.800000
1815.214324	207.100000
1817.010929	188.700000
1818.805393	191.400000
1820.601238	217.300000
1822.391427	182.800000
1824.186513	188.900000
1825.975946	188.500000
1827.768517	187.200000
1829.558952	205.400000
1831.347252	202.000000
1833.138688	220.300000
1834.924479	207.500000
1836.711649	194.100000
1838.496687	201.700000
1840.284858	214.900000
1842.069145	215.100000
1843.851301	212.000000
1845.634837	200.600000
1847.416244	204.600000
1849.199029	199.200000
1850.977935	204.800000
1852.758219	204.200000
1854.536378	209.100000
1856.315914	181.100000
1858.093326	227.900000
1859.868615	201.400000
1861.645281	193.200000
1863.419825	194.300000
1865.195746	215.700000
1866.966048	207.400000
1868.739477	211.400000
1870.510786	191.500000
1872.281724	203.200000
1874.054040	200.300000
1875.820742	198.600000
1877.590569	207.800000
1879.356533	203.900000
1881.125621	194.600000
1882.890847	211.600000
1884.655705	197.900000
1886.421939	206.200000
1888.184316	194.800000
1889.946324	214.700000
1891.707966	177.200000
1893.469240	190.200000
1895.230148	192.500000
1896.990688	176.600000
1898.749120	186.300000
1900.507185	196.600000
1902.263143	186.200000
1904.020477	201.000000
1905.777446	195.600000
1907.532308	209.400000
1909.285066	182.400000
1911.037459	193.900000
1912.791229	169.700000
1914.542895	175.000000
1916.292458	184.800000
1918.043398	186.900000
1919.793974	158.200000
1921.540712	193.500000
1923.288825	192.000000
1925.034840	181.500000
1926.782229	180.800000
1928.527520	190.100000
1930.270715	181.000000
1932.015284	183.300000
1933.757757	186.800000
1935.499871	200.900000
1937.241624	174.100000
1938.983017	196.400000
1940.722317	180.600000
1942.461258	188.000000
1944.199840	191.000000
1945.936331	180.300000
1947.672463	185.650000
1949.409971	191.000000
1951.143656	183.500000
1952.878716	182.300000
1954.611687	177.300000
1956.344302	174.300000
1958.076560	177.400000
1959.808462	187.000000
1961.538279	179.300000
1963.266010	179.200000
1964.995116	169.900000
1966.723866	188.000000
1968.450533	168.700000
1970.176846	183.800000
1971.904533	177.700000
1973.626683	187.800000
1975.351934	175.800000
1977.073378	185.500000
1978.797922	174.900000
1980.520387	200.000000
1982.239048	179.600000
1983.960809	173.400000
1985.678767	180.600000
1987.398098	183.300000
1989.113630	173.600000
1990.833982	197.600000
1992.550536	179.500000
1994.263293	208.500000
1995.979146	178.700000
1997.692927	179.200000
1999.406358	196.800000
2001.117718	200.700000
2002.830450	176.900000
2004.539392	210.000000
2006.251426	186.900000
2007.957951	182.200000
2009.667569	174.700000
2011.375119	200.200000
2013.082322	190.800000
2014.787459	193.500000
2016.492250	187.500000
2018.198412	196.500000
2019.900791	178.300000
2021.604543	193.600000
2023.306232	193.200000
2025.007575	201.200000
2026.708574	165.800000
2028.407511	195.100000
2030.107820	177.600000
2031.804353	186.400000
2033.502258	175.900000
2035.198105	170.600000
2036.897037	159.300000
2038.590483	182.300000
2040.285300	205.100000
2041.979774	174.700000
2043.670481	178.600000
2045.364270	178.800000
2047.054294	190.100000
2048.745688	190.200000
2050.435028	176.600000
2052.125740	188.300000
2053.812688	165.700000
2055.499296	191.200000
2057.187275	181.200000
2058.871494	206.800000
2060.557083	196.100000
2062.242333	183.800000
2063.925535	189.200000
2065.610107	179.600000
2067.289215	168.400000
2068.973110	178.900000
2070.651543	182.400000
2072.333054	166.100000
2074.010813	172.900000
2075.688236	195.300000
2077.367028	182.100000
2079.043777	188.100000
2080.718485	186.100000
2082.394563	188.200000
2084.068599	167.400000
2085.742301	198.300000
2087.415667	175.000000
2089.086994	182.900000
2090.757987	165.500000
2092.428646	185.300000
2094.098971	174.300000
2095.768962	175.600000
2097.436917	173.300000
2099.104538	189.500000
2100.770126	165.600000
2102.437082	185.400000
2104.102005	177.000000
2105.766596	186.200000
2107.429155	184.800000
2109.093082	180.200000
2110.754978	180.200000
2112.416544	161.000000
2114.077778	172.000000
2115.736983	181.900000
2117.395859	189.000000
2119.054405	195.200000
2120.712620	187.100000
2122.367113	175.100000
2124.024670	156.000000
2125.681897	164.600000
2127.335404	172.400000
2128.990278	169.200000
2130.641433	166.000000
2132.295651	165.400000
2133.946151	153.600000
2135.598019	159.300000
2137.244478	162.600000
2138.895691	163.200000
2140.543192	166.900000
2142.192059	188.300000
2143.838907	147.000000
2145.485430	165.300000
2147.131627	163.000000
2148.774116	180.900000
2150.419662	180.200000
2152.061502	171.000000
2153.706399	164.800000
2155.347591	181.100000
2156.988459	169.200000
2158.629004	176.800000
2160.267536	155.200000
2161.907434	181.600000
2163.543632	174.100000
2165.181196	163.300000
2166.818438	183.200000
2168.453670	187.100000
2170.088580	172.400000
2171.723169	169.000000
2173.357437	183.400000
2174.988011	186.100000
2176.621637	173.400000
2178.251571	179.600000
2179.882870	170.200000
2181.512164	176.100000
2183.141139	163.300000
2184.769794	169.600000
2186.398130	162.300000
2188.024463	192.900000
2189.650478	179.700000
2191.274492	185.600000
2192.899871	156.800000
2194.523249	179.100000
2196.147992	177.300000
2197.769054	187.700000
2199.389799	174.700000
2201.011908	176.600000
2202.632020	198.000000
2204.250136	172.100000
2205.867936	168.900000
2207.485420	176.100000
2209.102590	170.100000
2210.719443	183.800000
2212.335982	176.800000
2213.950528	195.900000
2215.563081	168.100000
2217.176998	179.600000
2218.788924	176.300000
2220.402213	186.900000
2222.013512	176.600000
2223.622821	178.900000
2225.233493	192.100000
2226.842177	177.800000
2228.450549	161.900000
2230.056934	159.700000
2231.664681	151.100000
2233.270443	175.800000
2234.875893	175.000000
2236.479358	160.400000
2238.084186	152.900000
2239.687030	178.100000
2241.287891	191.500000
2242.890115	178.800000
2244.490357	158.800000
2246.091961	160.200000
2247.689912	169.700000
2249.289226	178.100000
2250.886560	168.700000
2252.483586	181.500000
2254.081973	162.200000
2255.676713	188.300000
2257.269475	167.600000
2258.863600	175.500000
2260.459086	172.400000
2262.050927	173.900000
2263.642462	170.400000
2265.235359	173.500000
2266.822946	162.100000
2268.415229	178.000000
2270.002205	161.300000
2271.592210	170.200000
2273.176910	163.300000
2274.766304	164.000000
2276.350395	158.100000
2277.935848	171.200000
2279.519332	182.500000
2281.105841	179.600000
2282.688717	167.300000
2284.271290	178.200000
2285.853559	147.100000
2287.432198	174.900000
2289.013862	167.700000
2290.591897	153.700000
2292.172955	150.100000
2293.750386	163.100000
2295.325854	176.100000
2296.904344	167.600000
2298.479210	149.500000
2300.053775	171.000000
2301.628039	179.600000
2303.202003	171.300000
2304.775667	162.200000
2306.349031	175.000000
2307.918776	152.900000
2309.488222	176.200000
2311.060686	163.300000
2312.627876	156.800000
2314.198083	155.500000
2315.764677	193.000000
2317.332629	162.300000
2318.898627	183.000000
2320.464327	162.100000
2322.029729	171.500000
2323.593178	160.100000
2325.157986	177.300000
2326.719186	179.800000
2328.283399	199.200000
2329.842352	192.400000
2331.404318	187.800000
2332.964334	165.500000
2334.524054	168.000000
2336.081826	146.000000
2337.639302	176.700000
2339.196484	161.600000
2340.751718	175.500000
2342.306659	170.000000
2343.861305	189.300000
2345.415658	163.900000
2346.969717	168.000000
2348.523483	139.900000
2350.075304	182.200000
2351.625182	155.700000
2353.178069	174.000000
2354.725712	153.900000
2356.276364	166.500000
2357.823424	148.100000
2359.371842	181.100000
2360.919969	164.100000
2362.464507	181.000000
2364.010403	165.900000
2365.554361	181.500000
2367.099675	163.100000
2368.641405	160.100000
2370.184493	141.000000
2371.725644	172.900000
2373.266506	155.400000
2374.807079	160.400000
2376.347363	155.300000
2377.887358	146.600000
2379.423774	168.800000
2380.963192	178.100000
2382.499033	132.600000
2384.036231	184.800000
2385.569853	155.900000
2387.106475	162.600000
2388.641167	164.900000
2390.173929	168.100000
2391.706404	170.300000
2393.236951	169.900000
2394.770496	160.200000
2396.298830	181.600000
2397.828520	153.000000
2399.357925	167.100000
2400.887045	159.300000
2402.415879	148.100000
2403.939509	157.300000
2405.467774	185.500000
2406.990837	178.100000
2408.518533	162.100000
2410.039390	167.200000
2411.564879	181.700000
2413.086809	175.200000
2414.610093	165.100000
2416.131457	188.600000
2417.650901	170.900000
2419.171700	191.400000
2420.690580	183.300000
2422.209179	163.100000
2423.725859	189.100000
2425.243895	171.900000
2426.761649	194.900000
2428.275851	181.900000
2429.789774	199.000000
2431.303416	191.100000
2432.818412	203.800000
2434.329861	211.300000
2435.842663	222.200000
2437.353553	183.200000
2438.864164	210.300000
2440.372863	212.000000
2441.884548	218.700000
2443.392690	212.100000
2444.900554	234.700000
2446.408139	225.500000
2447.912185	232.200000
2449.419215	220.100000
2450.924337	239.000000
2452.429182	225.100000
2453.932120	254.200000
2455.434782	232.800000
2456.937167	233.000000
2458.437647	232.000000
2459.939480	245.500000
2461.439408	214.400000
2462.939061	224.000000
2464.438439	215.600000
2465.935914	222.000000
2467.431487	196.100000
2468.930040	196.200000
2470.425065	192.000000
2471.921442	213.100000
2473.414293	184.800000
2474.908497	212.000000
2476.402427	179.600000
2477.892833	216.800000
2479.386217	218.600000
2480.877703	216.200000
2482.367292	206.400000
2483.856609	205.600000
2485.344030	183.300000
2486.834427	177.400000
2488.321306	196.000000
2489.809536	195.200000
2491.294249	175.400000
2492.778692	186.400000
2494.264487	185.000000
2495.748390	182.900000
2497.233643	155.500000
2498.713763	182.900000
2500.196856	194.300000
2501.678058	193.300000
2503.158991	176.000000
2504.638035	165.900000
2506.116810	171.600000
2507.595317	177.700000
2509.073555	150.300000
2510.551526	177.500000
2512.025991	180.800000
2513.503426	195.100000
2514.977356	168.000000
2516.452638	180.100000
2517.927652	177.500000
2519.399165	173.700000
2520.872029	164.400000
2522.343010	177.000000
2523.815341	165.400000
2525.282558	178.700000
2526.752742	173.000000
2528.221045	174.400000
2529.689083	175.500000
2531.156855	173.400000
2532.624363	162.800000
2534.091607	177.700000
2535.555358	165.300000
2537.020459	175.900000
2538.483683	171.300000
2539.948256	177.400000
2541.409341	182.200000
2542.871775	171.400000
2544.333946	170.500000
2545.792630	179.300000
2547.255887	160.900000
2548.714047	179.200000
2550.173557	158.000000
2551.627972	180.600000
2553.086958	167.300000
2554.544072	170.000000
2555.999314	169.500000
2557.454296	188.600000
2558.907408	174.600000
2560.361869	193.300000
2561.814461	159.000000
2563.266793	175.500000
2564.717257	178.800000
2566.170678	178.500000
2567.619016	161.300000
2569.070309	173.600000
2570.519737	160.000000
2571.965692	180.800000
2573.414602	178.100000
2574.860042	189.400000
2576.306829	181.500000
2577.751753	178.200000
2579.196420	169.900000
2580.642434	187.600000
2582.084982	196.300000
2583.528876	192.000000
2584.969306	180.900000
2586.411084	176.500000
2587.851002	174.300000
2589.292267	194.400000
2590.730070	181.000000
2592.170823	188.700000
2593.606514	182.400000
2595.045153	198.600000
2596.481936	187.700000
2597.916863	196.000000
2599.354737	161.200000
2600.787554	183.700000
2602.221718	161.500000
2603.654028	199.800000
2605.087684	189.500000
2606.519487	176.100000
2607.951036	194.100000
2609.382332	175.000000
2610.811777	190.700000
2612.240969	203.200000
2613.668310	200.500000
2615.096998	206.200000
2616.525433	205.900000
2617.950422	211.100000
2619.376756	205.100000
2620.801243	209.800000
2622.227075	223.900000
2623.649463	224.100000
2625.073196	218.000000
2626.495084	248.700000
2627.916721	226.800000
2629.336514	251.500000
2630.757652	229.600000
2632.178540	247.700000
2633.595989	267.100000
2635.016378	265.100000
2636.433330	250.200000
2637.850034	277.300000
2639.266489	266.500000
2640.682696	297.200000
2642.098655	300.400000
2643.512773	303.400000
2644.926643	311.100000
2646.338674	333.600000
2647.752050	316.100000
2649.161996	357.300000
2650.574878	350.500000
2651.984331	384.800000
2653.393538	402.400000
2654.800909	421.700000
2656.211214	443.800000
2657.619683	495.900000
2659.026318	529.300000
2660.432707	527.200000
2661.837262	566.900000
2663.243161	596.600000
2664.647227	632.400000
2666.051048	658.800000
2667.454625	699.100000
2668.856371	762.700000
2670.259460	763.600000
2671.659131	846.900000
2673.060146	898.300000
2674.457745	947.400000
2675.858273	1009.900000
2677.255387	1027.300000
2678.653844	1092.500000
2680.050474	1094.100000
2681.446861	1113.300000
2682.843006	1156.200000
2684.237325	1181.900000
2685.632987	1202.300000
2687.025240	1211.200000
2688.418835	1201.000000
2689.810606	1194.000000
2691.203720	1211.300000
2692.595010	1161.400000
2693.984477	1147.000000
2695.373704	1098.800000
2696.762692	1088.800000
2698.153021	1032.500000
2699.538367	1025.400000
2700.926636	982.800000
2702.313085	988.100000
2703.699295	920.800000
2705.085266	865.300000
2706.467839	803.200000
2707.851754	796.900000
2709.235430	738.500000
2710.618869	720.100000
2711.998912	649.600000
2713.380297	651.600000
2714.759867	622.200000
2716.140777	561.500000
2717.519873	532.600000
2718.897155	531.800000
2720.275778	487.300000
2721.652587	482.800000
2723.029161	434.200000
2724.405499	421.500000
2725.780025	400.900000
2727.155892	371.500000
2728.528373	360.100000
2729.903769	369.900000
2731.274205	337.200000
2732.645981	328.300000
2734.017524	320.800000
2735.387258	288.800000
2736.758332	289.300000
2738.127599	282.400000
2739.496632	276.200000
2740.863859	268.800000
2742.230852	236.700000
2743.597613	267.000000
2744.964141	240.100000
2746.328865	241.600000
2747.693356	212.400000
2749.057616	225.300000
2750.421643	218.400000
2751.785438	221.900000
2753.145861	187.600000
2754.509193	219.100000
2755.867583	195.900000
2757.228883	175.000000
2758.586813	194.400000
2759.947651	175.100000
2761.306689	170.300000
2762.662360	179.700000
2764.020938	179.900000
2765.376149	174.700000
2766.731131	179.200000
2768.084316	177.700000
2769.440408	169.000000
2770.793136	177.000000
2772.145636	169.900000
2773.497907	172.300000
2774.851516	152.500000
2776.201765	176.400000
2777.550219	152.800000
2778.901578	185.700000
2780.249579	173.800000
2781.598917	177.400000
2782.946463	190.700000
2784.293783	168.400000
2785.640875	172.200000
2786.986177	199.300000
2788.331253	177.900000
2789.676103	164.500000
2791.020727	165.700000
2792.361999	158.000000
2793.704608	146.000000
2795.046993	184.100000
2796.389152	150.900000
2797.727962	167.700000
2799.069672	161.700000
2800.408033	169.300000
2801.747732	149.800000
2803.085646	169.200000
2804.421774	155.300000
2805.757680	160.400000
2807.094923	164.300000
2808.430382	147.300000
2809.765617	156.200000
2811.099071	185.300000
2812.433861	154.800000
2813.765311	177.500000
2815.099656	150.400000
2816.429102	164.700000
2817.759886	174.700000
2819.090449	165.200000
2820.419232	140.400000
2821.749351	159.200000
2823.077692	143.700000
2824.405812	135.500000
2825.732154	149.500000
2827.059832	146.600000
2828.384178	142.800000
2829.709860	135.100000
2831.033766	150.300000
2832.357452	178.600000
2833.682474	127.200000
2835.004167	144.900000
2836.325641	147.700000
2837.646895	160.900000
2838.967932	149.800000
2840.287195	159.100000
2841.607794	130.300000
2842.926621	166.600000
2844.245231	144.500000
2845.562069	143.400000
2846.878690	140.600000
2848.195094	144.700000
2849.509728	141.700000
2850.825697	141.800000
2852.138347	140.700000
2853.452331	146.400000
2854.766099	144.100000
2856.079650	130.800000
2857.391435	134.700000
2858.701453	148.700000
2860.012806	140.500000
2861.320844	160.900000
2862.630216	129.300000
2863.939373	135.700000
2865.248316	143.700000
2866.555494	167.600000
2867.860910	144.100000
2869.167659	160.500000
2870.472647	135.200000
2871.777420	134.700000
2873.080433	137.600000
2874.386326	128.400000
2875.687365	138.000000
2876.989737	145.500000
2878.290351	134.700000
2879.592297	130.100000
2880.894031	145.400000
2882.192461	128.200000
2883.492224	118.100000
2884.790230	140.800000
2886.088024	132.900000
2887.384062	129.700000
2888.681432	120.500000
2889.977048	120.900000
2891.272452	128.400000
2892.567645	136.900000
2893.859541	119.800000
2895.154312	145.600000
2896.445788	141.200000
2897.738596	135.900000
2899.031194	137.200000
2900.320497	129.500000
2901.611134	110.700000
2902.900019	137.500000
2904.190236	116.700000
2905.477162	128.000000
2906.765420	117.700000
2908.051929	134.000000
2909.338229	135.900000
2910.624321	138.600000
2911.908665	134.000000
2913.195881	136.300000
2914.478270	129.900000
2915.761991	138.300000
2917.043965	125.300000
2918.325733	133.700000
2919.605755	127.700000
2920.888648	131.700000
2922.169794	135.900000
2923.447659	118.100000
2924.728393	126.900000
2926.005847	129.400000
2927.283094	135.400000
2928.558599	132.600000
2929.836972	114.000000
2931.110531	140.200000
2932.386957	129.000000
2933.661642	127.600000
2934.934586	136.200000
2936.208862	135.600000
2937.481398	132.100000
2938.753729	145.400000
2940.022788	137.600000
2941.294712	141.500000
2942.564898	120.900000
2943.834880	135.200000
2945.104659	124.600000
2946.372702	122.100000
2947.639008	120.800000
2948.905112	136.700000
2950.172547	126.400000
2951.438246	146.300000
2952.703744	118.800000
2953.969039	125.800000
2955.231069	114.700000
2956.494429	126.800000
2957.757588	119.000000
2959.019015	129.900000
2960.281771	122.600000
2961.542795	124.700000
2962.802089	109.800000
2964.061182	135.500000
2965.320076	117.500000
2966.578769	118.900000
2967.837261	141.600000
2969.094025	122.100000
2970.350590	103.300000
2971.605426	131.900000
2972.861592	123.500000
2974.114503	113.700000
2975.368742	113.200000
2976.622783	127.800000
2977.875098	114.900000
2979.127215	127.800000
2980.377607	113.700000
2981.630854	119.100000
2982.879324	129.600000
2984.130649	131.500000
2985.378724	124.200000
2986.626602	120.700000
2987.874284	102.400000
2989.121768	100.400000
2990.367531	113.900000
2991.613098	136.000000
2992.859992	142.400000
2994.103642	138.200000
2995.348619	113.900000
2996.590354	129.500000
2997.834940	116.800000
2999.077807	121.400000
3000.317433	115.000000
3001.559909	126.700000
3002.799145	105.900000
3004.039709	125.200000
3005.278556	110.800000
3006.517209	123.700000
3007.754146	106.700000
3008.992411	103.500000
3010.228960	121.800000
3011.465316	128.300000
3012.701478	107.500000
3013.935926	117.600000
3015.170181	126.700000
3016.404244	104.700000
3017.636593	119.200000
3018.867231	117.700000
3020.100715	118.400000
3021.332488	128.200000
3022.562549	124.300000
3023.792419	114.800000
3025.020579	124.600000
3026.250066	116.600000
3027.477843	112.900000
3028.705429	114.200000
3029.934341	104.500000
3031.158511	118.700000
3032.385524	104.100000
3033.609314	104.300000
3034.834429	125.100000
3036.057839	112.000000
3037.281058	113.900000
3038.502572	119.700000
3039.726927	118.200000
3040.946547	104.100000
3042.167493	102.000000
3043.388249	122.300000
3044.607303	109.000000
3045.827681	114.700000
3047.044843	103.700000
3048.263330	103.100000
3049.480116	104.200000
3050.696713	129.500000
3051.913123	118.600000
3053.126319	119.400000
3054.342353	116.900000
3055.555175	118.700000
3056.770834	112.900000
3057.981771	108.900000
3059.194032	110.700000
3060.406106	119.900000
3061.617994	94.600000
3062.828185	106.600000
3064.038189	99.000000
3065.248007	108.100000
3066.456129	97.800000
3067.664066	98.700000
3068.870307	96.900000
3070.077873	112.600000
3071.283744	106.800000
3072.489430	101.000000
3073.694932	106.400000
3074.898740	115.200000
3076.103872	112.300000
3077.307311	102.100000
3078.509059	97.500000
3079.710622	111.100000
3080.912002	88.200000
3082.113198	104.000000
3083.312704	92.700000
3084.512027	102.700000
3085.712673	88.000000
3086.911629	104.300000
3088.107391	109.300000
3089.305981	121.800000
3090.501378	105.100000
3091.698099	89.600000
3092.891627	107.200000
3094.087983	102.000000
3095.282652	98.000000
3096.474131	107.300000
3097.669942	98.800000
3098.861058	107.600000
3100.053498	97.800000
3101.242749	97.800000
3102.434827	113.500000
3103.625221	104.600000
3104.812429	103.900000
3106.000959	92.100000
3107.190812	103.900000
3108.377480	106.400000
3109.563969	76.400000
3110.750279	114.200000
3111.937910	107.200000
3113.122359	102.900000
3114.305129	94.400000
3115.490721	108.100000
3116.674634	86.800000
3117.856867	101.000000
3119.038923	85.400000
3120.220800	96.000000
3121.402499	85.000000
3122.582521	105.400000
3123.760866	96.200000
3124.942031	110.500000
3126.120021	94.100000
3127.297834	107.300000
3128.475470	82.900000
3129.651431	82.100000
3130.827216	104.100000
3132.004321	98.900000
3133.179753	85.900000
3134.353511	107.400000
3135.525596	90.500000
3136.699003	91.200000
3137.872233	90.600000
3139.043792	105.200000
3140.216671	106.800000
3141.386383	101.600000
3142.557416	89.900000
3143.726778	95.300000
3144.894471	87.500000
3146.064979	94.500000
3147.230829	85.600000
3148.400987	93.500000
3149.566488	110.800000
3150.731816	101.600000
3151.896970	97.700000
3153.061951	107.200000
3154.228251	96.200000
3155.389898	102.300000
3156.552866	95.600000
3157.715661	98.900000
3158.878283	116.600000
3160.039239	103.800000
3161.200024	102.200000
3162.360636	105.600000
3163.519584	78.200000
3164.678361	84.600000
3165.836965	82.800000
3166.995398	91.500000
3168.153660	68.900000
3169.310259	100.000000
3170.465197	89.900000
3171.621454	97.700000
3172.776050	80.700000
3173.930476	90.700000
3175.083242	96.300000
3176.235837	122.100000
3177.388263	71.400000
3178.540518	112.100000
3179.692604	89.200000
3180.841543	92.900000
3181.993289	116.600000
3183.143378	110.800000
3184.291810	86.300000
3185.440072	101.500000
3186.588166	80.100000
3187.736091	100.300000
3188.882360	97.000000
3190.028461	100.100000
3191.172908	66.000000
3192.317187	92.600000
3193.461297	99.500000
3194.606726	88.700000
3195.749016	87.400000
3196.891139	112.300000
3198.033094	67.500000
3199.174882	75.100000
3200.316503	87.400000
3201.454989	94.700000
3202.594792	86.300000
3203.735912	108.500000
3204.873899	74.300000
3206.010235	91.400000
3207.146407	80.900000
3208.283895	103.100000
3209.419735	95.800000
3210.556892	102.800000
3211.689436	73.700000
3212.826261	99.500000
3213.958476	83.500000
3215.092007	94.900000
3216.225373	77.700000
3217.355613	100.300000
3218.488650	90.800000
3219.618561	80.800000
3220.749788	89.800000
3221.877891	111.100000
3223.008790	105.600000
3224.138045	100.200000
3225.265657	94.100000
3226.390146	107.300000
3227.518911	110.600000
3228.644554	96.600000
3229.770034	109.600000
3230.893873	130.200000
3232.020507	96.400000
3233.142543	136.100000
3234.265895	108.800000
3235.389085	120.200000
3236.512112	133.000000
3237.633501	107.400000
3238.754727	128.100000
3239.874315	122.900000
3240.993742	104.600000
3242.111532	128.100000
3243.232113	118.900000
3244.349581	103.000000
3245.466888	115.300000
3246.584035	114.200000
3247.699545	126.600000
3248.816371	129.500000
3249.930087	115.400000
3251.046592	106.800000
3252.161462	118.000000
3253.273224	97.000000
3254.384827	104.100000
3255.497745	82.700000
3256.610503	84.400000
3257.720155	113.200000
3258.831122	83.800000
3259.941930	85.300000
3261.051106	83.700000
3262.158651	96.100000
3263.267511	98.500000
3264.376212	92.400000
3265.481811	73.400000
3266.588725	111.900000
3267.694009	109.000000
3268.800607	77.700000
3269.904105	77.000000
3271.008917	101.400000
3272.113572	73.200000
3273.215129	98.700000
3274.316529	78.600000
3275.419243	70.700000
3276.521801	68.700000
3277.621262	82.500000
3278.723507	83.500000
3279.822656	80.400000
3280.920180	96.600000
3282.017550	71.800000
3283.117701	75.500000
3284.214760	66.800000
3285.311663	76.100000
3286.408411	80.600000
3287.500600	80.400000
3288.597039	77.800000
3289.691855	95.300000
3290.786517	72.500000
3291.879556	81.000000
3292.972442	77.600000
3294.063707	54.500000
3295.156285	75.500000
3296.247243	59.700000
3297.336581	93.400000
3298.425766	74.800000
3299.516263	93.400000
3300.603677	60.400000
3301.690937	70.000000
3302.779510	72.600000
3303.867930	79.800000
3304.951804	66.300000
3306.039919	65.800000
3307.124952	95.500000
3308.208370	75.100000
3309.293100	85.300000
3310.376214	70.800000
3311.460641	64.000000
3312.541989	92.800000
3313.624649	78.300000
3314.705694	76.000000
3315.786589	80.400000
3316.865871	77.800000
3317.945002	61.400000
3319.025445	86.000000
3320.102813	77.100000
3321.181493	79.600000
3322.258561	73.900000
3323.335479	91.400000
3324.410787	69.400000
3325.485945	67.700000
3326.562414	88.000000
3327.635813	79.500000
3328.709062	92.700000
3329.783623	76.900000
3330.856575	60.900000
3331.927918	78.500000
3333.000572	63.700000
3334.070159	97.000000
3335.141058	75.900000
3336.210349	82.600000
3337.280950	85.500000
3338.349946	76.900000
3339.417335	68.800000
3340.483119	73.200000
3341.553129	74.800000
3342.620076	67.900000
3343.683961	52.300000
3344.750613	79.100000
3345.815662	61.900000
3346.879107	59.000000
3347.942406	86.000000
3349.005558	61.900000
3350.068564	65.000000
3351.131424	80.200000
3352.192681	59.600000
3353.250882	89.800000
3354.313304	64.000000
3355.372670	80.100000
3356.431890	66.000000
3357.492419	66.400000
3358.548440	78.600000
3359.607224	57.400000
3360.661501	71.900000
3361.718542	79.900000
3362.773984	64.000000
3363.830736	75.800000
3364.885889	60.300000
3365.939445	84.800000
3366.991404	78.700000
3368.046126	68.200000
3369.097798	73.600000
3370.149327	58.600000
3371.202164	41.100000
3372.251954	65.900000
3373.303053	58.400000
3374.351105	73.100000
3375.401918	66.100000
3376.449685	77.300000
3377.497310	66.800000
3378.544793	63.200000
3379.590683	50.600000
3380.637881	68.900000
3381.682037	54.100000
3382.728951	75.900000
3383.774273	78.500000
3384.816554	68.200000
3385.858694	67.600000
3386.902143	81.800000
3387.945450	50.600000
3388.987167	69.900000
3390.028744	56.900000
3391.070179	74.400000
3392.110026	57.600000
3393.148284	83.400000
3394.187850	63.100000
3395.227276	84.400000
3396.265114	67.400000
3397.301365	77.300000
3398.337477	58.000000
3399.374895	77.800000
3400.409281	57.100000
3401.444975	61.800000
3402.480529	57.900000
3403.513052	80.600000
3404.548327	78.100000
3405.580573	81.800000
3406.612680	72.400000
3407.643203	68.600000
3408.675033	65.500000
3409.706725	70.000000
3410.735389	56.000000
3411.763916	61.000000
3412.793749	51.300000
3413.823445	46.500000
3414.850115	78.300000
3415.878091	82.800000
3416.903044	49.900000
3417.930746	60.100000
3418.955424	74.200000
3419.981409	71.500000
3421.005815	74.400000
3422.030084	79.300000
3423.052774	68.400000
3424.075328	73.700000
3425.099188	53.700000
3426.120028	63.200000
3427.140732	61.500000
3428.162742	58.800000
3429.181734	58.600000
3430.200591	75.600000
3431.220754	53.900000
3432.237900	58.900000
