-117.018713	-1.900000
-114.349113	16.100000
-111.682448	0.900000
-109.016535	-11.300000
-106.353555	2.600000
-103.689144	-3.300000
-101.027664	11.800000
-98.364755	-6.100000
-95.706952	1.600000
-93.047720	-14.900000
-90.389236	20.000000
-87.733677	8.200000
-85.076688	-8.000000
-82.424798	12.300000
-79.771478	6.900000
-77.121077	-18.000000
-74.469248	2.600000
-71.822509	-1.700000
-69.174340	15.100000
-66.526914	8.700000
-63.882403	1.900000
-61.236462	11.100000
-58.595603	0.400000
-55.953315	-2.200000
-53.313936	7.600000
-50.673128	-8.100000
-48.033059	-11.200000
-45.398064	1.900000
-42.761639	5.800000
-40.128117	-13.400000
-37.493167	10.000000
-34.863283	-7.200000
-32.229805	-0.600000
-29.601390	5.500000
-26.973709	-12.400000
-24.344599	-6.200000
-21.720547	3.600000
-19.092904	-10.300000
-16.470316	24.200000
-13.848458	3.100000
-11.227331	-3.400000
-8.606935	-6.000000
-5.989426	5.700000
-3.370489	-6.500000
-0.754438	-6.600000
1.860886	1.000000
4.475481	6.600000
7.087195	5.400000
9.700337	-1.900000
12.308445	-2.200000
14.920134	18.000000
17.526793	-2.700000
20.134881	-7.000000
22.742243	-1.700000
25.344581	-18.900000
27.950498	-24.200000
30.551392	-0.300000
33.153714	-13.900000
35.751018	-1.000000
38.351899	-9.000000
40.947764	1.300000
43.545057	-15.200000
46.141632	-16.400000
48.733197	-2.900000
51.326190	-13.500000
53.916322	6.200000
56.507881	19.300000
59.096582	-1.000000
61.686709	-3.200000
64.271837	8.300000
66.858393	3.400000
69.444235	-3.500000
72.027222	1.300000
74.611637	15.500000
77.188923	-5.300000
79.769775	-19.600000
82.347778	5.300000
84.925070	-5.500000
87.503790	-10.300000
90.077527	0.900000
92.652691	-9.900000
95.225012	-21.000000
97.796626	13.900000
100.365399	-3.500000
102.935599	14.900000
105.502960	10.500000
108.071748	-1.400000
110.637699	1.500000
113.200815	-1.900000
115.767487	11.800000
118.324937	12.100000
120.888073	-15.500000
123.446250	7.700000
126.007981	-15.000000
128.564755	-1.100000
131.122955	-10.600000
133.676203	0.100000
136.228753	-6.600000
138.784853	-5.300000
141.336005	-9.700000
143.886460	-16.600000
146.436217	6.900000
148.983155	-10.900000
151.529398	9.000000
154.077066	-1.100000
156.624038	3.900000
159.166075	6.400000
161.707418	-13.700000
164.248068	7.400000
166.790144	-8.900000
169.329408	-10.300000
171.865863	6.900000
174.401628	-2.900000
176.938818	3.100000
179.475317	-2.800000
182.009010	9.400000
184.539899	11.100000
187.070100	-8.200000
189.601727	6.800000
192.130552	4.200000
194.656578	3.800000
197.181918	9.700000
199.708683	-1.100000
202.232652	-6.300000
204.755936	15.500000
207.278534	-0.700000
209.798340	13.100000
212.317463	-13.900000
214.835903	14.100000
217.355768	7.900000
219.868630	2.600000
222.385024	-6.600000
224.900737	-2.300000
227.411559	-0.800000
229.923806	0.700000
232.433270	15.500000
234.942056	-2.000000
237.450164	-11.000000
239.959696	-0.900000
242.464347	2.300000
244.968322	8.300000
247.473721	-1.000000
249.974245	-3.700000
252.478292	11.200000
254.975369	9.800000
257.475969	-3.800000
259.973797	-6.100000
262.470952	4.900000
264.967434	5.300000
267.459053	-7.500000
269.954192	12.500000
272.446564	12.900000
274.938266	-10.000000
277.427205	-0.600000
279.917567	2.700000
282.405168	6.500000
284.890009	-4.800000
287.378365	5.100000
289.859781	10.900000
292.344711	-22.600000
294.824796	8.500000
297.308393	-6.200000
299.787147	3.000000
302.267324	-8.800000
304.744750	-18.900000
307.221512	-19.400000
309.697610	7.700000
312.170960	5.000000
314.643649	-4.800000
317.115676	-16.600000
319.587041	-1.800000
322.055663	10.300000
324.523625	-0.100000
326.993010	0.900000
329.457572	0.200000
331.925638	2.400000
334.388883	20.900000
336.851472	-10.400000
339.313404	-3.900000
341.774679	10.900000
344.233219	-11.100000
346.693183	8.300000
349.150413	10.500000
351.606989	-8.400000
354.062911	2.900000
356.516103	-8.000000
358.970718	-4.400000
361.420531	-10.500000
363.873840	-4.400000
366.322350	-4.800000
368.770210	14.300000
371.219492	-5.400000
373.663979	7.700000
376.109890	6.400000
378.555150	-12.600000
380.997692	-17.400000
383.439586	4.000000
385.880832	-19.800000
388.319364	0.700000
390.759316	-4.100000
393.196555	2.000000
395.631083	2.700000
398.069097	10.600000
400.502336	-1.500000
402.936995	-10.100000
405.366882	-7.200000
407.800254	-3.300000
410.228856	0.200000
412.656816	2.900000
415.086198	-7.100000
417.510814	-4.100000
419.936852	-15.900000
422.362249	5.900000
424.787006	-6.500000
427.207004	10.000000
429.628424	-12.000000
432.047148	-11.100000
434.467292	-19.000000
436.884741	-4.100000
439.303610	-10.500000
441.719785	0.200000
444.131214	-10.400000
446.546119	-1.700000
448.958335	-8.900000
451.369916	16.400000
453.780863	-7.600000
456.189123	-2.100000
458.596752	4.300000
461.003748	-3.300000
463.410113	-17.000000
465.813795	10.400000
468.216847	-5.300000
470.619269	6.600000
473.021061	6.900000
475.420175	18.100000
477.820709	-13.100000
480.220614	16.200000
482.615797	-5.200000
485.014446	-4.700000
487.408374	-19.100000
489.801677	-0.800000
492.194355	3.300000
494.586407	-4.300000
496.979877	-8.200000
499.368635	-3.700000
501.754727	-8.200000
504.142239	6.700000
506.529128	5.600000
508.913352	5.500000
511.298996	-1.000000
513.681978	1.000000
516.062299	15.200000
518.444039	2.200000
520.823120	5.100000
523.203619	-0.700000
525.581462	-13.600000
527.956648	-9.700000
530.331218	-12.400000
532.707205	-6.000000
535.080540	-9.400000
537.455292	-11.900000
539.825358	4.000000
542.194810	-0.100000
544.565679	-10.500000
546.931867	-13.700000
549.299474	12.700000
551.664435	5.100000
554.028784	-2.000000
556.392519	-4.800000
558.757672	-0.600000
561.118153	-1.800000
563.480052	-3.600000
565.839310	-21.100000
568.195930	1.800000
570.555996	-3.900000
572.909370	-6.800000
575.266189	1.200000
577.620373	-13.500000
579.973948	6.700000
582.326916	-7.000000
584.677251	5.900000
587.029004	-7.600000
589.374080	3.800000
591.724619	-12.100000
594.068486	0.400000
596.417814	-1.700000
598.762493	-6.800000
601.104548	-7.700000
603.448020	5.900000
605.788869	8.600000
608.129115	9.800000
610.466741	-20.800000
612.807802	-6.500000
615.144226	2.300000
617.482066	-6.600000
619.817289	-4.700000
622.149895	-1.800000
624.483919	-18.400000
626.815328	11.700000
629.146139	-15.300000
631.476352	-0.800000
633.805968	-2.900000
636.130960	-8.700000
638.461394	11.000000
640.787207	0.300000
643.110412	-9.900000
645.435034	5.700000
647.757050	-7.000000
650.078472	1.800000
652.397291	-8.600000
654.717527	15.900000
657.037169	-17.900000
659.354210	20.200000
661.670659	0.400000
663.984510	2.000000
666.299777	-10.200000
668.612447	-1.700000
670.926532	-3.100000
673.236017	5.600000
675.546918	-1.500000
677.855226	6.700000
680.162946	3.000000
682.472080	-6.700000
684.776622	4.100000
687.080578	-3.900000
689.383948	9.900000
691.688732	-2.100000
693.988929	-4.300000
696.290542	11.000000
698.591569	-5.000000
700.888015	9.800000
703.185876	-2.600000
705.483153	2.400000
707.779847	1.800000
710.071965	-1.300000
712.367494	1.400000
714.658449	-7.600000
716.950819	-20.700000
719.240614	9.600000
721.529828	19.000000
723.818463	-10.300000
726.104525	-23.300000
728.392002	-9.700000
730.676907	11.500000
732.961235	-5.500000
735.242994	-7.100000
737.526167	-2.400000
739.808763	-15.300000
742.086803	5.100000
744.366257	4.300000
746.645136	20.200000
748.923440	-17.400000
751.197193	-16.000000
753.472361	3.700000
755.746955	8.900000
758.018990	-4.100000
760.292438	7.800000
762.563328	-13.500000
764.831662	5.100000
767.101409	-22.100000
769.368601	-10.300000
771.635224	1.700000
773.901276	23.500000
776.164777	13.800000
778.429691	6.000000
780.694035	2.500000
782.953850	5.100000
785.215077	-13.300000
787.475737	-7.800000
789.733851	-12.500000
791.989420	1.300000
794.248379	-3.400000
796.500840	14.600000
798.758668	0.800000
801.011977	15.800000
803.262746	-9.200000
805.514927	13.800000
807.764569	-13.200000
810.015623	-1.400000
812.262167	-14.900000
814.510122	-1.700000
816.755543	-4.600000
819.002375	-17.500000
821.248646	-17.500000
823.490412	-13.100000
825.735562	3.800000
827.974239	-6.200000
830.216298	9.500000
832.453859	-3.800000
834.692832	1.800000
836.929278	2.200000
839.167135	-11.100000
841.402467	4.500000
843.635276	-1.700000
845.869495	1.400000
848.101193	2.400000
850.332336	1.900000
852.562924	-12.900000
854.792958	3.900000
857.022438	-11.900000
859.247436	-7.500000
861.475808	-7.800000
863.699702	-2.200000
865.925007	5.500000
868.145836	13.300000
870.370037	-2.100000
872.589765	7.600000
874.810903	6.800000
877.031491	-6.400000
879.249570	-0.900000
881.469058	4.700000
883.684080	-11.300000
885.898554	5.200000
888.112481	3.800000
890.325861	-1.800000
892.538693	-27.600000
894.750978	-8.400000
896.960762	-14.200000
899.170000	10.900000
901.378693	-3.400000
903.584886	-2.200000
905.792489	3.700000
907.997595	11.900000
910.202157	-4.400000
912.404224	12.000000
914.607700	-18.700000
916.808682	17.800000
919.009122	-1.800000
921.210971	11.200000
923.406429	6.400000
925.605245	-4.000000
927.799624	-2.400000
929.997360	-1.600000
932.190660	-1.000000
934.385369	6.800000
936.577591	-13.800000
938.769276	3.400000
940.960423	-13.100000
943.149087	3.900000
945.337215	-10.900000
947.522861	-15.800000
949.711861	-14.700000
951.896437	12.700000
954.080478	-1.900000
956.267869	9.000000
958.446956	-13.500000
960.629394	-5.600000
962.811298	-1.900000
964.990727	-7.100000
967.167684	-8.900000
969.346049	-8.400000
971.525821	-7.500000
973.699244	-2.100000
975.876013	-17.300000
978.048375	9.700000
980.222145	-9.700000
982.391511	-10.700000
984.564221	-5.100000
986.734466	0.900000
988.904181	14.400000
991.073368	-20.400000
993.238158	-13.600000
995.406290	7.600000
997.570026	-4.100000
999.735170	-0.100000
1001.897854	-1.200000
1004.060013	18.200000
1006.219715	-21.100000
1008.378892	-6.200000
1010.539476	4.800000
1012.697605	7.700000
1014.855211	-2.600000
1017.012293	-10.600000
1019.168851	8.700000
1021.321030	-0.300000
1023.474616	-3.800000
1025.627680	15.900000
1027.778295	-13.500000
1029.930316	24.300000
1032.077965	-17.100000
1034.228945	3.300000
1036.375554	-2.200000
1038.521644	-17.200000
1040.667216	-16.800000
1042.814193	2.300000
1044.954881	-3.800000
1047.098898	-7.400000
1049.240476	-14.900000
1051.381536	-8.400000
1053.524002	-9.500000
1055.660187	4.500000
1057.799699	-10.100000
1059.934855	4.900000
1062.073336	9.700000
1064.207464	0.500000
1066.341078	2.900000
1068.476096	8.000000
1070.606766	-24.900000
1072.738840	-0.500000
1074.868485	-2.700000
1076.997617	-0.200000
1079.126239	-3.300000
1081.254349	13.500000
1083.380033	14.400000
1085.505207	7.800000
1087.631785	-0.600000
1089.754025	-4.400000
1091.877670	-13.300000
1093.996980	7.900000
1096.121519	-17.700000
1098.239814	-5.100000
1100.359512	0.200000
1102.476793	13.900000
1104.593566	-24.000000
1106.709833	5.100000
1108.823685	5.100000
1110.938940	-4.500000
1113.049873	15.100000
1115.164118	16.400000
1117.274042	-5.900000
1119.385370	2.100000
1121.496193	-15.600000
1123.602700	14.400000
1125.712516	-5.300000
1127.818019	9.100000
1129.924924	3.300000
1132.025614	1.600000
1134.131516	-12.000000
1136.233109	13.300000
1138.336105	-9.200000
1140.438600	3.400000
1142.534888	4.200000
1144.636383	-2.500000
1146.733576	-3.000000
1148.830271	18.900000
1150.926467	3.800000
1153.022165	-1.800000
1155.117366	-9.500000
1157.210170	-7.800000
1159.304376	0.700000
1161.392391	-0.200000
1163.485604	-21.700000
1165.572630	-12.500000
1167.662954	-12.300000
1169.748990	-2.600000
1171.838324	-5.100000
1173.921477	3.200000
1176.006033	-1.800000
1178.091990	3.800000
1180.173665	-14.200000
1182.256741	3.100000
1184.337432	0.700000
1186.417632	0.100000
1188.497340	4.600000
1190.576557	0.400000
1192.653391	-6.300000
1194.727845	5.800000
1196.805591	-7.200000
1198.879066	-5.900000
1200.953943	9.100000
1203.024552	11.900000
1205.096562	-13.800000
1207.166196	-6.000000
1209.237231	2.200000
1211.307779	-5.500000
1213.374065	-14.400000
1215.441752	14.600000
1217.507066	7.900000
1219.573781	-3.600000
1221.636241	-14.900000
1223.701985	1.600000
1225.763475	-5.700000
1227.826366	-1.400000
1229.886888	-12.600000
1231.946928	4.800000
1234.006484	-4.600000
1236.063676	-12.000000
1238.120385	-28.100000
1240.174732	-7.700000
1242.232360	-16.300000
1244.287624	4.900000
1246.338649	-11.000000
1248.391073	-3.400000
1250.443017	-1.800000
1252.492603	-16.800000
1254.541710	0.600000
1256.590338	11.200000
1258.638488	3.500000
1260.686160	-5.300000
1262.729601	14.900000
1264.776318	-4.300000
1266.820681	6.400000
1268.864568	-2.600000
1270.906103	4.800000
1272.945289	0.200000
1274.987748	-2.300000
1277.025984	-5.000000
1279.065619	-17.500000
1281.104778	-19.900000
1283.139720	3.200000
1285.176060	-3.000000
1287.210056	-16.400000
1289.245449	5.700000
1291.276629	-3.400000
1293.309208	-12.400000
1295.341315	-3.000000
1297.371081	10.500000
1299.402244	5.100000
1301.429200	8.500000
1303.457555	-6.000000
1305.481704	-12.400000
1307.509119	10.800000
1309.532331	7.900000
1311.556941	-0.400000
1313.579216	-0.800000
1315.602889	12.400000
1317.624229	8.300000
1319.645102	8.200000
1321.665507	-19.900000
1323.681719	-3.600000
1325.699328	18.100000
1327.714609	-6.300000
1329.733149	-4.600000
1331.747499	-11.400000
1333.759524	-14.800000
1335.774807	-2.900000
1337.785904	-1.700000
1339.798397	-5.000000
1341.806708	-12.000000
1343.818275	17.400000
1345.823803	-0.800000
1347.832586	-4.400000
1349.837191	10.400000
1351.845050	3.600000
1353.852447	-1.400000
1355.853813	1.100000
1357.856575	9.500000
1359.858878	-10.600000
1361.860721	4.200000
1363.862104	-6.900000
1365.861173	8.000000
1367.859785	3.600000
1369.857937	-2.600000
1371.855632	-1.100000
1373.849164	7.900000
1375.844091	-14.400000
1377.838562	2.000000
1379.832576	-4.200000
1381.824283	10.600000
1383.815534	-3.900000
1385.804480	2.000000
1387.794821	-1.000000
1389.784708	1.100000
1391.772290	-12.700000
1393.759419	8.300000
1395.744246	-11.300000
1397.730468	-7.100000
1399.714389	-3.000000
1401.697858	9.600000
1403.680875	-5.900000
1405.661594	6.000000
1407.643707	-20.900000
1409.623523	12.500000
1411.602889	-0.300000
1413.578116	8.400000
1415.556581	-3.200000
1417.532753	5.000000
1419.508475	-5.100000
1421.483749	8.600000
1423.456731	-3.000000
1425.429265	-3.300000
1427.401351	-0.400000
1429.372990	-13.500000
1431.340500	-3.300000
1433.313084	8.900000
1435.277862	-14.400000
1437.247713	6.800000
1439.213439	-4.500000
1441.180559	-4.100000
1443.145395	-4.200000
1445.106111	4.000000
1447.071895	-0.300000
1449.031724	-3.500000
1450.992947	7.800000
1452.955561	2.700000
1454.914061	-6.000000
1456.872119	4.200000
1458.829735	-17.200000
1460.786908	19.000000
1462.741806	-2.400000
1464.698097	-1.500000
1466.652113	-2.900000
1468.605688	-9.700000
1470.556991	-6.500000
1472.509686	-0.600000
1474.460110	-0.100000
1476.410095	9.200000
1478.359641	-8.200000
1480.306918	0.000000
1482.251927	0.500000
1484.198329	-7.200000
1486.144293	-6.300000
1488.089820	-2.000000
1490.033081	3.300000
1491.975906	8.600000
1493.916468	-2.700000
1495.858422	-4.700000
1497.798113	-5.000000
1499.737369	7.300000
1501.676191	-7.000000
1503.612753	3.900000
1505.550706	-12.700000
1507.486400	2.800000
1509.421661	-10.200000
1511.354665	8.200000
1513.287237	3.900000
1515.219377	2.200000
1517.151085	-15.100000
1519.080540	0.200000
1521.011385	-4.700000
1522.941798	6.800000
1524.868139	-8.800000
1526.795870	-7.900000
1528.721352	-5.200000
1530.646404	0.200000
1532.571027	-2.000000
1534.495220	-4.000000
1536.417167	-6.000000
1538.340504	7.500000
1540.261594	3.900000
1542.180440	12.100000
1544.100676	6.600000
1546.018668	8.000000
1547.936234	3.300000
1549.851559	7.900000
1551.768273	4.200000
1553.680932	-0.200000
1555.596794	-2.800000
1557.510418	-6.100000
1559.421803	2.800000
1561.334578	-8.000000
1563.243303	-16.000000
1565.153417	17.800000
1567.063108	-16.500000
1568.972376	-0.900000
1570.879409	-11.700000
1572.784210	6.300000
1574.690400	1.400000
1576.594359	9.700000
1578.497896	10.700000
1580.401013	6.600000
1582.301900	4.400000
1584.204176	9.000000
1586.104223	-3.400000
1588.005659	-2.800000
1589.903061	6.100000
1591.800044	5.400000
1593.696609	3.500000
1595.594561	-2.800000
1597.486679	-18.000000
1599.381991	-2.400000
1601.276885	-8.900000
1603.169557	1.500000
1605.061812	-5.200000
1606.951848	16.500000
1608.841468	3.800000
1610.730673	3.400000
1612.619462	-0.800000
1614.506035	1.100000
1616.393995	-1.800000
1618.277938	7.500000
1620.163268	8.500000
1622.048185	8.900000
1623.930888	-4.000000
1625.814978	-4.000000
1627.695056	-6.500000
1629.576522	-4.300000
1631.455776	-8.400000
1633.336418	-6.900000
1635.211255	-16.400000
1637.091073	-7.000000
1638.966887	-13.300000
1640.842290	14.000000
1642.719079	-7.000000
1644.590071	5.800000
1646.464246	-2.300000
1648.334421	-2.900000
1650.207777	-16.000000
1652.078930	9.700000
1653.947881	11.600000
1655.818218	-2.000000
1657.684562	11.300000
1659.552291	-1.800000
1661.417821	-0.900000
1663.284737	6.000000
1665.147663	-3.000000
1667.011976	9.200000
1668.874092	-13.500000
1670.735803	28.800000
1672.598899	-0.300000
1674.459801	19.100000
1676.318510	-9.200000
1678.176815	8.100000
1680.036504	18.100000
1681.890427	8.100000
1683.747523	-20.500000
1685.604215	2.200000
1687.456932	0.200000
1689.312820	3.800000
1691.164734	11.900000
1693.016247	-0.700000
1694.867359	-4.600000
1696.718070	-7.300000
1698.568381	-12.100000
1700.416508	9.900000
1702.266019	3.600000
1704.109780	-16.800000
1705.958492	14.500000
1707.801457	17.400000
1709.647588	-1.000000
1711.489758	-15.100000
1713.335093	-5.600000
1715.174687	-3.900000
1717.015665	0.500000
1718.858026	1.300000
1720.696430	-0.300000
1722.536218	-5.200000
1724.373831	-0.700000
1726.211049	3.400000
1728.046093	-13.800000
1729.882520	7.600000
1731.716774	-19.000000
1733.550635	-10.200000
1735.384101	4.900000
1737.213621	-1.100000
1739.046301	-15.900000
1740.875035	8.800000
1742.706928	-8.600000
1744.534878	-1.400000
1746.362436	2.700000
1748.189603	-2.300000
1750.016378	-10.300000
1751.842761	-4.700000
1753.665208	-5.300000
1755.490810	-4.600000
1757.312477	2.100000
1759.135525	3.800000
1760.956413	-0.900000
1762.776912	5.200000
1764.598791	-12.900000
1766.414971	8.600000
1768.234303	-1.100000
1770.049708	4.200000
1771.868264	-8.700000
1773.682894	14.300000
1775.497137	-27.200000
1777.310994	-3.600000
1779.124464	-27.000000
1780.935780	-2.600000
1782.748478	-0.400000
1784.560790	11.200000
1786.369183	0.600000
1788.178958	5.000000
1789.984818	-5.400000
1791.793823	1.100000
1793.598915	0.700000
1795.405388	-1.800000
1797.211476	-7.900000
1799.013655	1.000000
1800.818978	11.400000
1802.620391	-7.600000
1804.423186	-14.200000
1806.222074	6.800000
1808.022343	4.200000
1809.822230	7.200000
1811.619975	-3.600000
1813.417340	1.500000
1815.214324	-10.500000
1817.010929	-18.400000
1818.805393	2.000000
1820.601238	-2.700000
1822.391427	-6.100000
1824.186513	1.700000
1825.975946	-11.100000
1827.768517	8.700000
1829.558952	-5.900000
1831.347252	3.200000
1833.138688	-8.200000
1834.924479	-5.500000
1836.711649	-13.100000
1838.496687	-13.000000
1840.284858	-9.700000
1842.069145	-7.200000
1843.851301	0.700000
1845.634837	-0.900000
1847.416244	3.700000
1849.199029	4.700000
1850.977935	-15.700000
1852.758219	4.200000
1854.536378	-16.200000
1856.315914	9.700000
1858.093326	7.000000
1859.868615	-8.900000
1861.645281	-14.600000
1863.419825	3.800000
1865.195746	5.100000
1866.966048	7.300000
1868.739477	-1.700000
1870.510786	-8.600000
1872.281724	5.200000
1874.054040	-6.500000
1875.820742	0.200000
1877.590569	-0.300000
1879.356533	-11.900000
1881.125621	-19.000000
1882.890847	0.800000
1884.655705	-8.300000
1886.421939	-12.000000
1888.184316	-14.100000
1889.946324	-19.300000
1891.707966	-0.400000
1893.469240	-3.600000
1895.230148	-6.300000
1896.990688	0.700000
1898.749120	10.200000
1900.507185	10.600000
1902.263143	1.100000
1904.020477	-5.500000
1905.777446	1.800000
1907.532308	-9.600000
1909.285066	4.400000
1911.037459	0.400000
1912.791229	-4.100000
1914.542895	-4.100000
1916.292458	-5.000000
1918.043398	-4.100000
1919.793974	9.300000
1921.540712	10.800000
1923.288825	27.700000
1925.034840	-14.500000
1926.782229	10.200000
1928.527520	-12.900000
1930.270715	5.700000
1932.015284	4.400000
1933.757757	0.500000
1935.499871	-21.800000
1937.241624	17.300000
1938.983017	-7.000000
1940.722317	17.700000
1942.461258	-2.200000
1944.199840	18.900000
1945.936331	3.400000
1947.672463	3.250000
1949.409971	3.100000
1951.143656	3.600000
1952.878716	-12.000000
1954.611687	-12.500000
1956.344302	-7.300000
1958.076560	15.500000
1959.808462	9.900000
1961.538279	7.700000
1963.266010	-2.100000
1964.995116	9.500000
1966.723866	-9.700000
1968.450533	7.500000
1970.176846	-18.100000
1971.904533	11.900000
1973.626683	3.400000
1975.351934	-3.400000
1977.073378	-3.800000
1978.797922	1.200000
1980.520387	11.400000
1982.239048	-8.800000
1983.960809	-9.000000
1985.678767	3.700000
1987.398098	2.100000
1989.113630	-1.900000
1990.833982	-8.300000
1992.550536	4.700000
1994.263293	-14.400000
1995.979146	3.000000
1997.692927	11.700000
1999.406358	-4.900000
2001.117718	11.100000
2002.830450	0.900000
2004.539392	11.700000
2006.251426	3.500000
2007.957951	-13.700000
2009.667569	-4.900000
2011.375119	-5.800000
2013.082322	5.200000
2014.787459	-16.200000
2016.492250	2.300000
2018.198412	0.700000
2019.900791	-0.900000
2021.604543	-13.300000
2023.306232	-14.200000
2025.007575	-4.600000
2026.708574	-3.800000
2028.407511	-0.700000
2030.107820	-1.700000
2031.804353	-11.000000
2033.502258	14.400000
2035.198105	-14.100000
2036.897037	23.200000
2038.590483	-5.400000
2040.285300	6.300000
2041.979774	5.900000
2043.670481	10.900000
2045.364270	-10.700000
2047.054294	3.900000
2048.745688	-3.400000
2050.435028	1.000000
2052.125740	2.200000
2053.812688	-3.200000
2055.499296	-24.200000
2057.187275	1.600000
2058.871494	3.700000
2060.557083	-18.200000
2062.242333	-8.400000
2063.925535	17.200000
2065.610107	-2.800000
2067.289215	19.600000
2068.973110	-18.500000
2070.651543	14.200000
2072.333054	12.700000
2074.010813	6.900000
2075.688236	-1.900000
2077.367028	7.300000
2079.043777	1.400000
2080.718485	0.200000
2082.394563	-9.100000
2084.068599	7.700000
2085.742301	0.200000
2087.415667	1.200000
2089.086994	-7.600000
2090.757987	4.700000
2092.428646	-19.500000
2094.098971	3.500000
2095.768962	-7.600000
2097.436917	-4.500000
2099.104538	-12.900000
2100.770126	12.800000
2102.437082	0.300000
2104.102005	17.500000
2105.766596	-14.800000
2107.429155	7.100000
2109.093082	-8.200000
2110.754978	9.900000
2112.416544	1.200000
2114.077778	-8.500000
2115.736983	-12.400000
2117.395859	-0.600000
2119.054405	-5.700000
2120.712620	12.200000
2122.367113	-14.900000
2124.024670	1.600000
2125.681897	-3.600000
2127.335404	-5.000000
2128.990278	3.400000
2130.641433	-3.600000
2132.295651	-8.000000
2133.946151	2.300000
2135.598019	6.900000
2137.244478	-4.100000
2138.895691	13.500000
2140.543192	3.100000
2142.192059	-1.100000
2143.838907	20.100000
2145.485430	-2.800000
2147.131627	1.800000
2148.774116	-8.800000
2150.419662	-3.000000
2152.061502	-6.800000
2153.706399	13.100000
2155.347591	-0.700000
2156.988459	12.900000
2158.629004	-6.000000
2160.267536	-14.600000
2161.907434	-3.500000
2163.543632	-0.600000
2165.181196	-10.900000
2166.818438	12.100000
2168.453670	-10.100000
2170.088580	-15.000000
2171.723169	3.400000
2173.357437	6.600000
2174.988011	2.900000
2176.621637	0.900000
2178.251571	-1.300000
2179.882870	27.700000
2181.512164	-10.000000
2183.141139	9.200000
2184.769794	0.400000
2186.398130	3.500000
2188.024463	3.300000
2189.650478	13.800000
2191.274492	-0.200000
2192.899871	-1.200000
2194.523249	15.000000
2196.147992	3.000000
2197.769054	-17.100000
2199.389799	3.700000
2201.011908	-5.200000
2202.632020	-15.300000
2204.250136	3.800000
2205.867936	-1.000000
2207.485420	12.800000
2209.102590	-10.800000
2210.719443	-3.000000
2212.335982	4.400000
2213.950528	-7.000000
2215.563081	9.500000
2217.176998	-4.000000
2218.788924	6.000000
2220.402213	-6.000000
2222.013512	-4.000000
2223.622821	-14.000000
2225.233493	-11.700000
2226.842177	-0.600000
2228.450549	13.200000
2230.056934	6.100000
2231.664681	-0.300000
2233.270443	-10.800000
2234.875893	5.000000
2236.479358	-0.700000
2238.084186	-18.300000
2239.687030	-20.400000
2241.287891	-3.300000
2242.890115	-5.800000
2244.490357	9.100000
2246.091961	-10.300000
2247.689912	9.900000
2249.289226	6.500000
2250.886560	3.400000
2252.483586	-8.500000
2254.081973	-11.100000
2255.676713	-4.800000
2257.269475	5.300000
2258.863600	10.500000
2260.459086	-6.200000
2262.050927	-19.300000
2263.642462	13.100000
2265.235359	-10.100000
2266.822946	-15.800000
2268.415229	-0.500000
2270.002205	-11.000000
2271.592210	-19.100000
2273.176910	-9.200000
2274.766304	-9.700000
2276.350395	1.700000
2277.935848	-8.800000
2279.519332	4.600000
2281.105841	-0.300000
2282.688717	1.800000
2284.271290	-11.300000
2285.853559	-3.200000
2287.432198	-3.900000
2289.013862	1.500000
2290.591897	-12.100000
2292.172955	-0.300000
2293.750386	1.500000
2295.325854	3.300000
2296.904344	-5.900000
2298.479210	4.100000
2300.053775	2.400000
2301.628039	-16.600000
2303.202003	-13.300000
2304.775667	-6.200000
2306.349031	-3.000000
2307.918776	-11.400000
2309.488222	-7.800000
2311.060686	-6.100000
2312.627876	4.500000
2314.198083	-5.600000
2315.764677	1.300000
2317.332629	4.900000
2318.898627	0.800000
2320.464327	8.000000
2322.029729	10.000000
2323.593178	11.900000
2325.157986	11.200000
2326.719186	-0.500000
2328.283399	-6.700000
2329.842352	-5.500000
2331.404318	0.700000
2332.964334	8.500000
2334.524054	6.800000
2336.081826	3.200000
2337.639302	-6.300000
2339.196484	-12.900000
2340.751718	-2.100000
2342.306659	3.200000
2343.861305	-13.100000
2345.415658	-2.600000
2346.969717	0.600000
2348.523483	-4.100000
2350.075304	8.100000
2351.625182	1.500000
2353.178069	-16.500000
2354.725712	-7.600000
2356.276364	-3.000000
2357.823424	-5.200000
2359.371842	5.300000
2360.919969	-10.400000
2362.464507	-11.100000
2364.010403	5.400000
2365.554361	-5.700000
2367.099675	17.900000
2368.641405	-14.400000
2370.184493	-10.200000
2371.725644	-1.300000
2373.266506	8.400000
2374.807079	-11.600000
2376.347363	6.000000
2377.887358	0.900000
2379.423774	0.000000
2380.963192	-14.700000
2382.499033	-6.700000
2384.036231	2.800000
2385.569853	-9.400000
2387.106475	0.100000
2388.641167	-11.200000
2390.173929	12.400000
2391.706404	2.600000
2393.236951	2.600000
2394.770496	2.500000
2396.298830	3.400000
2397.828520	11.800000
2399.357925	4.000000
2400.887045	1.100000
2402.415879	2.700000
2403.939509	8.200000
2405.467774	-13.900000
2406.990837	-5.900000
2408.518533	9.100000
2410.039390	21.600000
2411.564879	3.000000
2413.086809	11.700000
2414.610093	-15.400000
2416.131457	-3.900000
2417.650901	-2.300000
2419.171700	-4.200000
2420.690580	7.500000
2422.209179	-1.100000
2423.725859	-7.900000
2425.243895	1.000000
2426.761649	-9.300000
2428.275851	13.800000
2429.789774	1.700000
2431.303416	-3.700000
2432.818412	-6.400000
2434.329861	-4.800000
2435.842663	-13.000000
2437.353553	-7.500000
2438.864164	-7.100000
2440.372863	4.500000
2441.884548	-6.600000
2443.392690	11.800000
2444.900554	6.200000
2446.408139	5.300000
2447.912185	5.900000
2449.419215	1.800000
2450.924337	5.900000
2452.429182	-7.700000
2453.932120	-5.100000
2455.434782	5.900000
2456.937167	-11.000000
2458.437647	-3.400000
2459.939480	-8.700000
2461.439408	-10.000000
2462.939061	7.400000
2464.438439	-7.500000
2465.935914	-7.500000
2467.431487	26.600000
2468.930040	3.800000
2470.425065	-1.000000
2471.921442	6.400000
2473.414293	13.600000
2474.908497	1.200000
2476.402427	-1.200000
2477.892833	-3.800000
2479.386217	9.000000
2480.877703	-13.200000
2482.367292	2.300000
2483.856609	0.900000
2485.344030	-5.500000
2486.834427	-12.400000
2488.321306	-5.900000
2489.809536	-18.600000
2491.294249	-7.000000
2492.778692	5.700000
2494.264487	6.500000
2495.748390	5.100000
2497.233643	-0.900000
2498.713763	-3.800000
2500.196856	4.900000
2501.678058	-9.400000
2503.158991	0.400000
2504.638035	4.300000
2506.116810	6.700000
2507.595317	1.700000
2509.073555	-11.100000
2510.551526	-14.500000
2512.025991	0.100000
2513.503426	0.300000
2514.977356	14.200000
2516.452638	-9.400000
2517.927652	4.800000
2519.399165	-9.200000
2520.872029	6.100000
2522.343010	-10.400000
2523.815341	6.300000
2525.282558	-5.500000
2526.752742	6.000000
2528.221045	-17.000000
2529.689083	9.300000
2531.156855	-1.200000
2532.624363	3.700000
2534.091607	-5.600000
2535.555358	-8.300000
2537.020459	-5.700000
2538.483683	4.800000
2539.948256	-8.600000
2541.409341	-11.100000
2542.871775	-8.700000
2544.333946	6.100000
2545.792630	9.900000
2547.255887	6.000000
2548.714047	-8.800000
2550.173557	1.600000
2551.627972	12.700000
2553.086958	0.400000
2554.544072	-6.700000
2555.999314	3.400000
2557.454296	0.700000
2558.907408	0.100000
2560.361869	-0.400000
2561.814461	0.900000
2563.266793	-2.900000
2564.717257	-6.600000
2566.170678	-16.000000
2567.619016	1.600000
2569.070309	-8.700000
2570.519737	-17.900000
2571.965692	6.600000
2573.414602	11.300000
2574.860042	1.200000
2576.306829	10.800000
2577.751753	2.300000
2579.196420	8.400000
2580.642434	-20.600000
2582.084982	-0.800000
2583.528876	-8.600000
2584.969306	3.900000
2586.411084	3.800000
2587.851002	-6.200000
2589.292267	-3.000000
2590.730070	3.900000
2592.170823	-18.300000
2593.606514	8.700000
2595.045153	-8.700000
2596.481936	2.700000
2597.916863	5.400000
2599.354737	8.600000
2600.787554	-7.400000
2602.221718	2.200000
2603.654028	-12.900000
2605.087684	-12.700000
2606.519487	-15.800000
2607.951036	-0.700000
2609.382332	1.700000
2610.811777	20.300000
2612.240969	-4.100000
2613.668310	0.800000
2615.096998	-8.900000
2616.525433	-1.200000
2617.950422	-1.700000
2619.376756	-7.700000
2620.801243	-12.600000
2622.227075	-8.800000
2623.649463	8.600000
2625.073196	0.000000
2626.495084	-1.500000
2627.916721	-1.900000
2629.336514	-23.800000
2630.757652	20.400000
2632.178540	-5.400000
2633.595989	7.500000
2635.016378	-12.800000
2636.433330	6.600000
2637.850034	11.300000
2639.266489	7.100000
2640.682696	10.900000
2642.098655	-1.400000
2643.512773	5.500000
2644.926643	30.000000
2646.338674	-1.100000
2647.752050	6.400000
2649.161996	-10.600000
2650.574878	-27.100000
2651.984331	0.700000
2653.393538	4.400000
2654.800909	3.800000
2656.211214	12.900000
2657.619683	4.200000
2659.026318	1.800000
2660.432707	-8.100000
2661.837262	8.800000
2663.243161	-7.600000
2664.647227	-3.200000
2666.051048	0.500000
2667.454625	-12.500000
2668.856371	-15.900000
2670.259460	7.800000
2671.659131	-7.200000
2673.060146	4.400000
2674.457745	-6.500000
2675.858273	1.200000
2677.255387	0.800000
2678.653844	-6.000000
2680.050474	-15.100000
2681.446861	0.900000
2682.843006	-9.600000
2684.237325	11.300000
2685.632987	-3.200000
2687.025240	7.100000
2688.418835	1.700000
2689.810606	6.100000
2691.203720	-1.700000
2692.595010	-11.500000
2693.984477	-18.100000
2695.373704	5.400000
2696.762692	-5.800000
2698.153021	-11.000000
2699.538367	-0.200000
2700.926636	10.000000
2702.313085	-6.200000
2703.699295	-3.800000
2705.085266	-14.000000
2706.467839	-7.300000
2707.851754	-3.100000
2709.235430	-6.400000
2710.618869	-1.400000
2711.998912	14.200000
2713.380297	5.900000
2714.759867	4.700000
2716.140777	-12.600000
2717.519873	-4.200000
2718.897155	-0.700000
2720.275778	19.800000
2721.652587	-15.700000
2723.029161	-1.900000
2724.405499	1.300000
2725.780025	-3.200000
2727.155892	2.600000
2728.528373	9.000000
2729.903769	4.100000
2731.274205	17.100000
2732.645981	12.900000
2734.017524	10.300000
2735.387258	-2.700000
2736.758332	4.400000
2738.127599	-5.200000
2739.496632	-7.700000
2740.863859	-1.800000
2742.230852	4.000000
2743.597613	6.200000
2744.964141	4.600000
2746.328865	-6.500000
2747.693356	-6.000000
2749.057616	-5.500000
2750.421643	3.500000
2751.785438	12.600000
2753.145861	11.100000
2754.509193	-15.600000
2755.867583	-7.600000
2757.228883	-13.600000
2758.586813	6.600000
2759.947651	-15.200000
2761.306689	5.400000
2762.662360	-14.000000
2764.020938	11.500000
2765.376149	-25.500000
2766.731131	0.000000
2768.084316	-2.000000
2769.440408	-2.100000
2770.793136	-2.100000
2772.145636	-19.700000
2773.497907	-9.400000
2774.851516	6.100000
2776.201765	-1.600000
2777.550219	-4.300000
2778.901578	1.200000
2780.249579	3.700000
2781.598917	-23.500000
2782.946463	11.500000
2784.293783	-11.200000
2785.640875	1.300000
2786.986177	1.200000
2788.331253	2.100000
2789.676103	-6.100000
2791.020727	9.500000
2792.361999	-19.900000
2793.704608	-7.400000
2795.046993	8.200000
2796.389152	10.100000
2797.727962	-9.200000
2799.069672	1.900000
2800.408033	0.400000
2801.747732	-4.600000
2803.085646	8.800000
2804.421774	8.300000
2805.757680	-0.200000
2807.094923	2.000000
2808.430382	-18.200000
2809.765617	2.400000
2811.099071	-5.700000
2812.433861	5.600000
2813.765311	4.800000
2815.099656	-11.900000
2816.429102	-3.400000
2817.759886	-0.200000
2819.090449	3.500000
2820.419232	18.800000
2821.749351	-13.500000
2823.077692	-30.000000
2824.405812	-9.400000
2825.732154	19.900000
2827.059832	-13.500000
2828.384178	7.600000
2829.709860	-13.400000
2831.033766	2.900000
2832.357452	-18.000000
2833.682474	0.600000
2835.004167	-9.500000
2836.325641	6.500000
2837.646895	-3.000000
2838.967932	2.100000
2840.287195	15.600000
2841.607794	-5.900000
2842.926621	0.100000
2844.245231	-5.700000
2845.562069	-0.500000
2846.878690	3.900000
2848.195094	-3.100000
2849.509728	10.300000
2850.825697	-9.600000
2852.138347	2.600000
2853.452331	-15.900000
2854.766099	-20.500000
2856.079650	2.400000
2857.391435	-7.900000
2858.701453	-14.600000
2860.012806	1.900000
2861.320844	-10.500000
2862.630216	9.500000
2863.939373	1.500000
2865.248316	15.000000
2866.555494	-15.100000
2867.860910	-11.300000
2869.167659	-14.800000
2870.472647	-3.800000
2871.777420	-22.300000
2873.080433	18.200000
2874.386326	9.100000
2875.687365	-0.100000
2876.989737	5.300000
2878.290351	2.300000
2879.592297	-11.400000
2880.894031	24.200000
2882.192461	-16.700000
2883.492224	-9.400000
2884.790230	-0.100000
2886.088024	-11.500000
2887.384062	-3.400000
2888.681432	-6.400000
2889.977048	-7.700000
2891.272452	-1.600000
2892.567645	-0.500000
2893.859541	7.400000
2895.154312	-7.500000
2896.445788	-6.900000
2897.738596	-0.700000
2899.031194	-1.200000
2900.320497	-18.300000
2901.611134	-6.500000
2902.900019	-14.200000
2904.190236	-1.700000
2905.477162	-9.200000
2906.765420	-7.500000
2908.051929	4.800000
2909.338229	5.400000
2910.624321	-6.100000
2911.908665	8.100000
2913.195881	-5.400000
2914.478270	-5.300000
2915.761991	-5.300000
2917.043965	-11.800000
2918.325733	-7.700000
2919.605755	3.300000
2920.888648	-3.000000
2922.169794	-3.600000
2923.447659	-15.000000
2924.728393	-8.700000
2926.005847	9.000000
2927.283094	-10.000000
2928.558599	6.100000
2929.836972	14.700000
2931.110531	-1.900000
2932.386957	4.300000
2933.661642	-11.600000
2934.934586	-6.200000
2936.208862	-19.400000
2937.481398	15.100000
2938.753729	-2.900000
2940.022788	-3.600000
2941.294712	3.700000
2942.564898	4.500000
2943.834880	-19.300000
2945.104659	0.300000
2946.372702	-9.900000
2947.639008	7.500000
2948.905112	-3.900000
2950.172547	-15.000000
2951.438246	-11.800000
2952.703744	2.600000
2953.969039	5.900000
2955.231069	-9.700000
2956.494429	3.300000
2957.757588	3.600000
2959.019015	-6.400000
2960.281771	2.300000
2961.542795	-4.800000
2962.802089	9.200000
2964.061182	-13.000000
2965.320076	-2.600000
2966.578769	0.600000
2967.837261	-3.500000
2969.094025	-12.900000
2970.350590	-0.300000
2971.605426	5.400000
2972.861592	2.300000
2974.114503	9.700000
2975.368742	9.700000
2976.622783	-1.100000
2977.875098	0.600000
2979.127215	-5.000000
2980.377607	-1.400000
2981.630854	-4.800000
2982.879324	3.200000
2984.130649	-18.400000
2985.378724	19.600000
2986.626602	-2.200000
2987.874284	6.900000
2989.121768	-19.300000
2990.367531	0.300000
2991.613098	0.000000
2992.859992	-8.300000
2994.103642	-16.300000
2995.348619	-0.200000
2996.590354	-11.400000
2997.834940	-2.200000
2999.077807	2.800000
3000.317433	-10.100000
3001.559909	-13.300000
3002.799145	-12.600000
3004.039709	-22.500000
3005.278556	9.600000
3006.517209	-13.600000
3007.754146	-1.600000
3008.992411	-8.300000
3010.228960	0.100000
3011.465316	-5.500000
3012.701478	4.700000
3013.935926	2.300000
3015.170181	14.000000
3016.404244	0.600000
3017.636593	-8.400000
3018.867231	-10.400000
3020.100715	-2.100000
3021.332488	7.500000
3022.562549	4.300000
3023.792419	8.800000
3025.020579	-6.400000
3026.250066	4.500000
3027.477843	2.200000
3028.705429	-9.400000
3029.934341	8.300000
3031.158511	-3.500000
3032.385524	0.800000
3033.609314	8.700000
3034.834429	5.000000
3036.057839	9.800000
3037.281058	7.600000
3038.502572	-20.800000
3039.726927	-5.700000
3040.946547	1.500000
3042.167493	-3.000000
3043.388249	3.000000
3044.607303	-8.400000
3045.827681	-19.500000
3047.044843	13.800000
3048.263330	-6.200000
3049.480116	3.600000
3050.696713	-5.000000
3051.913123	10.600000
3053.126319	-11.100000
3054.342353	-6.100000
3055.555175	18.500000
3056.770834	16.300000
3057.981771	-26.800000
3059.194032	3.700000
3060.406106	-13.100000
3061.617994	15.200000
3062.828185	6.100000
3064.038189	-9.400000
3065.248007	7.100000
3066.456129	26.200000
3067.664066	3.400000
3068.870307	15.300000
3070.077873	-7.200000
3071.283744	-8.600000
3072.489430	-10.000000
3073.694932	-6.700000
3074.898740	-2.300000
3076.103872	-14.800000
3077.307311	10.100000
3078.509059	-12.300000
3079.710622	-8.000000
3080.912002	4.000000
3082.113198	-10.000000
3083.312704	7.300000
3084.512027	3.800000
3085.712673	5.900000
3086.911629	-7.500000
3088.107391	-0.900000
3089.305981	-6.500000
3090.501378	5.200000
3091.698099	-7.000000
3092.891627	-9.000000
3094.087983	1.700000
3095.282652	1.700000
3096.474131	-14.900000
3097.669942	10.700000
3098.861058	14.800000
3100.053498	-7.400000
3101.242749	9.000000
3102.434827	4.500000
3103.625221	-19.300000
3104.812429	1.300000
3106.000959	-5.300000
3107.190812	-7.200000
3108.377480	-1.600000
3109.563969	3.000000
3110.750279	-0.300000
3111.937910	15.200000
3113.122359	10.900000
3114.305129	3.600000
3115.490721	0.300000
3116.674634	-2.600000
3117.856867	-1.000000
3119.038923	-11.000000
3120.220800	4.800000
3121.402499	-15.800000
3122.582521	18.600000
3123.760866	7.500000
3124.942031	-1.200000
3126.120021	-1.800000
3127.297834	-5.000000
3128.475470	-14.400000
3129.651431	-12.400000
3130.827216	-12.200000
3132.004321	-1.300000
3133.179753	0.600000
3134.353511	-0.800000
3135.525596	0.400000
3136.699003	-18.000000
3137.872233	12.500000
3139.043792	-8.000000
3140.216671	21.200000
3141.386383	-8.000000
3142.557416	2.600000
3143.726778	3.900000
3144.894471	-1.200000
3146.064979	-1.700000
3147.230829	9.300000
3148.400987	-0.900000
3149.566488	10.800000
3150.731816	-4.500000
3151.896970	-1.100000
3153.061951	-14.800000
3154.228251	17.500000
3155.389898	9.900000
3156.552866	-15.300000
3157.715661	-2.200000
3158.878283	-12.700000
3160.039239	-8.100000
3161.200024	-0.600000
3162.360636	-0.100000
3163.519584	-0.200000
3164.678361	9.700000
3165.836965	0.100000
3166.995398	6.800000
3168.153660	6.700000
3169.310259	-10.800000
3170.465197	-8.500000
3171.621454	3.800000
3172.776050	22.700000
3173.930476	-3.200000
3175.083242	-5.000000
3176.235837	-0.500000
3177.388263	-0.100000
3178.540518	-14.500000
3179.692604	-4.900000
3180.841543	-7.900000
3181.993289	-9.800000
3183.143378	-13.400000
3184.291810	-3.300000
3185.440072	-5.300000
3186.588166	4.500000
3187.736091	-6.500000
3188.882360	1.800000
3190.028461	-11.200000
3191.172908	-3.500000
3192.317187	-8.500000
3193.461297	-5.300000
3194.606726	-6.000000
3195.749016	5.200000
3196.891139	-18.200000
3198.033094	4.400000
3199.174882	-17.800000
3200.316503	-5.500000
3201.454989	9.700000
3202.594792	-19.600000
3203.735912	-3.600000
3204.873899	-3.700000
3206.010235	-9.700000
3207.146407	-1.400000
3208.283895	-4.600000
3209.419735	-1.100000
3210.556892	-9.600000
3211.689436	7.200000
3212.826261	0.100000
3213.958476	8.000000
3215.092007	-21.000000
3216.225373	-12.500000
3217.355613	-5.600000
3218.488650	-1.200000
3219.618561	-15.400000
3220.749788	-10.600000
3221.877891	-11.800000
3223.008790	6.900000
3224.138045	-22.300000
3225.265657	-7.200000
3226.390146	5.800000
3227.518911	2.500000
3228.644554	-0.400000
3229.770034	-11.300000
3230.893873	-17.800000
3232.020507	5.900000
3233.142543	-4.600000
3234.265895	11.500000
3235.389085	-2.900000
3236.512112	-4.300000
3237.633501	0.900000
3238.754727	2.500000
3239.874315	0.500000
3240.993742	-1.700000
3242.111532	-10.100000
3243.232113	-10.900000
3244.349581	-9.400000
3245.466888	8.900000
3246.584035	-11.100000
3247.699545	18.400000
3248.816371	3.000000
3249.930087	-3.700000
3251.046592	-1.400000
3252.161462	12.900000
3253.273224	1.300000
3254.384827	-21.000000
3255.497745	2.600000
3256.610503	18.600000
3257.720155	-3.400000
3258.831122	3.400000
3259.941930	10.700000
3261.051106	-3.800000
3262.158651	-3.300000
3263.267511	-10.500000
3264.376212	-8.300000
3265.481811	19.500000
3266.588725	7.700000
3267.694009	-5.300000
3268.800607	-7.200000
3269.904105	4.700000
3271.008917	-12.100000
3272.113572	-10.300000
3273.215129	-11.000000
3274.316529	7.700000
3275.419243	-10.300000
3276.521801	-12.200000
3277.621262	8.900000
3278.723507	4.500000
3279.822656	-25.800000
3280.920180	3.600000
3282.017550	-3.300000
3283.117701	14.700000
3284.214760	-11.800000
3285.311663	0.300000
3286.408411	-1.000000
3287.500600	-11.500000
3288.597039	-2.200000
3289.691855	-1.500000
3290.786517	-3.300000
3291.879556	-1.700000
3292.972442	-13.600000
3294.063707	4.300000
3295.156285	-1.700000
3296.247243	-5.800000
3297.336581	0.200000
3298.425766	-7.100000
3299.516263	0.900000
3300.603677	4.300000
3301.690937	6.900000
3302.779510	-10.100000
3303.867930	-11.700000
3304.951804	1.000000
3306.039919	3.500000
3307.124952	11.400000
3308.208370	-25.100000
3309.293100	-0.700000
3310.376214	-18.600000
3311.460641	-5.800000
3312.541989	-12.200000
3313.624649	-5.600000
3314.705694	-9.900000
3315.786589	18.600000
3316.865871	-4.000000
3317.945002	7.100000
3319.025445	2.300000
3320.102813	3.700000
3321.181493	-3.000000
3322.258561	2.700000
3323.335479	12.800000
3324.410787	5.200000
3325.485945	-0.300000
3326.562414	-8.700000
3327.635813	-1.100000
3328.709062	-6.400000
3329.783623	-16.100000
3330.856575	3.800000
3331.927918	-16.400000
3333.000572	2.900000
3334.070159	0.100000
3335.141058	-3.000000
3336.210349	-5.000000
3337.280950	10.700000
3338.349946	1.800000
3339.417335	0.700000
3340.483119	2.100000
3341.553129	-4.700000
3342.620076	-10.200000
3343.683961	-13.200000
3344.750613	1.000000
3345.815662	17.300000
3346.879107	-15.000000
3347.942406	-2.700000
3349.005558	3.700000
3350.068564	0.600000
3351.131424	-11.400000
3352.192681	2.000000
3353.250882	-7.900000
3354.313304	-0.600000
3355.372670	8.900000
3356.431890	-6.900000
3357.492419	-3.200000
3358.548440	0.700000
3359.607224	-3.800000
3360.661501	6.300000
3361.718542	-3.100000
3362.773984	-4.600000
3363.830736	-4.900000
3364.885889	8.800000
3365.939445	1.200000
3366.991404	6.200000
3368.046126	-6.200000
3369.097798	-3.000000
3370.149327	8.500000
3371.202164	-5.600000
3372.251954	-5.500000
3373.303053	6.700000
3374.351105	10.200000
3375.401918	14.600000
3376.449685	3.000000
3377.497310	1.300000
3378.544793	-0.400000
3379.590683	12.300000
3380.637881	9.300000
3381.682037	7.300000
3382.728951	-11.000000
3383.774273	-5.000000
3384.816554	-2.700000
3385.858694	5.500000
3386.902143	0.500000
3387.945450	6.000000
3388.987167	-6.900000
3390.028744	12.800000
3391.070179	1.300000
3392.110026	11.900000
3393.148284	-6.600000
3394.187850	-4.900000
3395.227276	11.600000
3396.265114	10.700000
3397.301365	-7.500000
3398.337477	-3.000000
3399.374895	-11.800000
3400.409281	2.800000
3401.444975	3.900000
3402.480529	2.400000
3403.513052	-3.100000
3404.548327	-4.400000
3405.580573	3.000000
3406.612680	-8.600000
3407.643203	-8.900000
3408.675033	-9.800000
3409.706725	-11.800000
3410.735389	-10.400000
3411.763916	12.700000
3412.793749	-2.600000
3413.823445	-3.000000
3414.850115	-4.300000
3415.878091	-6.100000
3416.903044	7.700000
3417.930746	9.000000
3418.955424	2.400000
3419.981409	3.300000
3421.005815	-0.700000
3422.030084	4.600000
3423.052774	1.400000
3424.075328	1.200000
3425.099188	-12.100000
3426.120028	0.200000
3427.140732	9.600000
3428.162742	-10.300000
3429.181734	5.400000
3430.200591	-10.800000
3431.220754	-1.500000
3432.237900	11.900000
