-117.018713	2.900000
-114.349113	12.000000
-111.682448	1.100000
-109.016535	-5.700000
-106.353555	5.100000
-103.689144	-11.300000
-101.027664	6.900000
-98.364755	-0.100000
-95.706952	14.500000
-93.047720	-11.700000
-90.389236	14.500000
-87.733677	22.000000
-85.076688	-4.300000
-82.424798	14.500000
-79.771478	5.200000
-77.121077	-1.300000
-74.469248	0.700000
-71.822509	-7.200000
-69.174340	8.500000
-66.526914	14.500000
-63.882403	-4.300000
-61.236462	19.300000
-58.595603	-13.600000
-55.953315	-4.800000
-53.313936	1.200000
-50.673128	8.400000
-48.033059	-0.300000
-45.398064	1.600000
-42.761639	-4.600000
-40.128117	-7.200000
-37.493167	-4.800000
-34.863283	-11.200000
-32.229805	-10.400000
-29.601390	5.500000
-26.973709	-12.600000
-24.344599	-0.600000
-21.720547	1.600000
-19.092904	8.000000
-16.470316	32.600000
-13.848458	36.000000
-11.227331	29.800000
-8.606935	87.000000
-5.989426	354.100000
-3.370489	1048.200000
-0.754438	2623.300000
1.860886	3555.500000
4.475481	1949.500000
7.087195	214.000000
9.700337	26.300000
12.308445	18.400000
14.920134	14.000000
17.526793	13.100000
20.134881	8.800000
22.742243	14.000000
25.344581	-1.600000
27.950498	-14.300000
30.551392	4.000000
33.153714	-19.400000
35.751018	5.700000
38.351899	9.200000
40.947764	12.000000
43.545057	-3.400000
46.141632	-3.800000
48.733197	10.000000
51.326190	-28.300000
53.916322	16.400000
56.507881	3.500000
59.096582	6.800000
61.686709	-5.300000
64.271837	4.100000
66.858393	0.000000
69.444235	6.300000
72.027222	-6.200000
74.611637	-8.200000
77.188923	5.600000
79.769775	-6.000000
82.347778	0.300000
84.925070	-2.300000
87.503790	-14.200000
90.077527	-8.800000
92.652691	-1.800000
95.225012	-6.400000
97.796626	10.600000
100.365399	2.300000
102.935599	6.200000
105.502960	9.800000
108.071748	-5.500000
110.637699	-4.000000
113.200815	-2.300000
115.767487	8.900000
118.324937	-4.500000
120.888073	-5.200000
123.446250	20.400000
126.007981	15.000000
128.564755	33.300000
131.122955	36.200000
133.676203	62.700000
136.228753	85.600000
138.784853	123.500000
141.336005	162.500000
143.886460	193.200000
146.436217	225.300000
148.983155	257.300000
151.529398	275.200000
154.077066	288.400000
156.624038	288.300000
159.166075	276.400000
161.707418	252.200000
164.248068	272.600000
166.790144	268.200000
169.329408	275.100000
171.865863	283.800000
174.401628	278.700000
176.938818	278.100000
179.475317	261.100000
182.009010	287.500000
184.539899	268.300000
187.070100	260.800000
189.601727	257.300000
192.130552	269.500000
194.656578	260.100000
197.181918	275.000000
199.708683	267.000000
202.232652	259.200000
204.755936	266.400000
207.278534	260.200000
209.798340	276.700000
212.317463	258.000000
214.835903	270.000000
217.355768	249.200000
219.868630	268.500000
222.385024	278.400000
224.900737	294.500000
227.411559	272.600000
229.923806	288.300000
232.433270	292.400000
234.942056	297.300000
237.450164	282.600000
239.959696	284.800000
242.464347	299.100000
244.968322	294.200000
247.473721	290.200000
249.974245	289.900000
252.478292	289.500000
254.975369	298.500000
257.475969	286.500000
259.973797	278.400000
262.470952	305.600000
264.967434	295.500000
267.459053	299.400000
269.954192	306.600000
272.446564	299.100000
274.938266	268.700000
277.427205	293.200000
279.917567	303.700000
282.405168	306.100000
284.890009	288.900000
287.378365	324.100000
289.859781	308.900000
292.344711	295.300000
294.824796	319.400000
297.308393	309.800000
299.787147	335.200000
302.267324	319.400000
304.744750	314.400000
307.221512	299.300000
309.697610	318.300000
312.170960	319.800000
314.643649	289.900000
317.115676	298.100000
319.587041	296.600000
322.055663	320.000000
324.523625	310.600000
326.993010	309.200000
329.457572	282.700000
331.925638	269.000000
334.388883	296.000000
336.851472	258.200000
339.313404	266.700000
341.774679	270.800000
344.233219	255.800000
346.693183	256.800000
349.150413	240.500000
351.606989	247.700000
354.062911	263.100000
356.516103	234.400000
358.970718	269.400000
361.420531	234.500000
363.873840	224.300000
366.322350	247.200000
368.770210	241.400000
371.219492	238.400000
373.663979	231.800000
376.109890	245.700000
378.555150	234.100000
380.997692	231.400000
383.439586	221.500000
385.880832	199.800000
388.319364	222.200000
390.759316	221.900000
393.196555	217.700000
395.631083	208.400000
398.069097	234.600000
400.502336	199.100000
402.936995	210.900000
405.366882	207.700000
407.800254	213.700000
410.228856	214.300000
412.656816	208.100000
415.086198	212.600000
417.510814	195.500000
419.936852	183.200000
422.362249	212.700000
424.787006	195.900000
427.207004	228.000000
429.628424	206.900000
432.047148	203.700000
434.467292	199.400000
436.884741	219.400000
439.303610	193.700000
441.719785	191.200000
444.131214	190.000000
446.546119	190.500000
448.958335	186.400000
451.369916	191.700000
453.780863	165.800000
456.189123	159.100000
458.596752	174.300000
461.003748	161.200000
463.410113	157.800000
465.813795	167.400000
468.216847	150.300000
470.619269	142.200000
473.021061	166.900000
475.420175	169.700000
477.820709	170.400000
480.220614	162.800000
482.615797	158.400000
485.014446	169.800000
487.408374	160.600000
489.801677	187.900000
492.194355	183.200000
494.586407	217.600000
496.979877	214.600000
499.368635	243.200000
501.754727	285.800000
504.142239	349.900000
506.529128	468.900000
508.913352	656.100000
511.298996	916.200000
513.681978	1347.200000
516.062299	1844.700000
518.444039	2250.700000
520.823120	2355.500000
523.203619	2094.800000
525.581462	1741.300000
527.956648	1426.200000
530.331218	1165.400000
532.707205	973.700000
535.080540	833.700000
537.455292	745.800000
539.825358	666.200000
542.194810	600.300000
544.565679	559.000000
546.931867	532.600000
549.299474	493.500000
551.664435	477.000000
554.028784	434.400000
556.392519	405.900000
558.757672	424.700000
561.118153	367.100000
563.480052	343.700000
565.839310	347.700000
568.195930	339.400000
570.555996	311.100000
572.909370	312.500000
575.266189	303.900000
577.620373	291.400000
579.973948	272.500000
582.326916	275.800000
584.677251	270.200000
587.029004	257.700000
589.374080	247.600000
591.724619	236.700000
594.068486	252.600000
596.417814	242.000000
598.762493	216.000000
601.104548	238.400000
603.448020	234.200000
605.788869	236.600000
608.129115	242.200000
610.466741	227.100000
612.807802	253.100000
615.144226	272.400000
617.482066	274.400000
619.817289	255.500000
622.149895	292.400000
624.483919	258.200000
626.815328	262.500000
629.146139	232.100000
631.476352	246.000000
633.805968	244.100000
636.130960	225.400000
638.461394	238.400000
640.787207	227.000000
643.110412	241.700000
645.435034	219.700000
647.757050	217.400000
650.078472	223.900000
652.397291	205.200000
654.717527	217.000000
657.037169	197.800000
659.354210	210.600000
661.670659	209.100000
663.984510	214.900000
666.299777	208.200000
668.612447	205.500000
670.926532	200.600000
673.236017	200.400000
675.546918	202.400000
677.855226	210.800000
680.162946	194.500000
682.472080	190.000000
684.776622	198.400000
687.080578	204.900000
689.383948	193.000000
691.688732	188.900000
693.988929	177.500000
696.290542	179.500000
698.591569	183.600000
700.888015	195.800000
703.185876	171.500000
705.483153	177.600000
707.779847	177.900000
710.071965	171.000000
712.367494	174.500000
714.658449	166.500000
716.950819	144.800000
719.240614	177.800000
721.529828	180.300000
723.818463	151.600000
726.104525	135.500000
728.392002	153.200000
730.676907	173.100000
732.961235	166.000000
735.242994	156.600000
737.526167	162.200000
739.808763	145.800000
742.086803	151.700000
744.366257	145.400000
746.645136	170.900000
748.923440	159.100000
751.197193	139.100000
753.472361	154.800000
755.746955	166.000000
758.018990	162.900000
760.292438	176.500000
762.563328	146.700000
764.831662	164.800000
767.101409	162.800000
769.368601	164.100000
771.635224	166.600000
773.901276	177.200000
776.164777	176.700000
778.429691	162.900000
780.694035	152.700000
782.953850	172.500000
785.215077	153.000000
787.475737	156.300000
789.733851	156.600000
791.989420	163.900000
794.248379	175.000000
796.500840	184.300000
798.758668	163.800000
801.011977	168.500000
803.262746	152.700000
805.514927	152.500000
807.764569	157.800000
810.015623	158.700000
812.262167	151.500000
814.510122	154.500000
816.755543	160.500000
819.002375	158.200000
821.248646	141.000000
823.490412	156.400000
825.735562	155.800000
827.974239	156.100000
830.216298	170.500000
832.453859	137.800000
834.692832	151.900000
836.929278	167.400000
839.167135	150.500000
841.402467	141.100000
843.635276	161.700000
845.869495	142.300000
848.101193	151.700000
850.332336	161.100000
852.562924	130.200000
854.792958	145.300000
857.022438	140.900000
859.247436	144.600000
861.475808	139.000000
863.699702	149.100000
865.925007	139.000000
868.145836	148.900000
870.370037	162.900000
872.589765	155.700000
874.810903	167.200000
877.031491	159.100000
879.249570	155.300000
881.469058	145.200000
883.684080	136.800000
885.898554	145.700000
888.112481	144.700000
890.325861	144.400000
892.538693	137.500000
894.750978	128.400000
896.960762	132.000000
899.170000	164.200000
901.378693	153.900000
903.584886	135.000000
905.792489	133.800000
907.997595	161.800000
910.202157	139.500000
912.404224	147.800000
914.607700	133.000000
916.808682	141.900000
919.009122	134.600000
921.210971	145.900000
923.406429	154.300000
925.605245	156.400000
927.799624	166.000000
929.997360	180.800000
932.190660	199.100000
934.385369	236.800000
936.577591	249.100000
938.769276	283.800000
940.960423	275.600000
943.149087	300.900000
945.337215	322.600000
947.522861	292.300000
949.711861	283.700000
951.896437	306.000000
954.080478	298.000000
956.267869	290.700000
958.446956	317.500000
960.629394	305.200000
962.811298	322.000000
964.990727	306.400000
967.167684	300.000000
969.346049	312.300000
971.525821	313.200000
973.699244	320.400000
975.876013	314.700000
978.048375	325.300000
980.222145	307.500000
982.391511	301.200000
984.564221	299.100000
986.734466	300.300000
988.904181	280.600000
991.073368	240.000000
993.238158	216.800000
995.406290	224.500000
997.570026	193.200000
999.735170	184.600000
1001.897854	190.700000
1004.060013	195.400000
1006.219715	166.500000
1008.378892	162.200000
1010.539476	170.500000
1012.697605	173.700000
1014.855211	163.200000
1017.012293	148.500000
1019.168851	140.600000
1021.321030	143.200000
1023.474616	142.800000
1025.627680	136.700000
1027.778295	125.500000
1029.930316	130.100000
1032.077965	122.000000
1034.228945	131.400000
1036.375554	135.000000
1038.521644	122.500000
1040.667216	111.900000
1042.814193	132.500000
1044.954881	139.800000
1047.098898	133.000000
1049.240476	121.600000
1051.381536	123.000000
1053.524002	137.300000
1055.660187	142.700000
1057.799699	132.100000
1059.934855	135.200000
1062.073336	148.600000
1064.207464	128.200000
1066.341078	145.300000
1068.476096	137.000000
1070.606766	115.100000
1072.738840	123.700000
1074.868485	141.900000
1076.997617	127.300000
1079.126239	142.100000
1081.254349	137.900000
1083.380033	140.100000
1085.505207	134.900000
1087.631785	129.700000
1089.754025	132.700000
1091.877670	137.100000
1093.996980	124.900000
1096.121519	124.100000
1098.239814	124.200000
1100.359512	135.900000
1102.476793	123.700000
1104.593566	102.100000
1106.709833	125.300000
1108.823685	124.100000
1110.938940	125.500000
1113.049873	131.700000
1115.164118	125.400000
1117.274042	127.500000
1119.385370	127.000000
1121.496193	113.100000
1123.602700	135.400000
1125.712516	112.400000
1127.818019	110.800000
1129.924924	130.400000
1132.025614	114.000000
1134.131516	111.200000
1136.233109	115.600000
1138.336105	106.600000
1140.438600	115.400000
1142.534888	132.600000
1144.636383	114.700000
1146.733576	110.400000
1148.830271	115.800000
1150.926467	121.900000
1153.022165	113.600000
1155.117366	129.000000
1157.210170	94.800000
1159.304376	127.600000
1161.392391	115.300000
1163.485604	113.600000
1165.572630	115.100000
1167.662954	108.100000
1169.748990	122.700000
1171.838324	122.800000
1173.921477	116.500000
1176.006033	124.800000
1178.091990	109.600000
1180.173665	117.800000
1182.256741	122.000000
1184.337432	111.000000
1186.417632	123.600000
1188.497340	122.600000
1190.576557	114.700000
1192.653391	110.400000
1194.727845	126.200000
1196.805591	121.400000
1198.879066	124.200000
1200.953943	126.400000
1203.024552	119.700000
1205.096562	113.400000
1207.166196	113.100000
1209.237231	124.800000
1211.307779	104.700000
1213.374065	112.400000
1215.441752	110.100000
1217.507066	137.700000
1219.573781	131.800000
1221.636241	126.100000
1223.701985	111.600000
1225.763475	126.700000
1227.826366	128.200000
1229.886888	118.600000
1231.946928	137.200000
1234.006484	124.200000
1236.063676	104.500000
1238.120385	119.800000
1240.174732	120.000000
1242.232360	108.300000
1244.287624	129.400000
1246.338649	116.800000
1248.391073	105.900000
1250.443017	108.800000
1252.492603	102.100000
1254.541710	113.300000
1256.590338	122.500000
1258.638488	103.700000
1260.686160	110.900000
1262.729601	128.600000
1264.776318	126.000000
1266.820681	132.000000
1268.864568	101.900000
1270.906103	115.700000
1272.945289	104.300000
1274.987748	121.400000
1277.025984	115.500000
1279.065619	104.800000
1281.104778	97.500000
1283.139720	122.600000
1285.176060	110.600000
1287.210056	110.000000
1289.245449	109.000000
1291.276629	93.600000
1293.309208	91.600000
1295.341315	111.800000
1297.371081	115.100000
1299.402244	109.800000
1301.429200	110.100000
1303.457555	107.200000
1305.481704	90.600000
1307.509119	118.300000
1309.532331	105.300000
1311.556941	105.700000
1313.579216	98.900000
1315.602889	112.500000
1317.624229	92.100000
1319.645102	98.300000
1321.665507	107.600000
1323.681719	93.900000
1325.699328	111.300000
1327.714609	103.100000
1329.733149	97.400000
1331.747499	124.500000
1333.759524	89.800000
1335.774807	122.800000
1337.785904	102.000000
1339.798397	119.800000
1341.806708	111.100000
1343.818275	132.400000
1345.823803	137.500000
1347.832586	120.500000
1349.837191	131.800000
1351.845050	124.400000
1353.852447	111.100000
1355.853813	120.700000
1357.856575	108.000000
1359.858878	108.200000
1361.860721	96.200000
1363.862104	105.800000
1365.861173	110.900000
1367.859785	114.000000
1369.857937	90.000000
1371.855632	95.300000
1373.849164	122.300000
1375.844091	95.400000
1377.838562	108.100000
1379.832576	102.400000
1381.824283	110.100000
1383.815534	98.800000
1385.804480	111.700000
1387.794821	103.200000
1389.784708	102.700000
1391.772290	102.200000
1393.759419	102.200000
1395.744246	97.700000
1397.730468	94.800000
1399.714389	100.500000
1401.697858	98.200000
1403.680875	95.700000
1405.661594	89.700000
1407.643707	89.600000
1409.623523	99.500000
1411.602889	109.800000
1413.578116	88.600000
1415.556581	80.600000
1417.532753	103.300000
1419.508475	94.200000
1421.483749	102.000000
1423.456731	97.300000
1425.429265	88.100000
1427.401351	91.900000
1429.372990	86.300000
1431.340500	100.900000
1433.313084	102.900000
1435.277862	97.100000
1437.247713	104.600000
1439.213439	92.200000
1441.180559	98.000000
1443.145395	87.900000
1445.106111	104.700000
1447.071895	96.500000
1449.031724	103.200000
1450.992947	91.600000
1452.955561	86.600000
1454.914061	93.700000
1456.872119	101.000000
1458.829735	97.100000
1460.786908	109.300000
1462.741806	87.600000
1464.698097	87.200000
1466.652113	79.000000
1468.605688	93.100000
1470.556991	95.700000
1472.509686	95.400000
1474.460110	110.000000
1476.410095	101.400000
1478.359641	95.000000
1480.306918	102.300000
1482.251927	118.700000
1484.198329	86.100000
1486.144293	102.300000
1488.089820	98.100000
1490.033081	109.700000
1491.975906	104.900000
1493.916468	110.300000
1495.858422	107.300000
1497.798113	90.900000
1499.737369	87.000000
1501.676191	85.300000
1503.612753	85.000000
1505.550706	79.200000
1507.486400	89.300000
1509.421661	77.700000
1511.354665	110.900000
1513.287237	111.300000
1515.219377	75.400000
1517.151085	85.300000
1519.080540	95.300000
1521.011385	94.800000
1522.941798	88.300000
1524.868139	80.700000
1526.795870	88.100000
1528.721352	100.400000
1530.646404	100.600000
1532.571027	107.400000
1534.495220	79.800000
1536.417167	90.000000
1538.340504	101.600000
1540.261594	90.400000
1542.180440	91.700000
1544.100676	95.400000
1546.018668	90.900000
1547.936234	100.200000
1549.851559	97.400000
1551.768273	102.100000
1553.680932	99.100000
1555.596794	84.600000
1557.510418	88.300000
1559.421803	104.200000
1561.334578	89.200000
1563.243303	93.800000
1565.153417	115.600000
1567.063108	112.800000
1568.972376	102.700000
1570.879409	104.500000
1572.784210	108.300000
1574.690400	123.900000
1576.594359	132.000000
1578.497896	141.400000
1580.401013	136.000000
1582.301900	153.200000
1584.204176	147.700000
1586.104223	172.800000
1588.005659	195.700000
1589.903061	214.700000
1591.800044	246.600000
1593.696609	235.800000
1595.594561	276.100000
1597.486679	233.000000
1599.381991	228.600000
1601.276885	211.700000
1603.169557	190.000000
1605.061812	146.100000
1606.951848	147.200000
1608.841468	125.800000
1610.730673	108.700000
1612.619462	90.700000
1614.506035	92.500000
1616.393995	99.800000
1618.277938	119.500000
1620.163268	111.700000
1622.048185	91.700000
1623.930888	107.000000
1625.814978	99.500000
1627.695056	100.200000
1629.576522	83.100000
1631.455776	81.800000
1633.336418	74.600000
1635.211255	74.700000
1637.091073	85.400000
1638.966887	96.400000
1640.842290	83.600000
1642.719079	82.600000
1644.590071	80.400000
1646.464246	82.300000
1648.334421	74.500000
1650.207777	65.800000
1652.078930	75.600000
1653.947881	73.900000
1655.818218	79.100000
1657.684562	75.500000
1659.552291	81.400000
1661.417821	90.000000
1663.284737	63.100000
1665.147663	67.300000
1667.011976	67.800000
1668.874092	69.900000
1670.735803	72.700000
1672.598899	70.100000
1674.459801	80.600000
1676.318510	63.600000
1678.176815	76.800000
1680.036504	90.600000
1681.890427	84.300000
1683.747523	65.600000
1685.604215	69.400000
1687.456932	72.300000
1689.312820	52.100000
1691.164734	82.200000
1693.016247	85.500000
1694.867359	75.600000
1696.718070	67.500000
1698.568381	70.500000
1700.416508	79.300000
1702.266019	72.900000
1704.109780	54.000000
1705.958492	77.900000
1707.801457	76.800000
1709.647588	66.800000
1711.489758	75.000000
1713.335093	68.700000
1715.174687	83.500000
1717.015665	86.300000
1718.858026	85.500000
1720.696430	70.600000
1722.536218	74.500000
1724.373831	70.200000
1726.211049	60.600000
1728.046093	62.200000
1729.882520	68.900000
1731.716774	49.200000
1733.550635	60.800000
1735.384101	78.300000
1737.213621	61.500000
1739.046301	66.800000
1740.875035	69.300000
1742.706928	64.800000
1744.534878	74.300000
1746.362436	47.800000
1748.189603	68.900000
1750.016378	71.200000
1751.842761	67.700000
1753.665208	71.700000
1755.490810	50.100000
1757.312477	61.300000
1759.135525	73.400000
1760.956413	58.300000
1762.776912	91.200000
1764.598791	57.700000
1766.414971	77.800000
1768.234303	74.100000
1770.049708	79.100000
1771.868264	61.400000
1773.682894	61.200000
1775.497137	48.800000
1777.310994	60.300000
1779.124464	66.600000
1780.935780	51.800000
1782.748478	81.900000
1784.560790	85.500000
1786.369183	83.700000
1788.178958	60.300000
1789.984818	72.700000
1791.793823	63.300000
1793.598915	81.800000
1795.405388	66.900000
1797.211476	55.600000
1799.013655	61.700000
1800.818978	80.600000
1802.620391	74.300000
1804.423186	62.700000
1806.222074	72.900000
1808.022343	86.900000
1809.822230	69.000000
1811.619975	67.800000
1813.417340	74.100000
1815.214324	67.300000
1817.010929	69.500000
1818.805393	64.200000
1820.601238	55.000000
1822.391427	54.400000
1824.186513	63.700000
1825.975946	67.700000
1827.768517	62.200000
1829.558952	71.800000
1831.347252	65.600000
1833.138688	67.500000
1834.924479	60.600000
1836.711649	53.500000
1838.496687	61.500000
1840.284858	63.300000
1842.069145	49.700000
1843.851301	51.600000
1845.634837	75.100000
1847.416244	63.200000
1849.199029	57.300000
1850.977935	57.100000
1852.758219	74.600000
1854.536378	70.900000
1856.315914	61.300000
1858.093326	69.300000
1859.868615	54.300000
1861.645281	57.900000
1863.419825	69.300000
1865.195746	68.500000
1866.966048	69.800000
1868.739477	64.300000
1870.510786	56.100000
1872.281724	76.700000
1874.054040	56.200000
1875.820742	74.500000
1877.590569	68.200000
1879.356533	75.900000
1881.125621	55.000000
1882.890847	56.100000
1884.655705	63.000000
1886.421939	63.100000
1888.184316	59.300000
1889.946324	62.000000
1891.707966	75.000000
1893.469240	56.600000
1895.230148	57.800000
1896.990688	66.300000
1898.749120	67.000000
1900.507185	69.200000
1902.263143	76.000000
1904.020477	66.800000
1905.777446	73.100000
1907.532308	62.600000
1909.285066	65.600000
1911.037459	68.500000
1912.791229	57.100000
1914.542895	45.000000
1916.292458	57.500000
1918.043398	55.500000
1919.793974	62.500000
1921.540712	64.100000
1923.288825	91.100000
1925.034840	64.300000
1926.782229	60.200000
1928.527520	58.800000
1930.270715	66.100000
1932.015284	59.500000
1933.757757	51.600000
1935.499871	51.500000
1937.241624	66.400000
1938.983017	52.800000
1940.722317	77.500000
1942.461258	62.200000
1944.199840	72.700000
1945.936331	69.000000
1947.672463	78.900000
1949.409971	88.800000
1951.143656	54.700000
1952.878716	65.600000
1954.611687	57.200000
1956.344302	69.600000
1958.076560	68.100000
1959.808462	59.800000
1961.538279	59.400000
1963.266010	60.000000
1964.995116	85.700000
1966.723866	50.500000
1968.450533	68.000000
1970.176846	38.900000
1971.904533	71.600000
1973.626683	54.800000
1975.351934	52.900000
1977.073378	72.200000
1978.797922	71.000000
1980.520387	68.400000
1982.239048	58.100000
1983.960809	63.100000
1985.678767	60.000000
1987.398098	64.300000
1989.113630	76.700000
1990.833982	53.600000
1992.550536	55.800000
1994.263293	49.100000
1995.979146	56.300000
1997.692927	64.200000
1999.406358	48.600000
2001.117718	56.900000
2002.830450	71.300000
2004.539392	61.100000
2006.251426	68.600000
2007.957951	66.000000
2009.667569	48.900000
2011.375119	69.600000
2013.082322	59.000000
2014.787459	53.800000
2016.492250	75.600000
2018.198412	44.900000
2019.900791	57.500000
2021.604543	51.900000
2023.306232	45.200000
2025.007575	69.200000
2026.708574	58.600000
2028.407511	66.600000
2030.107820	63.500000
2031.804353	65.800000
2033.502258	59.700000
2035.198105	56.800000
2036.897037	62.100000
2038.590483	49.800000
2040.285300	66.500000
2041.979774	72.100000
2043.670481	60.900000
2045.364270	60.500000
2047.054294	54.200000
2048.745688	60.600000
2050.435028	51.800000
2052.125740	56.700000
2053.812688	63.600000
2055.499296	38.500000
2057.187275	60.500000
2058.871494	65.900000
2060.557083	50.900000
2062.242333	56.900000
2063.925535	75.500000
2065.610107	55.600000
2067.289215	62.500000
2068.973110	43.000000
2070.651543	56.500000
2072.333054	66.100000
2074.010813	50.100000
2075.688236	53.300000
2077.367028	51.300000
2079.043777	47.400000
2080.718485	61.300000
2082.394563	55.400000
2084.068599	71.700000
2085.742301	53.700000
2087.415667	43.100000
2089.086994	47.700000
2090.757987	60.000000
2092.428646	64.100000
2094.098971	63.000000
2095.768962	49.300000
2097.436917	47.800000
2099.104538	58.600000
2100.770126	58.200000
2102.437082	42.700000
2104.102005	56.000000
2105.766596	56.300000
2107.429155	68.500000
2109.093082	57.800000
2110.754978	67.100000
2112.416544	44.200000
2114.077778	54.600000
2115.736983	56.300000
2117.395859	63.800000
2119.054405	50.700000
2120.712620	50.100000
2122.367113	62.000000
2124.024670	52.700000
2125.681897	53.400000
2127.335404	56.700000
2128.990278	50.600000
2130.641433	70.300000
2132.295651	46.300000
2133.946151	69.300000
2135.598019	70.600000
2137.244478	45.100000
2138.895691	60.700000
2140.543192	63.000000
2142.192059	44.300000
2143.838907	66.800000
2145.485430	73.000000
2147.131627	69.000000
2148.774116	54.100000
2150.419662	52.600000
2152.061502	59.000000
2153.706399	54.600000
2155.347591	69.700000
2156.988459	59.800000
2158.629004	55.800000
2160.267536	48.800000
2161.907434	62.100000
2163.543632	61.500000
2165.181196	51.500000
2166.818438	63.300000
2168.453670	53.000000
2170.088580	50.500000
2171.723169	66.300000
2173.357437	53.800000
2174.988011	68.000000
2176.621637	77.200000
2178.251571	70.600000
2179.882870	58.500000
2181.512164	49.000000
2183.141139	55.100000
2184.769794	63.900000
2186.398130	61.200000
2188.024463	58.400000
2189.650478	61.700000
2191.274492	60.500000
2192.899871	66.200000
2194.523249	52.200000
2196.147992	52.500000
2197.769054	57.900000
2199.389799	63.500000
2201.011908	50.300000
2202.632020	33.800000
2204.250136	55.500000
2205.867936	48.200000
2207.485420	63.800000
2209.102590	32.200000
2210.719443	52.100000
2212.335982	53.900000
2213.950528	44.400000
2215.563081	58.300000
2217.176998	64.600000
2218.788924	50.500000
2220.402213	56.800000
2222.013512	59.000000
2223.622821	42.300000
2225.233493	50.600000
2226.842177	54.100000
2228.450549	49.000000
2230.056934	58.700000
2231.664681	41.400000
2233.270443	49.500000
2234.875893	48.300000
2236.479358	47.200000
2238.084186	44.300000
2239.687030	56.600000
2241.287891	53.700000
2242.890115	50.400000
2244.490357	51.700000
2246.091961	43.700000
2247.689912	49.300000
2249.289226	67.000000
2250.886560	68.800000
2252.483586	50.500000
2254.081973	42.100000
2255.676713	59.500000
2257.269475	59.000000
2258.863600	53.000000
2260.459086	45.800000
2262.050927	31.100000
2263.642462	45.300000
2265.235359	54.900000
2266.822946	38.700000
2268.415229	60.100000
2270.002205	59.200000
2271.592210	39.200000
2273.176910	38.800000
2274.766304	39.900000
2276.350395	70.700000
2277.935848	42.300000
2279.519332	44.100000
2281.105841	60.000000
2282.688717	62.500000
2284.271290	54.300000
2285.853559	60.900000
2287.432198	42.200000
2289.013862	48.100000
2290.591897	58.700000
2292.172955	54.500000
2293.750386	56.700000
2295.325854	58.900000
2296.904344	32.300000
2298.479210	57.900000
2300.053775	54.700000
2301.628039	43.800000
2303.202003	49.600000
2304.775667	59.300000
2306.349031	48.900000
2307.918776	49.100000
2309.488222	41.700000
2311.060686	50.100000
2312.627876	64.700000
2314.198083	49.600000
2315.764677	50.700000
2317.332629	55.800000
2318.898627	43.200000
2320.464327	56.300000
2322.029729	68.500000
2323.593178	73.800000
2325.157986	60.800000
2326.719186	47.700000
2328.283399	62.400000
2329.842352	46.000000
2331.404318	63.800000
2332.964334	69.200000
2334.524054	64.000000
2336.081826	61.100000
2337.639302	55.900000
2339.196484	39.400000
2340.751718	58.900000
2342.306659	65.300000
2343.861305	39.200000
2345.415658	44.600000
2346.969717	50.600000
2348.523483	50.500000
2350.075304	45.800000
2351.625182	49.500000
2353.178069	49.000000
2354.725712	51.600000
2356.276364	49.500000
2357.823424	48.400000
2359.371842	54.900000
2360.919969	46.600000
2362.464507	48.400000
2364.010403	52.800000
2365.554361	53.700000
2367.099675	57.600000
2368.641405	54.000000
2370.184493	38.100000
2371.725644	54.900000
2373.266506	63.000000
2374.807079	51.800000
2376.347363	59.600000
2377.887358	53.000000
2379.423774	56.100000
2380.963192	36.700000
2382.499033	40.700000
2384.036231	41.800000
2385.569853	55.500000
2387.106475	65.100000
2388.641167	42.000000
2390.173929	66.200000
2391.706404	49.600000
2393.236951	59.100000
2394.770496	40.900000
2396.298830	43.800000
2397.828520	49.500000
2399.357925	55.300000
2400.887045	44.800000
2402.415879	71.400000
2403.939509	52.800000
2405.467774	47.300000
2406.990837	52.800000
2408.518533	62.300000
2410.039390	74.300000
2411.564879	52.800000
2413.086809	47.900000
2414.610093	53.100000
2416.131457	56.500000
2417.650901	55.500000
2419.171700	48.800000
2420.690580	68.000000
2422.209179	49.200000
2423.725859	45.500000
2425.243895	48.300000
2426.761649	44.900000
2428.275851	61.300000
2429.789774	54.400000
2431.303416	50.400000
2432.818412	58.800000
2434.329861	46.000000
2435.842663	43.700000
2437.353553	49.500000
2438.864164	43.700000
2440.372863	68.000000
2441.884548	51.900000
2443.392690	58.400000
2444.900554	66.600000
2446.408139	49.400000
2447.912185	53.200000
2449.419215	60.700000
2450.924337	66.800000
2452.429182	47.300000
2453.932120	49.700000
2455.434782	78.500000
2456.937167	55.700000
2458.437647	53.300000
2459.939480	54.500000
2461.439408	57.000000
2462.939061	58.300000
2464.438439	46.900000
2465.935914	46.300000
2467.431487	53.600000
2468.930040	50.500000
2470.425065	49.700000
2471.921442	46.900000
2473.414293	37.500000
2474.908497	79.200000
2476.402427	50.700000
2477.892833	54.200000
2479.386217	57.900000
2480.877703	54.400000
2482.367292	55.300000
2483.856609	54.800000
2485.344030	41.100000
2486.834427	49.600000
2488.321306	47.700000
2489.809536	38.800000
2491.294249	39.800000
2492.778692	47.400000
2494.264487	48.700000
2495.748390	37.000000
2497.233643	57.400000
2498.713763	51.900000
2500.196856	51.900000
2501.678058	58.400000
2503.158991	61.000000
2504.638035	55.100000
2506.116810	58.600000
2507.595317	52.900000
2509.073555	38.200000
2510.551526	56.300000
2512.025991	42.500000
2513.503426	53.700000
2514.977356	57.700000
2516.452638	38.100000
2517.927652	59.900000
2519.399165	51.500000
2520.872029	55.500000
2522.343010	41.900000
2523.815341	59.800000
2525.282558	45.700000
2526.752742	51.700000
2528.221045	55.800000
2529.689083	63.000000
2531.156855	50.000000
2532.624363	60.900000
2534.091607	54.000000
2535.555358	44.100000
2537.020459	50.200000
2538.483683	45.000000
2539.948256	60.900000
2541.409341	46.500000
2542.871775	40.900000
2544.333946	75.800000
2545.792630	57.900000
2547.255887	65.000000
2548.714047	49.600000
2550.173557	51.600000
2551.627972	59.800000
2553.086958	47.000000
2554.544072	31.800000
2555.999314	39.900000
2557.454296	47.200000
2558.907408	47.000000
2560.361869	53.200000
2561.814461	36.700000
2563.266793	61.700000
2564.717257	55.700000
2566.170678	29.200000
2567.619016	53.900000
2569.070309	46.500000
2570.519737	36.800000
2571.965692	50.800000
2573.414602	48.700000
2574.860042	39.100000
2576.306829	50.700000
2577.751753	58.600000
2579.196420	60.900000
2580.642434	39.600000
2582.084982	55.300000
2583.528876	46.000000
2584.969306	35.600000
2586.411084	56.000000
2587.851002	30.100000
2589.292267	50.000000
2590.730070	64.400000
2592.170823	34.500000
2593.606514	39.100000
2595.045153	49.100000
2596.481936	52.300000
2597.916863	62.700000
2599.354737	62.000000
2600.787554	50.800000
2602.221718	53.200000
2603.654028	40.500000
2605.087684	46.600000
2606.519487	43.900000
2607.951036	59.900000
2609.382332	60.700000
2610.811777	74.600000
2612.240969	46.700000
2613.668310	29.900000
2615.096998	43.900000
2616.525433	48.800000
2617.950422	55.900000
2619.376756	41.100000
2620.801243	42.800000
2622.227075	51.600000
2623.649463	43.000000
2625.073196	32.300000
2626.495084	39.500000
2627.916721	46.400000
2629.336514	29.400000
2630.757652	64.700000
2632.178540	59.700000
2633.595989	53.900000
2635.016378	56.500000
2636.433330	43.400000
2637.850034	62.900000
2639.266489	58.400000
2640.682696	60.300000
2642.098655	64.300000
2643.512773	64.600000
2644.926643	75.600000
2646.338674	51.700000
2647.752050	54.100000
2649.161996	62.400000
2650.574878	58.000000
2651.984331	70.200000
2653.393538	71.100000
2654.800909	78.900000
2656.211214	91.300000
2657.619683	72.700000
2659.026318	96.800000
2660.432707	75.700000
2661.837262	88.800000
2663.243161	84.100000
2664.647227	92.700000
2666.051048	102.800000
2667.454625	97.700000
2668.856371	110.800000
2670.259460	120.300000
2671.659131	134.100000
2673.060146	123.800000
2674.457745	146.000000
2675.858273	157.300000
2677.255387	159.800000
2678.653844	168.300000
2680.050474	160.600000
2681.446861	181.700000
2682.843006	170.500000
2684.237325	178.100000
2685.632987	170.900000
2687.025240	193.100000
2688.418835	202.800000
2689.810606	184.100000
2691.203720	187.800000
2692.595010	176.900000
2693.984477	192.500000
2695.373704	171.800000
2696.762692	183.600000
2698.153021	168.000000
2699.538367	152.900000
2700.926636	163.300000
2702.313085	143.600000
2703.699295	124.400000
2705.085266	124.900000
2706.467839	120.200000
2707.851754	109.400000
2709.235430	104.900000
2710.618869	102.100000
2711.998912	102.500000
2713.380297	95.000000
2714.759867	93.500000
2716.140777	85.400000
2717.519873	88.200000
2718.897155	86.700000
2720.275778	91.200000
2721.652587	69.500000
2723.029161	64.500000
2724.405499	66.800000
2725.780025	71.600000
2727.155892	77.500000
2728.528373	68.100000
2729.903769	69.500000
2731.274205	55.700000
2732.645981	72.000000
2734.017524	76.500000
2735.387258	60.200000
2736.758332	48.400000
2738.127599	56.000000
2739.496632	40.200000
2740.863859	58.900000
2742.230852	49.100000
2743.597613	56.500000
2744.964141	58.400000
2746.328865	59.900000
2747.693356	62.600000
2749.057616	58.400000
2750.421643	54.200000
2751.785438	48.300000
2753.145861	60.200000
2754.509193	41.200000
2755.867583	33.700000
2757.228883	53.800000
2758.586813	45.100000
2759.947651	34.300000
2761.306689	36.400000
2762.662360	42.700000
2764.020938	75.200000
2765.376149	40.900000
2766.731131	39.800000
2768.084316	41.300000
2769.440408	26.200000
2770.793136	44.300000
2772.145636	37.300000
2773.497907	47.300000
2774.851516	37.500000
2776.201765	38.400000
2777.550219	34.300000
2778.901578	42.600000
2780.249579	48.100000
2781.598917	47.700000
2782.946463	51.800000
2784.293783	38.200000
2785.640875	39.600000
2786.986177	41.600000
2788.331253	50.300000
2789.676103	46.000000
2791.020727	39.200000
2792.361999	25.200000
2793.704608	41.900000
2795.046993	46.300000
2796.389152	39.700000
2797.727962	36.700000
2799.069672	28.100000
2800.408033	37.300000
2801.747732	32.400000
2803.085646	55.700000
2804.421774	52.200000
2805.757680	47.900000
2807.094923	50.000000
2808.430382	40.700000
2809.765617	46.700000
2811.099071	38.800000
2812.433861	55.600000
2813.765311	41.500000
2815.099656	30.500000
2816.429102	36.200000
2817.759886	44.100000
2819.090449	44.200000
2820.419232	55.600000
2821.749351	41.300000
2823.077692	40.100000
2824.405812	42.700000
2825.732154	59.300000
2827.059832	27.000000
2828.384178	42.200000
2829.709860	50.400000
2831.033766	45.500000
2832.357452	30.800000
2833.682474	25.900000
2835.004167	43.300000
2836.325641	49.900000
2837.646895	59.500000
2838.967932	42.800000
2840.287195	67.600000
2841.607794	36.900000
2842.926621	59.400000
2844.245231	36.900000
2845.562069	48.600000
2846.878690	51.400000
2848.195094	39.500000
2849.509728	42.400000
2850.825697	44.400000
2852.138347	47.100000
2853.452331	39.500000
2854.766099	35.800000
2856.079650	46.700000
2857.391435	47.300000
2858.701453	39.500000
2860.012806	34.100000
2861.320844	23.200000
2862.630216	32.700000
2863.939373	49.200000
2865.248316	44.900000
2866.555494	27.400000
2867.860910	35.700000
2869.167659	43.900000
2870.472647	38.600000
2871.777420	37.400000
2873.080433	44.500000
2874.386326	39.900000
2875.687365	46.400000
2876.989737	46.600000
2878.290351	27.000000
2879.592297	33.600000
2880.894031	46.800000
2882.192461	32.900000
2883.492224	18.400000
2884.790230	48.800000
2886.088024	43.600000
2887.384062	49.500000
2888.681432	28.200000
2889.977048	38.900000
2891.272452	37.400000
2892.567645	44.100000
2893.859541	41.300000
2895.154312	25.700000
2896.445788	34.300000
2897.738596	31.600000
2899.031194	17.600000
2900.320497	46.300000
2901.611134	40.800000
2902.900019	31.500000
2904.190236	32.200000
2905.477162	29.100000
2906.765420	29.700000
2908.051929	57.800000
2909.338229	42.800000
2910.624321	48.900000
2911.908665	43.200000
2913.195881	32.600000
2914.478270	34.300000
2915.761991	55.100000
2917.043965	24.800000
2918.325733	27.500000
2919.605755	30.500000
2920.888648	27.700000
2922.169794	26.800000
2923.447659	40.100000
2924.728393	40.800000
2926.005847	43.100000
2927.283094	27.700000
2928.558599	46.400000
2929.836972	42.200000
2931.110531	31.900000
2932.386957	42.700000
2933.661642	31.700000
2934.934586	30.800000
2936.208862	31.200000
2937.481398	59.300000
2938.753729	31.200000
2940.022788	32.400000
2941.294712	39.400000
2942.564898	37.800000
2943.834880	39.700000
2945.104659	36.800000
2946.372702	36.200000
2947.639008	35.800000
2948.905112	34.700000
2950.172547	32.700000
2951.438246	42.600000
2952.703744	43.500000
2953.969039	32.300000
2955.231069	32.600000
2956.494429	37.600000
2957.757588	25.500000
2959.019015	35.600000
2960.281771	44.100000
2961.542795	45.100000
2962.802089	48.500000
2964.061182	35.500000
2965.320076	34.200000
2966.578769	29.600000
2967.837261	45.800000
2969.094025	42.300000
2970.350590	20.600000
2971.605426	44.300000
2972.861592	36.600000
2974.114503	44.400000
2975.368742	33.900000
2976.622783	30.700000
2977.875098	40.700000
2979.127215	44.800000
2980.377607	36.200000
2981.630854	40.400000
2982.879324	27.400000
2984.130649	35.100000
2985.378724	49.800000
2986.626602	36.000000
2987.874284	33.300000
2989.121768	23.000000
2990.367531	37.100000
2991.613098	50.400000
2992.859992	34.900000
2994.103642	29.900000
2995.348619	32.100000
2996.590354	24.300000
2997.834940	34.600000
2999.077807	32.500000
3000.317433	21.500000
3001.559909	40.000000
3002.799145	35.400000
3004.039709	28.100000
3005.278556	39.700000
3006.517209	22.500000
3007.754146	38.100000
3008.992411	41.900000
3010.228960	30.000000
3011.465316	43.500000
3012.701478	34.600000
3013.935926	29.600000
3015.170181	34.800000
3016.404244	34.200000
3017.636593	33.900000
3018.867231	38.700000
3020.100715	40.500000
3021.332488	50.400000
3022.562549	34.500000
3023.792419	44.000000
3025.020579	40.300000
3026.250066	23.800000
3027.477843	34.800000
3028.705429	35.800000
3029.934341	27.300000
3031.158511	28.400000
3032.385524	23.300000
3033.609314	40.900000
3034.834429	42.800000
3036.057839	30.400000
3037.281058	34.500000
3038.502572	22.400000
3039.726927	22.300000
3040.946547	40.800000
3042.167493	31.700000
3043.388249	44.600000
3044.607303	25.100000
3045.827681	37.500000
3047.044843	36.300000
3048.263330	39.300000
3049.480116	29.800000
3050.696713	39.900000
3051.913123	43.300000
3053.126319	31.500000
3054.342353	38.400000
3055.555175	27.300000
3056.770834	39.300000
3057.981771	14.800000
3059.194032	29.100000
3060.406106	19.800000
3061.617994	48.400000
3062.828185	42.900000
3064.038189	22.400000
3065.248007	18.800000
3066.456129	37.900000
3067.664066	41.500000
3068.870307	26.100000
3070.077873	24.900000
3071.283744	24.450000
3072.489430	24.000000
3073.694932	33.300000
3074.898740	23.200000
3076.103872	24.700000
3077.307311	40.600000
3078.509059	12.600000
3079.710622	24.700000
3080.912002	24.500000
3082.113198	14.600000
3083.312704	22.000000
3084.512027	35.800000
3085.712673	38.400000
3086.911629	31.100000
3088.107391	20.000000
3089.305981	19.000000
3090.501378	32.800000
3091.698099	36.000000
3092.891627	18.200000
3094.087983	30.900000
3095.282652	28.100000
3096.474131	28.600000
3097.669942	34.200000
3098.861058	43.300000
3100.053498	10.200000
3101.242749	45.300000
3102.434827	31.300000
3103.625221	25.500000
3104.812429	39.000000
3106.000959	19.800000
3107.190812	33.100000
3108.377480	29.400000
3109.563969	31.500000
3110.750279	31.300000
3111.937910	29.600000
3113.122359	38.500000
3114.305129	26.000000
3115.490721	31.800000
3116.674634	11.900000
3117.856867	39.200000
3119.038923	24.200000
3120.220800	30.300000
3121.402499	14.900000
3122.582521	41.800000
3123.760866	22.300000
3124.942031	16.600000
3126.120021	28.400000
3127.297834	29.700000
3128.475470	0.000000
3129.651431	36.500000
3130.827216	23.100000
3132.004321	46.100000
3133.179753	21.200000
3134.353511	37.400000
3135.525596	23.700000
3136.699003	15.600000
3137.872233	36.800000
3139.043792	27.800000
3140.216671	26.900000
3141.386383	24.200000
3142.557416	23.600000
3143.726778	36.800000
3144.894471	25.000000
3146.064979	30.600000
3147.230829	21.500000
3148.400987	26.200000
3149.566488	30.200000
3150.731816	30.900000
3151.896970	18.200000
3153.061951	29.800000
3154.228251	36.400000
3155.389898	41.700000
3156.552866	20.800000
3157.715661	31.500000
3158.878283	10.100000
3160.039239	28.300000
3161.200024	30.400000
3162.360636	25.600000
3163.519584	30.400000
3164.678361	36.900000
3165.836965	19.100000
3166.995398	30.200000
3168.153660	30.600000
3169.310259	27.500000
3170.465197	38.600000
3171.621454	31.800000
3172.776050	31.500000
3173.930476	31.800000
3175.083242	32.400000
3176.235837	43.600000
3177.388263	26.400000
3178.540518	19.000000
3179.692604	12.300000
3180.841543	32.300000
3181.993289	28.800000
3183.143378	33.500000
3184.291810	28.000000
3185.440072	37.500000
3186.588166	32.300000
3187.736091	36.300000
3188.882360	17.300000
3190.028461	30.300000
3191.172908	36.500000
3192.317187	33.600000
3193.461297	26.100000
3194.606726	14.600000
3195.749016	32.800000
3196.891139	14.200000
3198.033094	32.400000
3199.174882	11.000000
3200.316503	23.000000
3201.454989	38.900000
3202.594792	23.200000
3203.735912	40.200000
3204.873899	27.900000
3206.010235	23.700000
3207.146407	29.000000
3208.283895	26.800000
3209.419735	21.300000
3210.556892	27.500000
3211.689436	30.600000
3212.826261	28.100000
3213.958476	28.200000
3215.092007	22.200000
3216.225373	26.200000
3217.355613	23.900000
3218.488650	25.800000
3219.618561	9.900000
3220.749788	13.000000
3221.877891	9.700000
3223.008790	21.800000
3224.138045	17.200000
3225.265657	17.000000
3226.390146	42.700000
3227.518911	33.000000
3228.644554	43.000000
3229.770034	28.400000
3230.893873	7.500000
3232.020507	31.200000
3233.142543	29.900000
3234.265895	29.800000
3235.389085	33.700000
3236.512112	19.200000
3237.633501	40.400000
3238.754727	30.500000
3239.874315	28.600000
3240.993742	27.500000
3242.111532	35.100000
3243.232113	31.000000
3244.349581	19.700000
3245.466888	28.500000
3246.584035	24.900000
3247.699545	33.100000
3248.816371	38.600000
3249.930087	38.700000
3251.046592	27.900000
3252.161462	38.600000
3253.273224	52.600000
3254.384827	41.300000
3255.497745	44.900000
3256.610503	35.600000
3257.720155	33.100000
3258.831122	26.700000
3259.941930	30.700000
3261.051106	25.300000
3262.158651	27.000000
3263.267511	22.800000
3264.376212	28.200000
3265.481811	23.300000
3266.588725	16.200000
3267.694009	25.800000
3268.800607	35.400000
3269.904105	24.800000
3271.008917	33.700000
3272.113572	11.000000
3273.215129	18.900000
3274.316529	24.000000
3275.419243	9.200000
3276.521801	10.000000
3277.621262	30.100000
3278.723507	28.200000
3279.822656	22.900000
3280.920180	22.600000
3282.017550	21.000000
3283.117701	37.800000
3284.214760	14.900000
3285.311663	32.800000
3286.408411	31.900000
3287.500600	31.100000
3288.597039	38.500000
3289.691855	19.100000
3290.786517	27.000000
3291.879556	20.800000
3292.972442	22.300000
3294.063707	28.600000
3295.156285	19.300000
3296.247243	23.000000
3297.336581	17.500000
3298.425766	22.900000
3299.516263	42.200000
3300.603677	30.100000
3301.690937	20.900000
3302.779510	13.600000
3303.867930	20.900000
3304.951804	14.300000
3306.039919	33.400000
3307.124952	47.300000
3308.208370	18.500000
3309.293100	21.800000
3310.376214	16.700000
3311.460641	24.400000
3312.541989	16.300000
3313.624649	17.400000
3314.705694	13.300000
3315.786589	41.300000
3316.865871	15.400000
3317.945002	28.400000
3319.025445	31.900000
3320.102813	23.500000
3321.181493	26.900000
3322.258561	19.000000
3323.335479	34.400000
3324.410787	9.400000
3325.485945	19.200000
3326.562414	33.200000
3327.635813	16.600000
3328.709062	8.400000
3329.783623	6.800000
3330.856575	28.200000
3331.927918	26.200000
3333.000572	41.200000
3334.070159	31.400000
3335.141058	34.100000
3336.210349	34.300000
3337.280950	27.700000
3338.349946	22.700000
3339.417335	19.000000
3340.483119	38.200000
3341.553129	17.700000
3342.620076	8.200000
3343.683961	12.300000
3344.750613	23.100000
3345.815662	28.100000
3346.879107	0.900000
3347.942406	17.500000
3349.005558	18.600000
3350.068564	20.000000
3351.131424	17.000000
3352.192681	13.200000
3353.250882	20.000000
3354.313304	27.600000
3355.372670	28.200000
3356.431890	24.400000
3357.492419	30.200000
3358.548440	27.100000
3359.607224	33.300000
3360.661501	42.300000
3361.718542	46.200000
3362.773984	29.100000
3363.830736	31.500000
3364.885889	25.600000
3365.939445	13.000000
3366.991404	28.300000
3368.046126	21.600000
3369.097798	23.100000
3370.149327	33.200000
3371.202164	28.400000
3372.251954	20.700000
3373.303053	11.100000
3374.351105	24.700000
3375.401918	22.800000
3376.449685	26.600000
3377.497310	16.200000
3378.544793	29.000000
3379.590683	30.600000
3380.637881	40.000000
3381.682037	21.900000
3382.728951	26.900000
3383.774273	28.700000
3384.816554	19.500000
3385.858694	18.200000
3386.902143	31.800000
3387.945450	33.000000
3388.987167	19.900000
3390.028744	17.000000
3391.070179	19.400000
3392.110026	25.300000
3393.148284	20.300000
3394.187850	16.200000
3395.227276	22.800000
3396.265114	31.100000
3397.301365	24.900000
3398.337477	23.100000
3399.374895	19.700000
3400.409281	17.500000
3401.444975	10.600000
3402.480529	2.600000
3403.513052	25.000000
3404.548327	10.300000
3405.580573	28.700000
3406.612680	22.100000
3407.643203	36.200000
3408.675033	13.700000
3409.706725	21.700000
3410.735389	16.500000
3411.763916	21.300000
3412.793749	16.600000
3413.823445	25.000000
3414.850115	6.000000
3415.878091	19.700000
3416.903044	28.400000
3417.930746	27.900000
3418.955424	46.800000
3419.981409	25.100000
3421.005815	16.300000
3422.030084	30.000000
3423.052774	11.000000
3424.075328	17.700000
3425.099188	16.700000
3426.120028	26.500000
3427.140732	13.900000
3428.162742	8.700000
3429.181734	8.900000
3430.200591	23.500000
3431.220754	13.800000
3432.237900	33.400000
