-116.264276	4.700000
-113.594676	3.600000
-110.928011	7.280000
-108.262098	11.760000
-105.599117	10.990000
-102.934707	11.840000
-100.273227	4.630000
-97.610317	15.920000
-94.952515	2.620000
-92.293282	6.730000
-89.634798	6.560000
-86.979239	8.270000
-84.322251	7.570000
-81.670360	16.330000
-79.017040	8.400000
-76.366640	8.580000
-73.714810	10.150000
-71.068071	7.360000
-68.419902	12.210000
-65.772477	9.900000
-63.127965	10.070000
-60.482025	10.040000
-57.841166	15.170000
-55.198878	14.140000
-52.559498	10.610000
-49.918690	18.620000
-47.278622	16.850000
-44.643626	19.820000
-42.007201	18.430000
-39.373680	22.850000
-36.738730	22.420000
-34.108845	29.320000
-31.475368	31.920000
-28.846953	42.190000
-26.219271	48.360000
-23.590162	57.890000
-20.966109	58.370000
-18.338467	96.290000
-15.715878	115.720000
-13.094020	193.160000
-10.472894	357.590000
-7.852497	887.910000
-5.234988	3304.870000
-2.616051	10117.230000
0.000000	27166.550000
2.615323	40745.310000
5.229919	18482.230000
7.841632	1776.190000
10.454774	289.550000
13.062882	166.790000
15.674572	110.850000
18.281231	75.800000
20.889318	63.460000
23.496681	68.210000
26.099019	60.790000
28.704935	50.530000
31.305829	33.800000
33.908152	36.050000
36.505456	26.240000
39.106336	26.210000
41.702202	22.230000
44.299495	22.010000
46.896069	21.900000
49.487634	21.890000
52.080627	17.950000
54.670759	17.000000
57.262319	16.200000
59.851019	10.320000
62.441146	17.080000
65.026275	12.220000
67.612831	13.160000
70.198672	17.460000
72.781660	11.920000
75.366075	10.590000
77.943360	11.110000
80.524212	10.280000
83.102215	8.090000
85.679508	6.590000
88.258227	4.450000
90.831965	9.560000
93.407129	6.990000
95.979450	13.590000
98.551063	16.560000
101.119837	11.690000
103.690036	12.050000
106.257398	15.340000
108.826186	15.480000
111.392136	14.480000
113.955252	12.170000
116.521924	17.830000
119.079375	23.460000
121.642511	32.020000
124.200688	30.960000
126.762418	50.480000
129.319193	63.540000
131.877393	97.570000
134.430641	135.150000
136.983190	189.700000
139.539290	263.400000
142.090443	330.560000
144.640897	363.070000
147.190655	391.730000
149.737593	426.660000
152.283835	435.580000
154.831503	451.720000
157.378476	457.940000
159.920512	429.700000
162.461855	423.860000
165.002505	429.730000
167.544581	433.830000
170.083846	428.330000
172.620301	430.010000
175.156066	427.880000
177.693256	421.990000
180.229754	415.410000
182.763447	415.540000
185.294337	414.060000
187.824538	416.950000
190.356164	409.470000
192.884989	411.260000
195.411015	406.550000
197.936356	408.670000
200.463121	405.550000
202.987089	412.370000
205.510373	414.560000
208.032972	415.470000
210.552778	408.870000
213.071901	408.240000
215.590341	410.520000
218.110205	415.500000
220.623068	414.410000
223.139462	425.630000
225.655174	414.170000
228.165997	422.220000
230.678244	421.330000
233.187708	417.940000
235.696494	424.500000
238.204602	429.660000
240.714133	432.230000
243.218785	427.920000
245.722760	435.430000
248.228159	439.020000
250.728683	442.940000
253.232730	444.940000
255.729807	445.190000
258.230406	452.720000
260.728234	453.810000
263.225389	449.940000
265.721871	458.180000
268.213490	465.920000
270.708629	461.430000
273.201002	469.510000
275.692704	465.450000
278.181643	468.670000
280.672005	464.330000
283.159606	467.710000
285.644447	471.040000
288.132802	478.090000
290.614218	473.040000
293.099148	474.490000
295.579233	481.850000
298.062830	493.960000
300.541584	482.490000
303.021762	495.290000
305.499187	496.680000
307.975949	499.550000
310.452048	520.670000
312.925398	531.360000
315.398086	549.650000
317.870113	598.410000
320.341479	663.640000
322.810101	706.970000
325.278063	699.390000
327.747448	637.710000
330.212010	586.570000
332.680075	562.040000
335.143321	542.140000
337.605910	546.280000
340.067841	533.470000
342.529116	540.140000
344.987657	529.190000
347.447620	540.250000
349.904850	542.500000
352.361426	541.980000
354.817348	540.960000
357.270541	538.160000
359.725155	541.300000
362.174968	536.480000
364.628278	541.000000
367.076788	537.200000
369.524648	538.840000
371.973929	546.900000
374.418417	539.180000
376.864327	537.600000
379.309588	536.260000
381.752130	535.570000
384.194024	534.500000
386.635270	548.330000
389.073801	539.850000
391.513754	538.910000
393.950993	536.210000
396.385520	534.440000
398.823535	545.830000
401.256773	536.120000
403.691433	539.420000
406.121319	546.570000
408.554691	540.070000
410.983293	537.000000
413.411254	535.420000
415.840635	542.940000
418.265251	545.820000
420.691289	551.960000
423.116686	539.500000
425.541443	541.460000
427.961442	546.980000
430.382862	549.680000
432.801585	550.240000
435.221729	557.070000
437.639178	549.160000
440.058047	551.590000
442.474223	549.720000
444.885652	547.610000
447.300557	543.960000
449.712772	550.110000
452.124353	546.060000
454.535300	541.050000
456.943561	533.960000
459.351189	543.700000
461.758186	527.010000
464.164550	526.080000
466.568232	523.890000
468.971284	512.270000
471.373706	514.200000
473.775499	501.620000
476.174613	504.560000
478.575147	501.260000
480.975052	499.860000
483.370234	508.420000
485.768883	515.060000
488.162812	521.090000
490.556115	512.340000
492.948792	497.930000
495.340844	487.210000
497.734315	466.430000
500.123073	442.670000
502.509165	427.970000
504.896677	411.990000
507.283565	388.550000
509.667790	367.210000
512.053434	359.320000
514.436415	341.700000
516.816736	331.960000
519.198476	319.410000
521.577557	311.620000
523.958057	304.920000
526.335899	294.530000
528.711086	296.930000
531.085655	285.400000
533.461643	279.220000
535.834977	280.080000
538.209729	272.040000
540.579796	279.170000
542.949247	266.380000
545.320116	261.810000
547.686305	259.420000
550.053912	259.490000
552.418873	257.280000
554.783221	259.420000
557.146957	250.300000
559.512110	260.820000
561.872590	243.240000
564.234489	250.370000
566.593748	243.910000
568.950368	243.750000
571.310433	243.010000
573.663808	246.720000
576.020627	231.820000
578.374810	235.160000
580.728386	237.250000
583.081353	232.520000
585.431689	233.770000
587.783441	239.510000
590.128517	225.020000
592.479057	222.170000
594.822924	224.220000
597.172251	232.790000
599.516931	233.610000
601.858985	234.390000
604.202457	234.910000
606.543306	223.800000
608.883553	225.250000
611.221179	224.440000
613.562240	217.120000
615.898664	221.150000
618.236504	211.630000
620.571726	214.770000
622.904333	207.020000
625.238356	201.970000
627.569766	205.250000
629.900577	204.930000
632.230790	200.150000
634.560405	205.800000
636.885398	203.670000
639.215832	199.920000
641.541644	202.020000
643.864850	194.780000
646.189471	197.590000
648.511488	190.450000
650.832910	189.380000
653.151729	192.270000
655.471964	186.100000
657.791606	192.670000
660.108647	188.620000
662.425096	193.910000
664.738948	182.480000
667.054214	183.140000
669.366884	183.170000
671.680969	187.830000
673.990454	175.850000
676.301355	181.620000
678.609663	181.940000
680.917383	177.210000
683.226518	179.120000
685.531060	176.950000
687.835015	165.540000
690.138385	173.450000
692.443169	176.040000
694.743367	169.590000
697.044979	166.210000
699.346007	165.530000
701.642452	169.440000
703.940313	168.420000
706.237590	162.870000
708.534284	167.230000
710.826402	160.490000
713.121931	161.110000
715.412887	170.530000
717.705257	168.600000
719.995051	163.640000
722.284266	166.730000
724.572900	164.350000
726.858963	170.570000
729.146439	166.870000
731.431345	170.740000
733.715672	167.420000
735.997431	169.930000
738.280604	173.010000
740.563200	177.030000
742.841241	176.770000
745.120695	175.570000
747.399574	171.780000
749.677877	180.730000
751.951631	174.530000
754.226799	174.270000
756.501393	179.520000
758.773428	179.870000
761.046875	175.590000
763.317765	182.880000
765.586099	176.900000
767.855846	180.970000
770.123039	184.410000
772.389661	189.680000
774.655714	186.470000
776.919214	192.270000
779.184128	193.120000
781.448472	194.990000
783.708287	195.730000
785.969515	195.460000
788.230175	198.050000
790.488288	199.230000
792.743857	199.760000
795.002817	193.700000
797.255278	194.670000
799.513106	196.140000
801.766414	193.600000
804.017183	189.770000
806.269364	189.990000
808.519007	189.720000
810.770061	182.640000
813.016604	186.420000
815.264559	180.670000
817.509980	181.460000
819.756812	180.510000
822.003083	175.060000
824.244850	174.240000
826.489999	169.240000
828.728676	171.060000
830.970736	176.720000
833.208297	167.120000
835.447269	174.560000
837.683715	162.900000
839.921572	163.480000
842.156905	162.740000
844.389713	156.370000
846.623933	162.260000
848.855631	160.340000
851.086774	150.060000
853.317362	157.860000
855.547396	149.350000
857.776875	156.320000
860.001873	155.710000
862.230246	154.750000
864.454140	151.090000
866.679444	150.580000
868.900273	155.450000
871.124474	153.970000
873.344202	159.520000
875.565341	156.350000
877.785929	154.240000
880.004007	162.480000
882.223496	158.880000
884.438518	161.440000
886.652992	160.680000
888.866919	157.300000
891.080298	155.400000
893.293130	156.070000
895.505416	158.940000
897.715199	157.160000
899.924437	151.850000
902.133130	158.460000
904.339324	153.630000
906.546927	151.220000
908.752033	153.610000
910.956595	155.800000
913.158661	153.750000
915.362137	157.130000
917.563119	154.940000
919.763560	152.320000
921.965409	148.360000
924.160866	154.300000
926.359683	150.590000
928.554062	157.140000
930.751797	151.870000
932.945097	155.480000
935.139806	158.100000
937.332029	155.260000
939.523714	160.080000
941.714861	165.650000
943.903525	156.240000
946.091652	174.180000
948.277299	167.320000
950.466298	166.040000
952.650874	170.350000
954.834915	179.110000
957.022306	176.510000
959.201393	183.090000
961.383831	182.210000
963.565735	189.000000
965.745165	195.140000
967.922122	194.590000
970.100486	199.930000
972.280258	199.440000
974.453681	205.790000
976.630450	207.400000
978.802813	210.150000
980.976582	211.910000
983.145948	211.180000
985.318659	222.570000
987.488903	222.740000
989.658619	221.530000
991.827806	231.260000
993.992596	225.560000
996.160727	228.270000
998.324464	233.320000
1000.489607	229.930000
1002.652292	237.670000
1004.814450	234.950000
1006.974152	247.380000
1009.133330	243.900000
1011.293914	249.110000
1013.452043	250.350000
1015.609648	257.960000
1017.766730	252.490000
1019.923289	260.900000
1022.075468	255.440000
1024.229053	261.110000
1026.382117	262.990000
1028.532733	269.300000
1030.684754	267.760000
1032.832402	271.640000
1034.983382	271.790000
1037.129991	279.190000
1039.276082	278.150000
1041.421653	288.800000
1043.568630	283.300000
1045.709319	286.840000
1047.853336	292.170000
1049.994913	299.020000
1052.135974	289.130000
1054.278439	302.050000
1056.414625	289.730000
1058.554137	299.640000
1060.689293	295.790000
1062.827774	300.560000
1064.961901	297.260000
1067.095515	300.170000
1069.230534	293.000000
1071.361203	290.160000
1073.493277	287.690000
1075.622922	285.920000
1077.752055	277.410000
1079.880676	277.270000
1082.008786	267.570000
1084.134470	263.470000
1086.259644	259.570000
1088.386222	255.230000
1090.508463	255.970000
1092.632107	251.970000
1094.751418	243.150000
1096.875957	242.220000
1098.994251	236.690000
1101.113950	234.820000
1103.231230	231.970000
1105.348004	240.150000
1107.464271	225.480000
1109.578123	228.470000
1111.693378	213.280000
1113.804311	224.100000
1115.918555	206.440000
1118.028479	215.340000
1120.139807	208.420000
1122.250630	207.840000
1124.357138	205.550000
1126.466954	206.880000
1128.572456	202.790000
1130.679361	202.880000
1132.780051	200.780000
1134.885953	193.020000
1136.987546	196.640000
1139.090542	192.920000
1141.193037	189.200000
1143.289325	196.670000
1145.390821	194.160000
1147.488014	189.030000
1149.584708	184.130000
1151.680904	186.040000
1153.776603	195.880000
1155.871804	192.860000
1157.964608	184.350000
1160.058814	183.440000
1162.146829	181.170000
1164.240042	187.800000
1166.327067	182.060000
1168.417391	183.460000
1170.503428	176.830000
1172.592762	178.360000
1174.675915	173.970000
1176.760471	180.530000
1178.846427	180.440000
1180.928102	174.310000
1183.011179	177.500000
1185.091870	179.380000
1187.172069	170.620000
1189.251777	172.970000
1191.330994	171.000000
1193.407829	169.490000
1195.482283	174.360000
1197.560029	173.040000
1199.633504	171.310000
1201.708380	172.370000
1203.778989	163.010000
1205.851000	169.800000
1207.920634	164.610000
1209.991669	169.650000
1212.062216	164.880000
1214.128502	162.570000
1216.196189	161.030000
1218.261504	162.060000
1220.328219	162.330000
1222.390678	160.780000
1224.456422	154.840000
1226.517913	157.940000
1228.580803	152.350000
1230.641326	155.220000
1232.701365	151.390000
1234.760922	152.810000
1236.818113	152.740000
1238.874823	149.930000
1240.929170	145.710000
1242.986797	144.320000
1245.042062	142.740000
1247.093086	144.930000
1249.145510	145.110000
1251.197454	147.250000
1253.247040	138.080000
1255.296147	141.400000
1257.344776	143.320000
1259.392926	139.100000
1261.440598	144.460000
1263.484039	141.360000
1265.530755	134.400000
1267.575118	139.210000
1269.619005	136.860000
1271.660541	139.090000
1273.699727	122.310000
1275.742185	142.460000
1277.780421	133.890000
1279.820056	134.360000
1281.859216	128.380000
1283.894157	137.280000
1285.930498	134.420000
1287.964493	135.920000
1289.999887	126.550000
1292.031067	127.740000
1294.063646	126.110000
1296.095752	129.290000
1298.125518	125.970000
1300.156682	128.470000
1302.183638	128.030000
1304.211992	126.600000
1306.236142	132.920000
1308.263556	129.140000
1310.286768	129.300000
1312.311378	129.670000
1314.333654	133.500000
1316.357327	132.650000
1318.378667	130.680000
1320.399539	124.240000
1322.419945	129.080000
1324.436156	129.090000
1326.453766	128.640000
1328.469047	128.710000
1330.487586	126.480000
1332.501937	127.860000
1334.513962	126.790000
1336.529244	130.520000
1338.540341	117.510000
1340.552835	129.540000
1342.561146	125.910000
1344.572713	135.440000
1346.578240	136.560000
1348.587023	129.150000
1350.591628	129.090000
1352.599487	131.150000
1354.606884	133.780000
1356.608250	134.310000
1358.611013	139.360000
1360.613315	133.750000
1362.615158	128.510000
1364.616541	129.620000
1366.615611	132.010000
1368.614222	130.170000
1370.612375	131.720000
1372.610070	131.150000
1374.603601	127.330000
1376.598529	128.500000
1378.593000	127.400000
1380.587014	126.120000
1382.578721	131.290000
1384.569972	133.510000
1386.558918	125.990000
1388.549259	132.710000
1390.539145	120.420000
1392.526728	131.340000
1394.513856	127.270000
1396.498684	129.970000
1398.484905	124.910000
1400.468827	134.040000
1402.452296	130.730000
1404.435313	131.630000
1406.416031	126.040000
1408.398145	135.580000
1410.377961	130.880000
1412.357327	138.420000
1414.332553	133.680000
1416.311019	137.840000
1418.287190	131.480000
1420.262913	127.640000
1422.238186	130.950000
1424.211168	132.390000
1426.183702	132.790000
1428.155789	131.950000
1430.127427	131.230000
1432.094937	133.620000
1434.067522	135.590000
1436.032300	133.490000
1438.002151	136.640000
1439.967877	130.890000
1441.934996	136.250000
1443.899832	137.530000
1445.860549	132.280000
1447.826333	141.580000
1449.786162	135.520000
1451.747384	143.150000
1453.709999	141.970000
1455.668499	141.240000
1457.626557	137.720000
1459.584172	141.020000
1461.541346	140.920000
1463.496244	145.380000
1465.452534	136.610000
1467.406550	137.850000
1469.360126	136.850000
1471.311429	147.840000
1473.264124	142.340000
1475.214548	135.330000
1477.164533	139.680000
1479.114078	141.260000
1481.061355	136.560000
1483.006365	140.220000
1484.952766	144.140000
1486.898731	141.570000
1488.844257	151.550000
1490.787519	152.750000
1492.730344	153.410000
1494.670906	156.050000
1496.612859	150.850000
1498.552551	155.500000
1500.491807	152.090000
1502.430628	163.610000
1504.367190	148.800000
1506.305143	164.080000
1508.240838	156.130000
1510.176099	162.410000
1512.109103	163.670000
1514.041675	164.190000
1515.973815	160.770000
1517.905523	159.520000
1519.834977	163.220000
1521.765822	166.440000
1523.696236	163.990000
1525.622576	169.880000
1527.550308	170.080000
1529.475789	176.590000
1531.400841	177.930000
1533.325464	180.910000
1535.249658	185.480000
1537.171605	194.240000
1539.094941	195.720000
1541.016032	198.930000
1542.934878	210.000000
1544.855114	220.780000
1546.773106	228.180000
1548.690672	234.590000
1550.605996	256.040000
1552.522710	279.670000
1554.435369	300.830000
1556.351232	337.140000
1558.264855	356.880000
1560.176241	382.810000
1562.089015	413.570000
1563.997740	475.370000
1565.907855	545.650000
1567.817546	647.820000
1569.726813	789.220000
1571.633847	970.780000
1573.538648	1201.930000
1575.444838	1519.450000
1577.348796	1853.650000
1579.252334	2154.430000
1581.155450	2292.730000
1583.056338	2242.690000
1584.958613	1962.880000
1586.858661	1608.380000
1588.760096	1271.490000
1590.657498	995.930000
1592.554481	805.300000
1594.451046	660.490000
1596.348999	553.420000
1598.241117	477.840000
1600.136428	414.530000
1602.031322	371.840000
1603.923994	332.710000
1605.816250	309.410000
1607.706286	278.980000
1609.595906	265.170000
1611.485110	249.890000
1613.373900	231.710000
1615.260473	222.650000
1617.148432	220.250000
1619.032375	214.130000
1620.917706	200.720000
1622.802622	197.880000
1624.685326	190.920000
1626.569415	178.990000
1628.449494	179.130000
1630.330959	179.060000
1632.210214	167.830000
1634.090855	170.180000
1635.965692	161.860000
1637.845511	161.750000
1639.721324	160.660000
1641.596727	155.240000
1643.473517	160.220000
1645.344509	156.670000
1647.218683	156.860000
1649.088859	152.400000
1650.962215	159.060000
1652.833368	150.560000
1654.702319	150.490000
1656.572656	149.420000
1658.438999	150.540000
1660.306728	147.140000
1662.172259	147.170000
1664.039174	139.550000
1665.902101	152.090000
1667.766413	140.730000
1669.628529	139.890000
1671.490241	142.140000
1673.353337	145.380000
1675.214239	144.550000
1677.072947	144.360000
1678.931252	140.480000
1680.790942	142.380000
1682.644865	134.640000
1684.501960	131.070000
1686.358653	138.770000
1688.211370	139.660000
1690.067258	144.740000
1691.919171	140.890000
1693.770684	137.340000
1695.621796	140.830000
1697.472508	133.820000
1699.322819	137.660000
1701.170946	137.550000
1703.020456	141.410000
1704.864218	135.170000
1706.712929	136.430000
1708.555895	135.100000
1710.402026	143.980000
1712.244196	136.090000
1714.089530	142.370000
1715.929124	134.620000
1717.770102	140.860000
1719.612463	140.580000
1721.450868	141.550000
1723.290656	133.400000
1725.128269	142.850000
1726.965486	138.590000
1728.800530	148.060000
1730.636957	139.130000
1732.471212	144.380000
1734.305072	138.500000
1736.138539	142.570000
1737.968059	142.130000
1739.800738	143.800000
1741.629473	144.800000
1743.461366	151.170000
1745.289316	147.190000
1747.116874	149.000000
1748.944040	154.570000
1750.770815	150.170000
1752.597199	148.300000
1754.419646	151.830000
1756.245247	151.180000
1758.066914	144.050000
1759.889963	143.750000
1761.710851	144.370000
1763.531349	139.020000
1765.353229	146.890000
1767.169409	138.940000
1768.988741	143.680000
1770.804146	146.140000
1772.622701	142.430000
1774.437331	142.860000
1776.251575	141.160000
1778.065431	130.690000
1779.878901	141.980000
1781.690218	140.630000
1783.502916	139.440000
1785.315227	138.930000
1787.123621	136.680000
1788.933396	141.080000
1790.739255	139.440000
1792.548260	135.320000
1794.353352	139.520000
1796.159825	137.910000
1797.965914	136.690000
1799.768093	136.720000
1801.573415	133.910000
1803.374829	138.010000
1805.177623	134.420000
1806.976511	135.930000
1808.776780	137.400000
1810.576667	140.710000
1812.374413	144.190000
1814.171777	138.640000
1815.968762	134.500000
1817.765366	137.220000
1819.559831	130.040000
1821.355675	138.490000
1823.145865	137.830000
1824.940951	137.050000
1826.730384	143.810000
1828.522954	144.960000
1830.313389	138.950000
1832.101690	130.800000
1833.893126	144.000000
1835.678916	137.510000
1837.466086	143.150000
1839.251124	141.320000
1841.039296	135.980000
1842.823582	133.080000
1844.605739	138.080000
1846.389274	136.520000
1848.170681	141.330000
1849.953467	130.330000
1851.732373	141.100000
1853.512657	136.460000
1855.290815	140.450000
1857.070352	137.170000
1858.847764	136.860000
1860.623052	140.490000
1862.399719	143.870000
1864.174262	131.450000
1865.950184	139.140000
1867.720486	144.150000
1869.493914	137.620000
1871.265223	136.930000
1873.036162	141.580000
1874.808477	132.120000
1876.575180	141.710000
1878.345007	139.620000
1880.110971	143.410000
1881.880059	133.070000
1883.645285	143.640000
1885.410142	138.340000
1887.176377	135.130000
1888.938753	139.270000
1890.700762	142.180000
1892.462403	132.310000
1894.223678	136.780000
1895.984585	136.270000
1897.745126	139.320000
1899.503557	133.940000
1901.261623	139.580000
1903.017580	139.210000
1904.774915	136.350000
1906.531883	131.980000
1908.286746	137.130000
1910.039503	134.370000
1911.791897	141.070000
1913.545666	130.520000
1915.297332	138.880000
1917.046896	131.580000
1918.797836	135.290000
1920.548412	133.440000
1922.295149	137.440000
1924.043263	138.090000
1925.789277	138.340000
1927.536667	139.750000
1929.281958	133.500000
1931.025152	136.780000
1932.769722	139.450000
1934.512195	134.430000
1936.254308	139.250000
1937.996061	135.140000
1939.737455	140.410000
1941.476755	134.230000
1943.215695	136.950000
1944.954278	136.480000
1946.690768	138.940000
1948.426901	135.995000
1950.164408	133.050000
1951.898093	138.990000
1953.633153	136.510000
1955.366125	135.330000
1957.098740	135.190000
1958.830998	132.960000
1960.562900	138.440000
1962.292716	133.120000
1964.020448	139.000000
1965.749553	136.170000
1967.478304	138.270000
1969.204971	138.160000
1970.931284	133.280000
1972.658970	142.450000
1974.381120	141.510000
1976.106371	141.690000
1977.827816	139.620000
1979.552360	134.200000
1981.274825	144.570000
1982.993486	141.330000
1984.715246	136.030000
1986.433204	143.270000
1988.152535	139.430000
1989.868067	141.750000
1991.588420	138.310000
1993.304973	142.280000
1995.017731	140.060000
1996.733584	141.870000
1998.447364	142.310000
2000.160795	142.330000
2001.872155	141.360000
2003.584888	140.570000
2005.293829	140.330000
2007.005864	134.960000
2008.712389	139.150000
2010.422007	136.860000
2012.129557	145.010000
2013.836760	144.130000
2015.541897	142.550000
2017.246687	133.730000
2018.952849	135.700000
2020.655229	140.130000
2022.358981	143.750000
2024.060669	142.220000
2025.762013	137.440000
2027.463011	138.820000
2029.161949	144.120000
2030.862257	138.070000
2032.558791	135.350000
2034.256696	143.080000
2035.952542	143.070000
2037.651474	143.030000
2039.344920	129.710000
2041.039738	133.900000
2042.734212	137.440000
2044.424918	135.840000
2046.118708	144.880000
2047.808731	133.490000
2049.500125	140.350000
2051.189466	139.540000
2052.880177	133.730000
2054.567126	137.820000
2056.253734	137.490000
2057.941713	134.760000
2059.625932	135.200000
2061.311521	132.680000
2062.996771	136.350000
2064.679973	139.310000
2066.364544	131.960000
2068.043653	131.950000
2069.727547	133.950000
2071.405981	134.080000
2073.087491	139.080000
2074.765251	131.820000
2076.442673	129.170000
2078.121466	134.550000
2079.798215	131.230000
2081.472923	133.130000
2083.149000	140.180000
2084.823037	134.710000
2086.496738	137.950000
2088.170104	135.200000
2089.841432	128.960000
2091.512425	133.830000
2093.183084	134.970000
2094.853408	126.010000
2096.523399	133.680000
2098.191354	130.690000
2099.858976	131.550000
2101.524564	128.230000
2103.191520	135.060000
2104.856442	135.040000
2106.521033	135.220000
2108.183592	130.080000
2109.847519	131.450000
2111.509416	134.630000
2113.170981	133.890000
2114.832215	133.570000
2116.491421	130.350000
2118.150297	132.420000
2119.808842	136.350000
2121.467058	133.120000
2123.121550	134.240000
2124.779107	130.440000
2126.436335	132.510000
2128.089841	128.580000
2129.744715	131.510000
2131.395871	131.510000
2133.050088	128.350000
2134.700589	129.980000
2136.352456	137.900000
2137.998915	135.690000
2139.650129	134.530000
2141.297629	133.630000
2142.946496	133.630000
2144.593345	136.380000
2146.239867	135.150000
2147.886064	136.970000
2149.528553	136.570000
2151.174100	132.800000
2152.815940	138.360000
2154.460837	137.550000
2156.102029	132.140000
2157.742897	132.410000
2159.383441	137.300000
2161.021974	135.130000
2162.661872	137.030000
2164.298070	133.920000
2165.935634	130.530000
2167.572875	130.440000
2169.208107	133.310000
2170.843018	136.350000
2172.477607	138.470000
2174.111874	132.540000
2175.742449	132.590000
2177.376074	126.030000
2179.006008	135.760000
2180.637307	137.430000
2182.266602	135.540000
2183.895576	129.200000
2185.524232	128.230000
2187.152568	130.430000
2188.778901	133.490000
2190.404916	131.080000
2192.028930	138.960000
2193.654308	127.390000
2195.277687	136.390000
2196.902429	130.710000
2198.523491	134.000000
2200.144236	138.000000
2201.766346	128.780000
2203.386458	130.230000
2205.004573	137.370000
2206.622373	125.520000
2208.239858	136.330000
2209.857027	134.370000
2211.473881	132.660000
2213.090420	134.180000
2214.704965	131.000000
2216.317518	128.800000
2217.931435	131.930000
2219.543361	134.820000
2221.156650	131.860000
2222.767949	130.930000
2224.377258	129.790000
2225.987931	125.870000
2227.596615	132.270000
2229.204987	131.380000
2230.811371	132.550000
2232.419119	128.150000
2234.024880	129.850000
2235.630330	134.090000
2237.233795	137.330000
2238.838624	130.910000
2240.441468	130.910000
2242.042329	131.380000
2243.644553	130.220000
2245.244794	133.080000
2246.846398	135.460000
2248.444350	130.470000
2250.043664	134.870000
2251.640998	132.380000
2253.238023	133.870000
2254.836411	131.100000
2256.431150	131.900000
2258.023912	129.000000
2259.618037	127.010000
2261.213523	130.250000
2262.805365	130.720000
2264.396900	131.730000
2265.989796	133.000000
2267.577383	131.120000
2269.169667	131.710000
2270.756643	133.740000
2272.346648	133.780000
2273.931348	127.340000
2275.520742	132.040000
2277.104833	127.890000
2278.690286	132.070000
2280.273769	134.230000
2281.860279	124.820000
2283.443155	127.470000
2285.025727	126.590000
2286.607996	127.680000
2288.186636	128.820000
2289.768299	123.090000
2291.346334	137.120000
2292.927392	127.430000
2294.504824	126.960000
2296.080291	126.490000
2297.658781	125.320000
2299.233647	123.720000
2300.808212	128.030000
2302.382477	121.900000
2303.956441	125.360000
2305.530105	128.720000
2307.103468	126.660000
2308.673213	126.130000
2310.242659	126.560000
2311.815124	129.230000
2313.382313	125.910000
2314.952521	127.070000
2316.519114	129.590000
2318.087067	123.920000
2319.653065	131.880000
2321.218764	128.800000
2322.784167	134.590000
2324.347616	137.820000
2325.912423	152.700000
2327.473623	170.170000
2329.037837	202.300000
2330.596790	211.630000
2332.158756	190.850000
2333.718772	156.950000
2335.278492	137.760000
2336.836263	130.980000
2338.393740	132.360000
2339.950921	130.750000
2341.506156	134.660000
2343.061096	131.750000
2344.615743	128.160000
2346.170096	139.550000
2347.724155	135.360000
2349.277920	131.110000
2350.829742	133.180000
2352.379620	126.090000
2353.932506	137.910000
2355.480150	133.290000
2357.030801	132.810000
2358.577862	131.280000
2360.126280	135.960000
2361.674406	129.440000
2363.218944	138.440000
2364.764841	136.290000
2366.308798	132.120000
2367.854113	132.870000
2369.395843	135.410000
2370.938930	130.570000
2372.480082	131.650000
2374.020944	134.450000
2375.561517	136.540000
2377.101801	135.610000
2378.641796	135.910000
2380.178212	135.750000
2381.717630	137.270000
2383.253471	138.190000
2384.790668	136.850000
2386.324290	137.830000
2387.860913	134.820000
2389.395604	139.670000
2390.928366	135.900000
2392.460842	138.010000
2393.991389	138.130000
2395.524934	133.170000
2397.053268	139.760000
2398.582958	133.330000
2400.112363	140.880000
2401.641482	139.070000
2403.170317	136.200000
2404.693946	137.730000
2406.222212	141.580000
2407.745274	143.060000
2409.272970	139.330000
2410.793827	143.800000
2412.319317	147.980000
2413.841246	139.710000
2415.364531	147.100000
2416.885895	142.400000
2418.405339	147.140000
2419.926138	144.200000
2421.445018	152.850000
2422.963616	148.160000
2424.480297	150.170000
2425.998332	150.530000
2427.516086	156.540000
2429.030289	154.990000
2430.544211	158.970000
2432.057853	156.580000
2433.572850	172.990000
2435.084298	167.610000
2436.597101	176.230000
2438.107991	173.850000
2439.618601	185.590000
2441.127300	183.240000
2442.638986	182.240000
2444.147127	179.720000
2445.654991	183.340000
2447.162577	184.580000
2448.666622	186.940000
2450.173653	178.920000
2451.678775	178.610000
2453.183620	180.980000
2454.686558	180.390000
2456.189219	175.880000
2457.691604	174.030000
2459.192084	174.200000
2460.693917	171.800000
2462.193846	168.860000
2463.693499	177.560000
2465.192876	168.240000
2466.690351	173.440000
2468.185925	162.920000
2469.684478	166.750000
2471.179502	161.360000
2472.675880	167.480000
2474.168731	164.390000
2475.662934	164.430000
2477.156864	158.030000
2478.647271	160.900000
2480.140654	158.560000
2481.632140	164.120000
2483.121729	155.860000
2484.611046	156.870000
2486.098468	152.520000
2487.588865	157.010000
2489.075743	157.590000
2490.563973	153.830000
2492.048687	155.070000
2493.533130	154.100000
2495.018925	152.290000
2496.502827	150.920000
2497.988081	147.560000
2499.468201	149.800000
2500.951293	143.940000
2502.432495	149.270000
2503.913428	146.120000
2505.392472	145.240000
2506.871247	143.540000
2508.349754	151.650000
2509.827993	143.610000
2511.305963	146.590000
2512.780429	142.210000
2514.257863	141.710000
2515.731794	144.740000
2517.207076	148.110000
2518.682090	145.920000
2520.153603	146.530000
2521.626466	140.580000
2523.097447	148.430000
2524.569778	147.640000
2526.036996	145.210000
2527.507179	149.240000
2528.975482	144.150000
2530.443520	143.300000
2531.911293	151.390000
2533.378801	152.460000
2534.846044	149.390000
2536.309795	148.740000
2537.774896	152.020000
2539.238120	148.450000
2540.702694	151.090000
2542.163778	146.570000
2543.626212	148.390000
2545.088383	142.060000
2546.547068	148.720000
2548.010325	147.770000
2549.468485	150.380000
2550.927994	146.530000
2552.382410	149.230000
2553.841395	141.850000
2555.298509	154.350000
2556.753752	145.590000
2558.208734	148.230000
2559.661846	150.170000
2561.116307	149.830000
2562.568899	146.370000
2564.021231	149.810000
2565.471695	145.930000
2566.925115	148.610000
2568.373453	149.730000
2569.824747	145.080000
2571.274174	149.060000
2572.720130	154.830000
2574.169040	147.130000
2575.614479	152.040000
2577.061267	150.470000
2578.506191	152.650000
2579.950858	155.400000
2581.396872	159.380000
2582.839419	155.350000
2584.283314	160.080000
2585.723744	154.150000
2587.165522	160.160000
2588.605439	153.380000
2590.046704	156.220000
2591.484508	159.760000
2592.925261	159.300000
2594.360951	157.200000
2595.799591	158.120000
2597.236374	156.220000
2598.671300	159.920000
2600.109175	157.480000
2601.541991	157.390000
2602.976155	164.570000
2604.408465	166.380000
2605.842121	160.670000
2607.273924	165.860000
2608.705474	164.920000
2610.136770	167.600000
2611.566214	165.420000
2612.995407	172.570000
2614.422748	173.600000
2615.851436	177.340000
2617.279871	175.090000
2618.704859	172.470000
2620.131194	174.240000
2621.555680	185.790000
2622.981512	174.500000
2624.403900	188.940000
2625.827634	191.660000
2627.249521	194.800000
2628.671159	193.580000
2630.090951	193.960000
2631.512089	198.380000
2632.932977	197.170000
2634.350427	197.270000
2635.770816	205.580000
2637.187768	202.300000
2638.604472	213.690000
2640.020927	212.260000
2641.437134	219.650000
2642.853092	219.260000
2644.267210	227.030000
2645.681081	231.120000
2647.093112	232.920000
2648.506488	237.120000
2649.916434	241.070000
2651.329315	253.820000
2652.738769	254.900000
2654.147976	261.890000
2655.555347	273.760000
2656.965652	283.210000
2658.374121	294.140000
2659.780755	300.280000
2661.187144	299.900000
2662.591699	311.660000
2663.997598	323.790000
2665.401664	334.530000
2666.805486	357.200000
2668.209063	353.390000
2669.610808	371.080000
2671.013897	374.160000
2672.413569	392.850000
2673.814583	389.610000
2675.212182	411.290000
2676.612711	412.930000
2678.009825	420.740000
2679.408282	417.470000
2680.804911	429.950000
2682.201298	430.940000
2683.597444	432.000000
2684.991763	430.220000
2686.387425	425.620000
2687.779677	432.430000
2689.173273	433.190000
2690.565044	434.160000
2691.958157	443.730000
2693.349447	445.140000
2694.738914	451.290000
2696.128141	457.970000
2697.517129	465.160000
2698.907459	478.220000
2700.292804	483.550000
2701.681073	487.300000
2703.067522	501.540000
2704.453732	515.130000
2705.839704	536.350000
2707.222276	558.880000
2708.606191	587.570000
2709.989868	609.440000
2711.373307	633.320000
2712.753350	644.720000
2714.134735	673.890000
2715.514304	693.710000
2716.895215	698.360000
2718.274311	709.370000
2719.651592	701.530000
2721.030215	689.660000
2722.407025	678.680000
2723.783599	652.790000
2725.159937	636.630000
2726.534463	599.740000
2727.910330	572.520000
2729.282810	547.690000
2730.658206	535.060000
2732.028642	500.400000
2733.400419	477.340000
2734.771961	459.080000
2736.141695	434.690000
2737.512770	412.040000
2738.882037	398.260000
2740.251070	375.010000
2741.618296	363.560000
2742.985290	348.910000
2744.352051	329.290000
2745.718579	308.970000
2747.083302	302.180000
2748.447794	282.680000
2749.812053	267.700000
2751.176080	250.740000
2752.539876	251.250000
2753.900298	236.200000
2755.263631	229.610000
2756.622021	214.680000
2757.983321	207.470000
2759.341250	205.580000
2760.702089	194.180000
2762.061127	184.000000
2763.416797	186.850000
2764.775375	185.360000
2766.130587	182.510000
2767.485569	168.800000
2768.838754	174.780000
2770.194846	171.540000
2771.547574	168.800000
2772.900073	167.010000
2774.252344	167.480000
2775.605954	163.970000
2776.956202	164.490000
2778.304657	159.570000
2779.656016	155.190000
2781.004016	150.620000
2782.353355	151.910000
2783.700901	155.140000
2785.048220	151.830000
2786.395313	152.190000
2787.740615	147.710000
2789.085691	146.590000
2790.430541	149.880000
2791.775164	142.350000
2793.116436	140.050000
2794.459046	144.480000
2795.801430	146.670000
2797.143590	140.890000
2798.482400	142.180000
2799.824109	139.970000
2801.162471	136.280000
2802.502170	140.350000
2803.840083	141.900000
2805.176212	136.490000
2806.512117	139.320000
2807.849360	138.910000
2809.184819	138.800000
2810.520055	139.010000
2811.853508	135.900000
2813.188299	138.950000
2814.519748	141.570000
2815.854093	139.140000
2817.183540	135.350000
2818.514324	135.780000
2819.844886	134.690000
2821.173669	127.880000
2822.503788	137.780000
2823.832129	132.040000
2825.160249	132.680000
2826.486592	133.080000
2827.814270	128.440000
2829.138616	127.680000
2830.464297	134.030000
2831.788203	133.830000
2833.111890	132.870000
2834.436912	129.250000
2835.758604	130.670000
2837.080078	125.330000
2838.401333	128.370000
2839.722369	128.070000
2841.041633	129.110000
2842.362232	125.850000
2843.681059	128.720000
2844.999668	122.540000
2846.316506	128.940000
2847.633128	121.410000
2848.949531	124.530000
2850.264166	123.950000
2851.580135	127.580000
2852.892784	120.470000
2854.206769	118.320000
2855.520536	120.020000
2856.834088	129.980000
2858.145872	120.180000
2859.455890	122.750000
2860.767243	121.190000
2862.075281	121.910000
2863.384654	125.060000
2864.693811	129.260000
2866.002753	125.680000
2867.309932	125.460000
2868.615347	128.160000
2869.922097	124.880000
2871.227084	121.040000
2872.531858	120.870000
2873.834870	124.330000
2875.140764	122.650000
2876.441802	122.490000
2877.744175	124.670000
2879.044788	124.790000
2880.346735	116.290000
2881.648469	122.280000
2882.946898	127.270000
2884.246662	119.960000
2885.544667	120.330000
2886.842461	117.640000
2888.138499	122.770000
2889.435870	118.610000
2890.731485	114.150000
2892.026889	116.530000
2893.322083	121.610000
2894.613978	126.130000
2895.908750	120.980000
2897.200225	124.020000
2898.493033	117.400000
2899.785631	115.760000
2901.074935	126.330000
2902.365571	112.750000
2903.654456	121.570000
2904.944674	125.680000
2906.231600	113.120000
2907.519858	119.420000
2908.806366	115.300000
2910.092667	121.730000
2911.378759	125.940000
2912.663103	120.850000
2913.950319	121.010000
2915.232707	124.050000
2916.516428	121.510000
2917.798403	117.100000
2919.080171	123.750000
2920.360193	111.740000
2921.643085	121.960000
2922.924232	117.200000
2924.202097	115.930000
2925.482831	119.650000
2926.760284	115.630000
2928.037531	116.860000
2929.313037	121.690000
2930.591410	119.210000
2931.864968	116.230000
2933.141394	116.950000
2934.416079	118.730000
2935.689024	120.410000
2936.963299	118.040000
2938.235835	115.530000
2939.508167	122.080000
2940.777225	117.330000
2942.049149	122.980000
2943.319335	114.190000
2944.589318	122.380000
2945.859097	114.910000
2947.127139	113.020000
2948.393446	115.250000
2949.659550	122.800000
2950.926984	117.170000
2952.192684	115.770000
2953.458181	113.170000
2954.723476	111.770000
2955.985506	121.150000
2957.248867	114.260000
2958.512025	114.200000
2959.773452	118.610000
2961.036208	112.380000
2962.297233	118.100000
2963.556526	115.880000
2964.815620	108.470000
2966.074513	115.980000
2967.333206	117.970000
2968.591699	116.910000
2969.848463	116.530000
2971.105027	114.530000
2972.359864	113.870000
2973.616030	111.510000
2974.868940	120.370000
2976.123180	112.590000
2977.377221	118.430000
2978.629536	113.510000
2979.881653	113.840000
2981.132045	112.170000
2982.385292	119.240000
2983.633762	111.860000
2984.885086	118.230000
2986.133162	111.970000
2987.381040	119.900000
2988.628721	108.120000
2989.876206	113.960000
2991.121969	114.690000
2992.367535	111.770000
2993.614429	114.080000
2994.858079	116.630000
2996.103057	112.340000
2997.344792	114.630000
2998.589378	115.240000
2999.832244	108.420000
3001.071870	111.680000
3002.314346	117.060000
3003.553583	111.980000
3004.794147	115.180000
3006.032994	115.200000
3007.271647	112.430000
3008.508584	106.880000
3009.746848	116.470000
3010.983398	101.740000
3012.219753	110.540000
3013.455915	109.910000
3014.690364	111.060000
3015.924619	111.350000
3017.158681	107.910000
3018.391031	109.290000
3019.621669	112.450000
3020.855153	108.320000
3022.086925	115.280000
3023.316987	112.130000
3024.546857	116.490000
3025.775017	112.170000
3027.004503	111.860000
3028.232281	111.230000
3029.459867	112.100000
3030.688779	113.260000
3031.912949	113.380000
3033.139962	108.120000
3034.363751	111.390000
3035.588867	106.340000
3036.812276	113.150000
3038.035496	111.370000
3039.257010	111.340000
3040.481365	105.860000
3041.700985	109.620000
3042.921930	108.490000
3044.142687	114.140000
3045.361740	106.550000
3046.582119	110.760000
3047.799281	109.390000
3049.017768	109.170000
3050.234554	102.360000
3051.451151	107.610000
3052.667560	106.630000
3053.880757	109.950000
3055.096791	100.360000
3056.309613	111.810000
3057.525272	106.780000
3058.736208	103.630000
3059.948469	102.580000
3061.160544	102.190000
3062.372432	103.160000
3063.582622	106.710000
3064.792626	102.360000
3066.002445	102.960000
3067.210567	109.790000
3068.418503	114.270000
3069.624745	103.070000
3070.832310	111.920000
3072.038182	109.725000
3073.243868	107.530000
3074.449369	102.230000
3075.653177	109.300000
3076.858309	101.260000
3078.061749	111.380000
3079.263496	102.080000
3080.465060	109.330000
3081.666440	104.670000
3082.867636	109.280000
3084.067142	105.270000
3085.266464	111.550000
3086.467110	108.250000
3087.666066	104.650000
3088.861828	105.990000
3090.060419	109.310000
3091.255816	108.030000
3092.452536	111.980000
3093.646064	102.040000
3094.842421	100.430000
3096.037090	96.810000
3097.228569	103.150000
3098.424379	101.640000
3099.615496	107.280000
3100.807935	102.530000
3101.997187	103.530000
3103.189265	95.230000
3104.379658	104.830000
3105.566866	99.620000
3106.755397	110.690000
3107.945250	107.010000
3109.131918	103.480000
3110.318407	105.340000
3111.504716	102.660000
3112.692347	104.210000
3113.876797	105.180000
3115.059566	102.920000
3116.245159	105.580000
3117.429071	99.420000
3118.611305	101.590000
3119.793360	104.350000
3120.975238	105.780000
3122.156937	100.810000
3123.336958	106.970000
3124.515303	102.630000
3125.696469	108.370000
3126.874459	101.440000
3128.052272	103.350000
3129.229908	98.470000
3130.405869	103.980000
3131.581653	99.250000
3132.758759	97.660000
3133.934190	100.280000
3135.107948	101.640000
3136.280034	95.510000
3137.453440	103.910000
3138.626671	93.330000
3139.798229	100.680000
3140.971109	95.780000
3142.140821	105.630000
3143.311854	105.380000
3144.481216	105.630000
3145.648909	107.050000
3146.819417	103.780000
3147.985266	101.720000
3149.155425	107.200000
3150.320926	103.150000
3151.486254	104.260000
3152.651408	95.110000
3153.816388	103.220000
3154.982689	98.800000
3156.144336	102.380000
3157.307304	101.320000
3158.470098	105.930000
3159.632720	97.320000
3160.793677	98.470000
3161.954461	103.090000
3163.115073	101.670000
3164.274022	100.630000
3165.432798	93.950000
3166.591403	93.510000
3167.749836	104.440000
3168.908097	96.900000
3170.064696	99.970000
3171.219634	100.380000
3172.375891	101.880000
3173.530488	96.730000
3174.684913	97.670000
3175.837679	97.050000
3176.990275	104.160000
3178.142700	102.470000
3179.294956	97.230000
3180.447042	96.760000
3181.595981	96.230000
3182.747727	98.080000
3183.897815	94.610000
3185.046247	101.260000
3186.194510	99.470000
3187.342603	92.060000
3188.490528	96.290000
3189.636798	106.180000
3190.782899	96.920000
3191.927345	99.000000
3193.071624	102.670000
3194.215735	98.830000
3195.361164	101.820000
3196.503453	92.080000
3197.645576	103.980000
3198.787531	96.500000
3199.929320	99.630000
3201.070941	103.910000
3202.209426	96.430000
3203.349229	94.160000
3204.490350	98.820000
3205.628336	97.740000
3206.764673	106.440000
3207.900844	97.030000
3209.038333	97.610000
3210.174173	100.730000
3211.311329	92.250000
3212.443873	95.010000
3213.580699	103.250000
3214.712913	93.170000
3215.846445	97.760000
3216.979811	93.090000
3218.110050	95.970000
3219.243087	98.430000
3220.372998	99.180000
3221.504226	93.470000
3222.632328	98.350000
3223.763227	89.540000
3224.892483	105.190000
3226.020094	101.530000
3227.144584	106.070000
3228.273349	102.450000
3229.398992	104.350000
3230.524472	101.310000
3231.648311	110.380000
3232.774944	112.330000
3233.896980	113.130000
3235.020332	111.130000
3236.143522	118.380000
3237.266550	127.400000
3238.387938	121.360000
3239.509165	138.380000
3240.628753	135.270000
3241.748180	137.620000
3242.865969	145.340000
3243.986551	142.870000
3245.104018	146.910000
3246.221326	147.160000
3247.338472	153.840000
3248.453983	143.920000
3249.570809	140.300000
3250.684524	126.060000
3251.801030	126.030000
3252.915900	114.340000
3254.027662	107.700000
3255.139265	109.060000
3256.252182	100.390000
3257.364941	98.900000
3258.474593	104.180000
3259.585560	95.430000
3260.696367	94.330000
3261.805544	96.630000
3262.913089	98.470000
3264.021949	97.280000
3265.130650	95.770000
3266.236249	98.040000
3267.343162	97.580000
3268.448447	93.120000
3269.555045	99.510000
3270.658543	92.180000
3271.763355	97.550000
3272.868010	90.090000
3273.969566	97.720000
3275.070967	91.720000
3276.173681	94.030000
3277.276238	93.160000
3278.375700	91.320000
3279.477944	96.070000
3280.577094	97.390000
3281.674618	96.900000
3282.771987	88.060000
3283.872139	95.660000
3284.969197	91.670000
3286.066100	93.250000
3287.162849	97.200000
3288.255038	91.310000
3289.351476	91.820000
3290.446293	85.070000
3291.540954	93.100000
3292.633994	87.370000
3293.726880	88.270000
3294.818145	84.380000
3295.910723	88.250000
3297.001680	87.160000
3298.091018	92.140000
3299.180203	86.370000
3300.270701	96.140000
3301.358114	90.960000
3302.445375	93.540000
3303.533948	89.820000
3304.622368	93.370000
3305.706241	86.740000
3306.794356	87.390000
3307.879390	89.370000
3308.962807	90.110000
3310.047537	88.550000
3311.130652	92.400000
3312.215078	89.620000
3313.296426	95.550000
3314.379086	89.990000
3315.460132	96.250000
3316.541027	93.930000
3317.620309	88.740000
3318.699440	89.200000
3319.779882	95.860000
3320.857251	81.890000
3321.935931	93.820000
3323.012999	88.440000
3324.089917	91.020000
3325.165224	92.280000
3326.240382	93.910000
3327.316851	90.860000
3328.390250	93.850000
3329.463500	88.660000
3330.538061	93.950000
3331.611012	86.740000
3332.682356	88.070000
3333.755010	93.560000
3334.824597	87.370000
3335.895495	93.630000
3336.964786	92.240000
3338.035388	87.930000
3339.104383	94.170000
3340.171772	88.140000
3341.237556	99.330000
3342.307566	89.770000
3343.374513	86.410000
3344.438398	84.890000
3345.505051	90.960000
3346.570099	87.360000
3347.633545	93.570000
3348.696843	87.660000
3349.759996	92.390000
3350.823002	88.440000
3351.885861	87.510000
3352.947119	88.790000
3354.005320	86.670000
3355.067742	86.770000
3356.127107	88.630000
3357.186327	84.310000
3358.246857	82.110000
3359.302877	88.720000
3360.361662	89.900000
3361.415939	93.020000
3362.472979	82.900000
3363.528422	90.820000
3364.585173	87.500000
3365.640327	89.180000
3366.693883	91.750000
3367.745842	83.320000
3368.800563	85.690000
3369.852235	85.070000
3370.903764	87.920000
3371.956602	88.220000
3373.006392	89.430000
3374.057490	86.150000
3375.105543	91.830000
3376.156356	81.940000
3377.204123	85.390000
3378.251748	90.100000
3379.299230	87.120000
3380.345120	86.620000
3381.392318	86.120000
3382.436474	90.630000
3383.483388	90.990000
3384.528710	83.830000
3385.570992	89.700000
3386.613132	90.120000
3387.656580	87.980000
3388.699888	82.740000
3389.741605	89.230000
3390.783181	85.540000
3391.824617	87.250000
3392.864463	83.460000
3393.902722	83.560000
3394.942288	88.330000
3395.981713	88.940000
3397.019551	83.170000
3398.055803	86.270000
3399.091914	82.830000
3400.129333	83.840000
3401.163719	85.930000
3402.199412	83.840000
3403.234966	90.390000
3404.267489	85.540000
3405.302765	80.630000
3406.335010	84.550000
3407.367117	86.470000
3408.397640	84.310000
3409.429471	84.450000
3410.461162	89.550000
3411.489827	82.200000
3412.518353	84.010000
3413.548187	84.320000
3414.577882	90.570000
3415.604552	85.770000
3416.632529	89.600000
3417.657481	79.120000
3418.685183	87.180000
3419.709862	83.410000
3420.735847	88.160000
3421.760252	83.890000
3422.784521	87.230000
3423.807211	82.540000
3424.829765	88.010000
3425.853625	82.450000
3426.874465	80.090000
3427.895170	84.850000
3428.917180	81.680000
3429.936172	86.370000
3430.955029	82.180000
3431.975191	79.900000
3432.992337	82.100000
