-116.475622	-10.550000
-113.806022	-6.050000
-111.139357	5.150000
-108.473444	12.650000
-105.810463	8.300000
-103.146053	4.550000
-100.484573	-3.200000
-97.821664	2.900000
-95.163861	0.350000
-92.504629	4.700000
-89.846145	-3.050000
-87.190585	8.450000
-84.533597	8.650000
-81.881707	10.250000
-79.228387	-3.700000
-76.577986	13.150000
-73.926156	5.050000
-71.279417	0.850000
-68.631249	7.900000
-65.983823	-1.900000
-63.339311	-0.600000
-60.693371	15.550000
-58.052512	7.100000
-55.410224	7.000000
-52.770845	-4.100000
-50.130036	8.750000
-47.489968	5.700000
-44.854972	3.850000
-42.218548	6.200000
-39.585026	-0.550000
-36.950076	2.550000
-34.320191	15.050000
-31.686714	1.400000
-29.058299	10.950000
-26.430618	5.400000
-23.801508	18.150000
-21.177455	11.800000
-18.549813	9.850000
-15.927224	16.050000
-13.305367	25.400000
-10.684240	32.500000
-8.063843	90.500000
-5.446335	396.600000
-2.827398	1417.400000
-0.211346	3148.350000
2.403977	3315.450000
5.018573	1885.400000
7.630286	225.100000
10.243428	41.250000
12.851536	20.800000
15.463226	23.200000
18.069885	13.100000
20.677972	15.350000
23.285335	22.000000
25.887673	-1.100000
28.493589	7.750000
31.094483	10.900000
33.696805	6.700000
36.294110	5.400000
38.894990	8.600000
41.490855	-5.850000
44.088149	6.850000
46.684723	-0.300000
49.276288	11.500000
51.869281	24.850000
54.459413	8.250000
57.050973	12.100000
59.639673	23.800000
62.229800	2.450000
64.814928	24.800000
67.401484	2.250000
69.987326	3.850000
72.570314	8.550000
75.154728	15.600000
77.732014	11.300000
80.312866	12.750000
82.890869	10.750000
85.468162	12.250000
88.046881	20.750000
90.620618	2.550000
93.195783	10.900000
95.768104	12.250000
98.339717	16.600000
100.908490	13.700000
103.478690	20.550000
106.046052	13.700000
108.614839	0.650000
111.180790	18.700000
113.743906	4.450000
116.310578	26.300000
118.868029	23.650000
121.431165	46.350000
123.989341	98.800000
126.551072	183.250000
129.107846	306.000000
131.666047	357.000000
134.219294	333.800000
136.771844	302.950000
139.327944	395.400000
141.879096	529.900000
144.429551	664.650000
146.979308	766.350000
149.526246	821.800000
152.072489	819.750000
154.620157	778.800000
157.167129	739.850000
159.709166	705.150000
162.250509	714.050000
164.791159	792.400000
167.333235	842.100000
169.872499	951.800000
172.408955	1035.100000
174.944719	1152.300000
177.481909	1307.050000
180.018408	1483.050000
182.552101	1751.650000
185.082990	2042.400000
187.613192	2433.750000
190.144818	2984.300000
192.673643	3746.400000
195.199669	4643.550000
197.725009	5705.650000
200.251774	6958.450000
202.775743	8160.500000
205.299027	9018.550000
207.821626	9426.550000
210.341432	9047.800000
212.860555	8321.300000
215.378995	7134.450000
217.898859	5972.100000
220.411722	4875.100000
222.928116	3946.000000
225.443828	3308.500000
227.954650	2773.250000
230.466897	2377.150000
232.976362	2015.000000
235.485148	1732.200000
237.993255	1566.000000
240.502787	1385.800000
243.007438	1249.650000
245.511413	1155.200000
248.016812	1074.750000
250.517336	1026.150000
253.021384	994.900000
255.518460	948.900000
258.019060	1013.900000
260.516888	1216.850000
263.014043	1562.650000
265.510525	1930.250000
268.002144	1800.100000
270.497283	1250.850000
272.989655	753.850000
275.481357	563.850000
277.970296	490.600000
280.460659	427.450000
282.948259	404.600000
285.433100	359.900000
287.921456	348.050000
290.402872	317.500000
292.887802	310.600000
295.367887	277.150000
297.851484	278.400000
300.330238	269.250000
302.810416	268.100000
305.287841	237.250000
307.764603	241.950000
310.240702	240.300000
312.714052	250.500000
315.186740	267.600000
317.658767	271.400000
320.130133	268.700000
322.598754	283.100000
325.066717	279.250000
327.536101	274.850000
330.000663	252.700000
332.468729	241.200000
334.931975	250.350000
337.394563	258.200000
339.856495	248.750000
342.317770	269.450000
344.776311	291.150000
347.236274	381.450000
349.693504	589.050000
352.150080	1072.350000
354.606002	1928.000000
357.059194	2418.500000
359.513809	1853.800000
361.963622	1003.550000
364.416931	577.950000
366.865442	429.500000
369.313301	380.400000
371.762583	340.250000
374.207071	324.150000
376.652981	296.550000
379.098241	301.800000
381.540783	300.800000
383.982677	290.650000
386.423924	300.600000
388.862455	340.050000
391.302408	401.950000
393.739647	518.600000
396.174174	545.650000
398.612189	526.500000
401.045427	561.550000
403.480086	640.450000
405.909973	613.450000
408.343345	475.200000
410.771947	374.600000
413.199907	341.200000
415.629289	356.400000
418.053905	380.200000
420.479943	376.650000
422.905340	399.900000
425.330097	425.850000
427.750096	448.900000
430.171516	483.300000
432.590239	524.800000
435.010383	576.600000
437.427832	656.550000
439.846701	760.750000
442.262877	907.900000
444.674305	1148.450000
447.089211	1466.350000
449.501426	1936.650000
451.913007	2687.100000
454.323954	3951.300000
456.732215	6335.550000
459.139843	10803.800000
461.546839	18380.000000
463.953204	27565.400000
466.356886	31832.000000
468.759938	26643.550000
471.162360	17080.450000
473.564152	10163.300000
475.963267	6433.550000
478.363801	4502.500000
480.763706	3406.800000
483.158888	2711.050000
485.557537	2228.500000
487.951466	1895.050000
490.344769	1654.000000
492.737446	1496.200000
495.129498	1319.450000
497.522968	1169.050000
499.911726	1070.350000
502.297818	1005.100000
504.685330	1029.000000
507.072219	1213.400000
509.456444	1417.950000
511.842087	1417.350000
514.225069	1096.650000
516.605390	802.500000
518.987130	655.150000
521.366211	586.700000
523.746711	534.200000
526.124553	499.350000
528.499740	486.250000
530.874309	475.000000
533.250296	436.450000
535.623631	424.550000
537.998383	404.050000
540.368450	390.100000
542.737901	371.100000
545.108770	385.050000
547.474959	352.650000
549.842566	351.900000
552.207527	334.900000
554.571875	318.600000
556.935610	290.900000
559.300763	287.000000
561.661244	265.900000
564.023143	258.500000
566.382401	263.300000
568.739022	262.500000
571.099087	244.650000
573.452461	233.300000
575.809280	250.150000
578.163464	249.350000
580.517039	233.700000
582.870007	245.450000
585.220342	233.350000
587.572095	227.850000
589.917171	263.900000
592.267711	243.600000
594.611577	224.900000
596.960905	242.850000
599.305584	227.400000
601.647639	234.650000
603.991111	206.800000
606.331960	200.900000
608.672207	208.350000
611.009833	199.750000
613.350894	178.550000
615.687317	185.850000
618.025157	190.450000
620.360380	179.850000
622.692987	171.000000
625.027010	190.150000
627.358419	169.800000
629.689230	171.950000
632.019444	156.450000
634.349059	184.150000
636.674051	164.850000
639.004485	177.200000
641.330298	173.000000
643.653503	168.700000
645.978125	168.400000
648.300141	158.500000
650.621563	154.150000
652.940383	151.200000
655.260618	154.600000
657.580260	144.550000
659.897301	139.450000
662.213750	130.200000
664.527601	131.200000
666.842868	132.650000
669.155538	120.850000
671.469623	127.550000
673.779108	125.600000
676.090009	153.550000
678.398317	137.400000
680.706037	144.800000
683.015171	165.750000
685.319713	147.700000
687.623669	167.150000
689.927039	193.100000
692.231823	207.100000
694.532021	245.500000
696.833633	284.150000
699.134661	288.850000
701.431106	250.600000
703.728967	210.750000
706.026244	164.550000
708.322938	158.750000
710.615056	141.800000
712.910585	142.850000
715.201540	135.900000
717.493910	131.450000
719.783705	125.200000
722.072919	131.300000
724.361554	138.300000
726.647616	140.850000
728.935093	127.000000
731.219998	130.350000
733.504326	132.650000
735.786085	124.150000
738.069258	128.400000
740.351854	133.500000
742.629894	131.850000
744.909349	127.200000
747.188227	130.200000
749.466531	133.200000
751.740285	131.650000
754.015452	132.550000
756.290046	122.250000
758.562081	130.500000
760.835529	134.700000
763.106419	138.850000
765.374753	140.900000
767.644500	140.300000
769.911693	141.600000
772.178315	151.450000
774.444367	159.500000
776.707868	145.000000
778.972782	161.550000
781.237126	156.700000
783.496941	174.950000
785.758168	184.000000
788.018828	189.300000
790.276942	202.200000
792.532511	208.450000
794.791471	263.250000
797.043932	281.050000
799.301759	342.800000
801.555068	421.700000
803.805837	558.000000
806.058018	773.100000
808.307660	1040.700000
810.558715	1197.600000
812.805258	1002.450000
815.053213	689.850000
817.298634	461.450000
819.545466	356.500000
821.791737	286.700000
824.033503	255.050000
826.278653	239.650000
828.517330	208.050000
830.759389	221.850000
832.996950	203.700000
835.235923	202.800000
837.472369	201.050000
839.710226	196.200000
841.945558	187.100000
844.178367	186.600000
846.412587	195.600000
848.644284	191.100000
850.875427	179.700000
853.106015	182.200000
855.336049	165.950000
857.565529	180.050000
859.790527	164.550000
862.018900	170.400000
864.242793	150.700000
866.468098	154.700000
868.688927	168.900000
870.913128	149.200000
873.132856	148.550000
875.353994	153.500000
877.574582	149.700000
879.792661	164.750000
882.012149	166.900000
884.227171	172.100000
886.441645	169.350000
888.655572	170.450000
890.868952	174.050000
893.081784	175.400000
895.294070	160.950000
897.503853	172.850000
899.713091	174.350000
901.921784	165.650000
904.127978	147.800000
906.335581	155.900000
908.540686	160.600000
910.745248	162.100000
912.947315	161.500000
915.150791	158.500000
917.351773	159.250000
919.552213	155.650000
921.754062	177.400000
923.949520	162.450000
926.148337	159.550000
928.342715	151.650000
930.540451	147.550000
932.733751	148.150000
934.928460	146.550000
937.120683	123.900000
939.312367	134.000000
941.503514	125.400000
943.692178	123.750000
945.880306	136.550000
948.065953	124.700000
950.254952	138.050000
952.439528	114.800000
954.623569	121.100000
956.810960	124.200000
958.990047	135.750000
961.172485	121.850000
963.354389	119.250000
965.533818	113.500000
967.710775	123.500000
969.889140	114.250000
972.068912	117.050000
974.242335	100.150000
976.419104	118.900000
978.591466	116.650000
980.765236	110.850000
982.934602	125.450000
985.107312	103.100000
987.277557	108.200000
989.447273	104.600000
991.616460	114.200000
993.781250	114.400000
995.949381	105.350000
998.113118	111.850000
1000.278261	111.800000
1002.440945	118.950000
1004.603104	108.200000
1006.762806	108.600000
1008.921983	120.500000
1011.082567	115.400000
1013.240697	122.300000
1015.398302	107.400000
1017.555384	112.150000
1019.711942	126.100000
1021.864121	133.000000
1024.017707	130.100000
1026.170771	119.050000
1028.321386	122.250000
1030.473408	121.900000
1032.621056	121.200000
1034.772036	135.600000
1036.918645	124.200000
1039.064735	129.550000
1041.210307	139.050000
1043.357284	138.900000
1045.497972	150.100000
1047.641990	133.150000
1049.783567	150.650000
1051.924628	147.600000
1054.067093	151.050000
1056.203279	147.600000
1058.342790	165.750000
1060.477947	162.250000
1062.616428	183.150000
1064.750555	182.400000
1066.884169	204.150000
1069.019188	226.050000
1071.149857	248.700000
1073.281931	275.600000
1075.411576	353.400000
1077.540709	483.550000
1079.669330	674.800000
1081.797440	908.300000
1083.923124	959.750000
1086.048298	763.500000
1088.174876	503.800000
1090.297116	327.650000
1092.420761	252.200000
1094.540071	200.750000
1096.664611	179.900000
1098.782905	158.350000
1100.902604	149.350000
1103.019884	149.800000
1105.136658	151.800000
1107.252925	124.750000
1109.366776	129.000000
1111.482032	125.000000
1113.592964	131.750000
1115.707209	113.550000
1117.817133	118.350000
1119.928461	121.600000
1122.039284	107.900000
1124.145791	109.700000
1126.255608	109.150000
1128.361110	102.150000
1130.468015	106.850000
1132.568705	106.050000
1134.674607	103.250000
1136.776200	118.250000
1138.879196	102.950000
1140.981691	118.000000
1143.077979	132.600000
1145.179475	128.800000
1147.276667	133.750000
1149.373362	140.950000
1151.469558	174.500000
1153.565257	213.750000
1155.660457	275.050000
1157.753261	343.350000
1159.847468	391.850000
1161.935483	390.000000
1164.028696	342.700000
1166.115721	261.700000
1168.206045	190.200000
1170.292082	142.000000
1172.381416	127.100000
1174.464569	108.800000
1176.549124	107.500000
1178.635081	106.150000
1180.716756	101.450000
1182.799833	87.350000
1184.880524	98.950000
1186.960723	90.700000
1189.040431	87.100000
1191.119648	98.600000
1193.196483	102.300000
1195.270937	95.900000
1197.348682	99.450000
1199.422158	104.050000
1201.497034	94.050000
1203.567643	89.200000
1205.639653	103.550000
1207.709288	89.600000
1209.780323	108.600000
1211.850870	86.800000
1213.917156	94.650000
1215.984843	103.050000
1218.050158	109.850000
1220.116873	110.650000
1222.179332	118.750000
1224.245076	126.400000
1226.306566	131.900000
1228.369457	141.800000
1230.429980	142.550000
1232.490019	151.400000
1234.549576	144.700000
1236.606767	132.700000
1238.663477	124.550000
1240.717823	109.850000
1242.775451	110.900000
1244.830716	91.200000
1246.881740	89.900000
1248.934164	96.900000
1250.986108	103.650000
1253.035694	88.700000
1255.084801	101.250000
1257.133430	96.100000
1259.181580	87.000000
1261.229251	89.300000
1263.272692	87.100000
1265.319409	97.450000
1267.363772	84.350000
1269.407659	79.500000
1271.449194	87.500000
1273.488380	66.700000
1275.530839	85.800000
1277.569075	76.250000
1279.608710	77.950000
1281.647870	68.900000
1283.682811	83.100000
1285.719151	89.500000
1287.753147	77.050000
1289.788540	74.700000
1291.819721	75.300000
1293.852299	68.050000
1295.884406	72.400000
1297.914172	71.750000
1299.945336	64.600000
1301.972292	67.900000
1304.000646	69.550000
1306.024795	55.000000
1308.052210	84.750000
1310.075422	71.700000
1312.100032	66.500000
1314.122308	64.250000
1316.145981	72.300000
1318.167321	52.600000
1320.188193	71.650000
1322.208598	61.500000
1324.224810	55.800000
1326.242419	60.450000
1328.257700	58.200000
1330.276240	61.700000
1332.290591	68.800000
1334.302616	57.450000
1336.317898	65.050000
1338.328995	59.750000
1340.341489	50.850000
1342.349800	60.100000
1344.361366	63.400000
1346.366894	52.650000
1348.375677	59.350000
1350.380282	70.350000
1352.388141	64.100000
1354.395538	59.500000
1356.396904	66.250000
1358.399666	50.850000
1360.401969	71.650000
1362.403812	72.550000
1364.405195	69.450000
1366.404265	41.550000
1368.402876	60.550000
1370.401029	67.650000
1372.398723	59.450000
1374.392255	54.950000
1376.387182	61.900000
1378.381653	59.600000
1380.375667	60.500000
1382.367374	61.100000
1384.358626	61.250000
1386.347572	67.600000
1388.337913	71.400000
1390.327799	67.650000
1392.315381	64.400000
1394.302510	65.300000
1396.287337	61.900000
1398.273559	61.800000
1400.257481	59.450000
1402.240950	63.800000
1404.223966	71.100000
1406.204685	62.450000
1408.186798	66.350000
1410.166615	57.350000
1412.145980	68.550000
1414.121207	74.150000
1416.099672	71.850000
1418.075844	68.150000
1420.051567	71.700000
1422.026840	62.500000
1423.999822	66.000000
1425.972356	73.950000
1427.944442	67.200000
1429.916081	64.650000
1431.883591	63.350000
1433.856175	70.650000
1435.820953	78.150000
1437.790804	65.350000
1439.756531	61.800000
1441.723650	66.950000
1443.688486	79.900000
1445.649202	61.550000
1447.614986	66.950000
1449.574815	62.550000
1451.536038	86.700000
1453.498653	68.400000
1455.457153	48.750000
1457.415210	69.650000
1459.372826	66.450000
1461.329999	79.050000
1463.284897	72.300000
1465.241188	71.400000
1467.195204	57.900000
1469.148779	66.100000
1471.100082	61.450000
1473.052778	48.100000
1475.003201	72.650000
1476.953186	68.600000
1478.902732	61.650000
1480.850009	67.850000
1482.795018	61.000000
1484.741420	64.350000
1486.687384	74.400000
1488.632911	83.400000
1490.576172	65.850000
1492.518998	67.500000
1494.459560	71.700000
1496.401513	66.100000
1498.341204	66.450000
1500.280461	70.600000
1502.219282	72.900000
1504.155844	70.150000
1506.093797	70.900000
1508.029491	69.500000
1509.964752	65.300000
1511.897757	59.050000
1513.830329	82.400000
1515.762469	70.950000
1517.694177	79.600000
1519.623631	77.700000
1521.554476	79.700000
1523.484889	64.950000
1525.411230	76.850000
1527.338962	67.050000
1529.264443	74.600000
1531.189495	71.550000
1533.114118	71.650000
1535.038312	80.150000
1536.960258	76.150000
1538.883595	53.400000
1540.804685	78.000000
1542.723531	77.350000
1544.643767	88.550000
1546.561760	62.450000
1548.479326	78.050000
1550.394650	77.650000
1552.311364	66.600000
1554.224023	84.200000
1556.139886	79.350000
1558.053509	88.100000
1559.964894	85.700000
1561.877669	71.250000
1563.786394	85.200000
1565.696508	83.400000
1567.606199	81.800000
1569.515467	66.600000
1571.422501	83.300000
1573.327302	80.250000
1575.233492	85.950000
1577.137450	83.500000
1579.040987	79.550000
1580.944104	85.900000
1582.844991	96.600000
1584.747267	81.550000
1586.647315	78.700000
1588.548750	86.800000
1590.446152	72.950000
1592.343135	77.450000
1594.239700	83.600000
1596.137653	75.400000
1598.029771	104.550000
1599.925082	74.150000
1601.819976	79.550000
1603.712648	76.950000
1605.604903	88.550000
1607.494939	82.450000
1609.384559	96.800000
1611.273764	82.850000
1613.162554	102.550000
1615.049126	73.900000
1616.937086	81.300000
1618.821029	82.850000
1620.706359	92.150000
1622.591276	77.000000
1624.473979	93.750000
1626.358069	81.750000
1628.238147	83.450000
1630.119613	86.350000
1631.998868	74.050000
1633.879509	82.300000
1635.754346	89.150000
1637.634164	67.600000
1639.509978	80.550000
1641.385381	71.900000
1643.262170	80.500000
1645.133163	76.850000
1647.007337	83.850000
1648.877512	76.250000
1650.750869	88.700000
1652.622022	70.250000
1654.490973	71.650000
1656.361309	67.650000
1658.227653	70.100000
1660.095382	83.250000
1661.960912	74.000000
1663.827828	72.850000
1665.690755	67.650000
1667.555067	77.850000
1669.417183	84.100000
1671.278894	56.450000
1673.141991	53.350000
1675.002892	86.600000
1676.861601	72.250000
1678.719906	79.000000
1680.579596	80.000000
1682.433518	59.700000
1684.290614	64.550000
1686.147307	70.350000
1688.000023	58.300000
1689.855911	64.500000
1691.707825	63.900000
1693.559338	60.550000
1695.410450	69.950000
1697.261162	55.500000
1699.111473	63.500000
1700.959599	58.450000
1702.809110	56.000000
1704.652872	51.300000
1706.501583	65.650000
1708.344548	54.200000
1710.190680	63.200000
1712.032849	60.850000
1713.878184	66.950000
1715.717778	58.250000
1717.558756	66.650000
1719.401117	59.900000
1721.239522	76.050000
1723.079310	63.400000
1724.916923	53.400000
1726.754140	52.500000
1728.589184	70.850000
1730.425611	52.700000
1732.259866	56.700000
1734.093726	55.300000
1735.927192	59.000000
1737.756713	44.050000
1739.589392	60.100000
1741.418127	57.650000
1743.250019	64.650000
1745.077969	55.150000
1746.905528	55.350000
1748.732694	54.650000
1750.559469	66.550000
1752.385852	56.250000
1754.208299	65.100000
1756.033901	47.000000
1757.855568	60.650000
1759.678617	65.200000
1761.499504	56.250000
1763.320003	64.700000
1765.141882	54.150000
1766.958063	57.800000
1768.777395	68.000000
1770.592800	63.150000
1772.411355	57.450000
1774.225985	64.100000
1776.040228	65.650000
1777.854085	61.500000
1779.667555	53.950000
1781.478872	61.800000
1783.291569	63.350000
1785.103881	52.500000
1786.912275	50.350000
1788.722049	49.450000
1790.527909	57.850000
1792.336914	55.950000
1794.142006	52.900000
1795.948479	53.800000
1797.754568	66.450000
1799.556746	48.550000
1801.362069	59.600000
1803.163483	58.900000
1804.966277	69.800000
1806.765165	59.100000
1808.565434	44.550000
1810.365321	52.850000
1812.163066	54.500000
1813.960431	54.650000
1815.757416	56.450000
1817.554020	60.600000
1819.348485	52.400000
1821.144329	58.700000
1822.934518	56.400000
1824.729604	60.500000
1826.519038	39.600000
1828.311608	47.450000
1830.102043	64.300000
1831.890344	61.850000
1833.681780	57.500000
1835.467570	58.300000
1837.254740	46.850000
1839.039778	63.200000
1840.827950	50.050000
1842.612236	50.100000
1844.394392	59.800000
1846.177928	57.850000
1847.959335	51.600000
1849.742121	55.100000
1851.521026	49.950000
1853.301311	56.150000
1855.079469	62.750000
1856.859006	56.050000
1858.636418	66.200000
1860.411706	64.300000
1862.188372	67.550000
1863.962916	45.950000
1865.738838	52.950000
1867.509139	58.300000
1869.282568	70.450000
1871.053877	57.400000
1872.824815	62.200000
1874.597131	48.450000
1876.363833	59.750000
1878.133661	45.550000
1879.899625	46.900000
1881.668712	57.800000
1883.433938	60.850000
1885.198796	47.150000
1886.965031	53.950000
1888.727407	55.350000
1890.489416	45.550000
1892.251057	60.400000
1894.012332	66.800000
1895.773239	62.950000
1897.533780	51.000000
1899.292211	63.700000
1901.050276	49.550000
1902.806234	49.900000
1904.563568	55.100000
1906.320537	56.300000
1908.075399	60.550000
1909.828157	63.400000
1911.580550	56.150000
1913.334320	42.150000
1915.085986	54.400000
1916.835550	58.900000
1918.586489	49.300000
1920.337066	49.900000
1922.083803	52.150000
1923.831917	44.600000
1925.577931	60.300000
1927.325320	50.550000
1929.070612	40.350000
1930.813806	61.100000
1932.558375	66.600000
1934.300849	56.550000
1936.042962	54.350000
1937.784715	49.750000
1939.526108	50.250000
1941.265408	57.650000
1943.004349	50.250000
1944.742931	45.000000
1946.479422	48.200000
1948.215555	51.800000
1949.953062	55.400000
1951.686747	48.250000
1953.421807	52.650000
1955.154778	43.300000
1956.887393	52.700000
1958.619652	58.650000
1960.351554	58.900000
1962.081370	62.350000
1963.809101	47.750000
1965.538207	60.150000
1967.266958	57.100000
1968.993625	56.850000
1970.719938	58.100000
1972.447624	45.550000
1974.169774	63.800000
1975.895025	51.200000
1977.616469	47.950000
1979.341014	60.750000
1981.063478	54.950000
1982.782140	60.600000
1984.503900	53.400000
1986.221858	53.050000
1987.941189	60.450000
1989.656721	59.400000
1991.377073	60.850000
1993.093627	67.150000
1994.806384	68.500000
1996.522237	59.550000
1998.236018	54.150000
1999.949449	47.600000
2001.660809	68.650000
2003.373541	57.300000
2005.082483	58.800000
2006.794517	56.350000
2008.501043	55.200000
2010.210660	63.900000
2011.918211	75.800000
2013.625413	68.150000
2015.330550	61.450000
2017.035341	57.500000
2018.741503	62.900000
2020.443883	52.800000
2022.147634	67.000000
2023.849323	61.550000
2025.550667	70.500000
2027.251665	53.950000
2028.950602	59.950000
2030.650911	53.550000
2032.347445	70.850000
2034.045350	54.150000
2035.741196	55.650000
2037.440128	54.750000
2039.133574	51.650000
2040.828391	57.000000
2042.522866	59.950000
2044.213572	47.750000
2045.907362	62.550000
2047.597385	54.950000
2049.288779	66.900000
2050.978120	49.100000
2052.668831	56.100000
2054.355779	59.050000
2056.042388	57.100000
2057.730366	52.200000
2059.414585	61.150000
2061.100175	56.700000
2062.785425	64.650000
2064.468626	47.100000
2066.153198	63.750000
2067.832307	51.200000
2069.516201	53.850000
2071.194634	52.650000
2072.876145	43.550000
2074.553904	54.450000
2076.231327	54.550000
2077.910119	52.100000
2079.586869	48.350000
2081.261577	58.550000
2082.937654	51.600000
2084.611691	55.950000
2086.285392	64.800000
2087.958758	54.200000
2089.630085	62.500000
2091.301078	51.500000
2092.971737	48.550000
2094.642062	58.950000
2096.312053	56.950000
2097.980008	66.050000
2099.647630	43.700000
2101.313217	51.500000
2102.980173	51.900000
2104.645096	53.200000
2106.309687	44.000000
2107.972246	54.450000
2109.636173	57.000000
2111.298069	64.450000
2112.959635	55.250000
2114.620869	56.900000
2116.280075	63.550000
2117.938950	57.250000
2119.597496	63.450000
2121.255711	63.350000
2122.910204	71.200000
2124.567761	47.950000
2126.224989	62.200000
2127.878495	51.250000
2129.533369	52.000000
2131.184524	55.100000
2132.838742	74.300000
2134.489243	60.650000
2136.141110	68.200000
2137.787569	51.000000
2139.438783	63.600000
2141.086283	47.650000
2142.735150	62.850000
2144.381998	61.000000
2146.028521	58.650000
2147.674718	48.900000
2149.317207	62.350000
2150.962754	64.750000
2152.604594	64.650000
2154.249491	59.250000
2155.890682	67.900000
2157.531551	56.050000
2159.172095	61.600000
2160.810627	60.850000
2162.450525	55.500000
2164.086723	48.900000
2165.724287	56.400000
2167.361529	55.350000
2168.996761	55.700000
2170.631672	40.300000
2172.266260	53.850000
2173.900528	35.450000
2175.531102	45.900000
2177.164728	61.300000
2178.794662	65.400000
2180.425961	48.650000
2182.055255	52.950000
2183.684230	46.200000
2185.312885	58.900000
2186.941221	45.550000
2188.567555	47.300000
2190.193570	57.650000
2191.817583	58.100000
2193.442962	44.850000
2195.066340	58.300000
2196.691083	49.400000
2198.312145	47.100000
2199.932890	49.350000
2201.555000	50.400000
2203.175112	54.500000
2204.793227	46.250000
2206.411027	45.850000
2208.028512	30.250000
2209.645681	47.400000
2211.262535	57.050000
2212.879073	54.000000
2214.493619	61.100000
2216.106172	51.600000
2217.720089	46.000000
2219.332015	53.850000
2220.945304	52.800000
2222.556603	55.850000
2224.165912	56.150000
2225.776585	54.900000
2227.385269	53.000000
2228.993640	48.400000
2230.600025	55.200000
2232.207773	43.350000
2233.813534	57.500000
2235.418984	41.400000
2237.022449	49.750000
2238.627277	39.850000
2240.230121	63.450000
2241.830982	54.600000
2243.433206	58.200000
2245.033448	50.500000
2246.635052	66.050000
2248.233003	34.600000
2249.832317	63.150000
2251.429651	64.700000
2253.026677	50.350000
2254.625065	56.000000
2256.219804	53.350000
2257.812566	48.800000
2259.406691	53.450000
2261.002177	44.850000
2262.594018	59.700000
2264.185553	53.300000
2265.778450	56.550000
2267.366037	55.100000
2268.958320	49.650000
2270.545297	48.150000
2272.135301	63.650000
2273.720001	63.700000
2275.309395	47.400000
2276.893487	44.200000
2278.478939	52.900000
2280.062423	37.000000
2281.648932	67.200000
2283.231808	54.850000
2284.814381	59.900000
2286.396650	51.100000
2287.975289	53.300000
2289.556953	52.100000
2291.134988	66.200000
2292.716046	53.400000
2294.293477	52.075000
2295.868945	50.750000
2297.447435	47.850000
2299.022301	56.700000
2300.596866	63.950000
2302.171131	53.250000
2303.745095	53.800000
2305.318758	49.950000
2306.892122	50.800000
2308.461867	43.800000
2310.031313	45.300000
2311.603777	54.300000
2313.170967	46.950000
2314.741175	51.350000
2316.307768	57.750000
2317.875721	40.700000
2319.441718	49.950000
2321.007418	55.150000
2322.572820	62.300000
2324.136269	55.750000
2325.701077	56.050000
2327.262277	69.150000
2328.826491	65.650000
2330.385443	62.400000
2331.947410	62.800000
2333.507425	58.550000
2335.067146	49.850000
2336.624917	62.150000
2338.182393	54.950000
2339.739575	50.350000
2341.294809	50.600000
2342.849750	51.350000
2344.404396	48.100000
2345.958749	49.050000
2347.512809	62.200000
2349.066574	51.100000
2350.618395	55.000000
2352.168274	48.500000
2353.721160	41.250000
2355.268803	42.550000
2356.819455	56.650000
2358.366515	47.950000
2359.914933	57.550000
2361.463060	43.800000
2363.007598	47.950000
2364.553494	47.200000
2366.097452	44.300000
2367.642767	40.050000
2369.184497	51.900000
2370.727584	47.700000
2372.268735	63.250000
2373.809597	53.550000
2375.350170	50.000000
2376.890454	57.650000
2378.430449	44.100000
2379.966866	47.100000
2381.506284	72.900000
2383.042124	42.750000
2384.579322	60.100000
2386.112944	53.050000
2387.649566	53.600000
2389.184258	42.900000
2390.717020	54.300000
2392.249495	46.950000
2393.780042	52.550000
2395.313587	41.800000
2396.841921	58.950000
2398.371612	47.100000
2399.901016	54.050000
2401.430136	44.750000
2402.958971	49.950000
2404.482600	47.750000
2406.010865	51.950000
2407.533928	39.100000
2409.061624	55.650000
2410.582481	42.350000
2412.107971	48.600000
2413.629900	63.450000
2415.153185	50.900000
2416.674548	52.400000
2418.193992	54.150000
2419.714791	37.600000
2421.233672	47.300000
2422.752270	63.750000
2424.268951	44.800000
2425.786986	55.200000
2427.304740	56.200000
2428.818943	52.950000
2430.332865	57.950000
2431.846507	55.100000
2433.361504	46.300000
2434.872952	43.350000
2436.385755	54.400000
2437.896644	52.150000
2439.407255	50.150000
2440.915954	51.200000
2442.427639	47.750000
2443.935781	57.550000
2445.443645	50.750000
2446.951231	54.250000
2448.455276	41.600000
2449.962306	48.550000
2451.467428	41.150000
2452.972273	42.850000
2454.475211	46.850000
2455.977873	48.250000
2457.480258	45.050000
2458.980738	58.050000
2460.482571	53.400000
2461.982499	39.500000
2463.482152	66.700000
2464.981530	43.850000
2466.479005	45.000000
2467.974578	61.450000
2469.473131	53.150000
2470.968156	57.400000
2472.464533	42.750000
2473.957384	45.350000
2475.451588	59.250000
2476.945518	47.750000
2478.435924	52.300000
2479.929308	43.450000
2481.420794	43.100000
2482.910383	47.350000
2484.399700	60.950000
2485.887121	48.100000
2487.377518	48.650000
2488.864397	41.950000
2490.352627	50.150000
2491.837340	45.250000
2493.321784	52.700000
2494.807578	48.400000
2496.291481	58.600000
2497.776734	44.200000
2499.256854	57.950000
2500.739947	49.000000
2502.221149	53.150000
2503.702082	32.950000
2505.181126	62.250000
2506.659901	42.350000
2508.138408	42.300000
2509.616647	53.850000
2511.094617	52.100000
2512.569082	44.750000
2514.046517	61.500000
2515.520448	45.000000
2516.995729	53.650000
2518.470743	48.750000
2519.942256	42.450000
2521.415120	50.450000
2522.886101	52.000000
2524.358432	51.750000
2525.825649	48.400000
2527.295833	39.400000
2528.764136	51.300000
2530.232174	50.750000
2531.699947	46.500000
2533.167455	46.550000
2534.634698	49.000000
2536.098449	38.650000
2537.563550	54.100000
2539.026774	59.550000
2540.491347	58.800000
2541.952432	51.450000
2543.414866	44.100000
2544.877037	45.500000
2546.335722	53.600000
2547.798978	62.050000
2549.257139	43.850000
2550.716648	39.300000
2552.171063	44.500000
2553.630049	42.750000
2555.087163	49.800000
2556.542406	40.950000
2557.997387	49.900000
2559.450500	52.850000
2560.904961	45.100000
2562.357552	52.200000
2563.809884	36.250000
2565.260349	49.800000
2566.713769	45.800000
2568.162107	49.400000
2569.613400	53.800000
2571.062828	43.800000
2572.508783	44.000000
2573.957693	40.700000
2575.403133	53.700000
2576.849920	35.550000
2578.294845	44.300000
2579.739511	56.400000
2581.185525	32.700000
2582.628073	31.750000
2584.071968	42.700000
2585.512398	48.350000
2586.954175	40.150000
2588.394093	42.400000
2589.835358	51.300000
2591.273161	41.500000
2592.713914	56.300000
2594.149605	44.150000
2595.588245	40.750000
2597.025027	43.550000
2598.459954	44.750000
2599.897828	46.600000
2601.330645	50.550000
2602.764809	37.650000
2604.197119	54.050000
2605.630775	54.750000
2607.062578	52.350000
2608.494127	52.900000
2609.925424	47.750000
2611.354868	40.950000
2612.784060	38.800000
2614.211402	44.200000
2615.640089	55.050000
2617.068525	47.900000
2618.493513	52.550000
2619.919848	36.050000
2621.344334	55.000000
2622.770166	40.400000
2624.192554	48.450000
2625.616288	48.500000
2627.038175	41.900000
2628.459813	54.400000
2629.879605	50.150000
2631.300743	32.700000
2632.721631	46.650000
2634.139081	42.650000
2635.559470	47.300000
2636.976422	45.350000
2638.393125	46.650000
2639.809580	48.600000
2641.225787	54.350000
2642.641746	45.650000
2644.055864	59.750000
2645.469734	53.800000
2646.881766	38.750000
2648.295141	37.850000
2649.705087	46.300000
2651.117969	48.450000
2652.527422	42.450000
2653.936629	45.000000
2655.344000	48.750000
2656.754305	46.450000
2658.162775	43.850000
2659.569409	60.000000
2660.975798	50.700000
2662.380353	44.250000
2663.786252	57.400000
2665.190318	37.050000
2666.594139	45.750000
2667.997716	40.450000
2669.399462	51.950000
2670.802551	49.450000
2672.202222	44.750000
2673.603237	36.750000
2675.000836	46.000000
2676.401365	61.500000
2677.798478	44.450000
2679.196935	34.250000
2680.593565	52.850000
2681.989952	40.250000
2683.386097	42.950000
2684.780416	37.550000
2686.176078	50.450000
2687.568331	59.350000
2688.961926	32.900000
2690.353697	56.600000
2691.746811	46.100000
2693.138101	49.550000
2694.527568	47.350000
2695.916795	41.400000
2697.305783	45.450000
2698.696112	46.100000
2700.081458	48.650000
2701.469727	27.250000
2702.856176	50.050000
2704.242386	42.650000
2705.628357	54.600000
2707.010930	47.200000
2708.394845	43.950000
2709.778522	34.500000
2711.161960	42.700000
2712.542004	47.150000
2713.923388	53.950000
2715.302958	47.150000
2716.683868	44.950000
2718.062964	42.050000
2719.440246	41.100000
2720.818869	46.000000
2722.195679	49.400000
2723.572252	36.200000
2724.948590	45.200000
2726.323117	41.850000
2727.698984	48.250000
2729.071464	45.900000
2730.446860	56.500000
2731.817296	47.350000
2733.189073	50.300000
2734.560615	37.950000
2735.930349	42.500000
2737.301424	35.600000
2738.670690	52.350000
2740.039723	38.950000
2741.406950	49.150000
2742.773943	48.550000
2744.140704	44.900000
2745.507233	46.100000
2746.871956	45.750000
2748.236447	42.750000
2749.600707	44.300000
2750.964734	43.700000
2752.328530	43.000000
2753.688952	50.550000
2755.052284	44.050000
2756.410674	47.700000
2757.771974	42.300000
2759.129904	33.150000
2760.490742	37.700000
2761.849781	46.350000
2763.205451	39.750000
2764.564029	48.800000
2765.919240	43.700000
2767.274222	37.750000
2768.627408	45.950000
2769.983500	34.100000
2771.336227	42.700000
2772.688727	41.250000
2774.040998	51.900000
2775.394607	55.500000
2776.744856	39.450000
2778.093310	47.600000
2779.444670	44.750000
2780.792670	39.100000
2782.142008	44.200000
2783.489554	45.700000
2784.836874	47.800000
2786.183967	33.850000
2787.529269	45.200000
2788.874344	35.950000
2790.219194	47.050000
2791.563818	41.300000
2792.905090	44.250000
2794.247700	36.050000
2795.590084	45.300000
2796.932243	50.250000
2798.271053	41.500000
2799.612763	43.250000
2800.951125	44.100000
2802.290823	36.050000
2803.628737	48.350000
2804.964866	49.650000
2806.300771	38.850000
2807.638014	32.050000
2808.973473	46.100000
2810.308709	34.200000
2811.642162	34.950000
2812.976952	39.800000
2814.308402	59.250000
2815.642747	36.600000
2816.972194	51.650000
2818.302978	24.600000
2819.633540	44.350000
2820.962323	43.250000
2822.292442	41.150000
2823.620783	41.350000
2824.948903	56.350000
2826.275245	30.350000
2827.602924	46.900000
2828.927269	41.100000
2830.252951	36.400000
2831.576857	43.900000
2832.900544	49.450000
2834.225566	42.700000
2835.547258	47.350000
2836.868732	48.450000
2838.189987	44.200000
2839.511023	32.200000
2840.830286	58.350000
2842.150885	41.250000
2843.469713	44.500000
2844.788322	42.900000
2846.105160	35.700000
2847.421781	44.100000
2848.738185	47.200000
2850.052819	47.750000
2851.368789	35.700000
2852.681438	41.350000
2853.995422	37.650000
2855.309190	40.050000
2856.622741	39.100000
2857.934526	41.300000
2859.244544	41.600000
2860.555897	37.750000
2861.863935	39.500000
2863.173307	49.750000
2864.482465	38.100000
2865.791407	40.050000
2867.098585	42.850000
2868.404001	25.000000
2869.710750	42.750000
2871.015738	34.500000
2872.320512	41.050000
2873.623524	51.500000
2874.929417	36.800000
2876.230456	39.450000
2877.532829	43.650000
2878.833442	38.100000
2880.135389	44.950000
2881.437122	46.300000
2882.735552	48.950000
2884.035315	37.200000
2885.333321	48.400000
2886.631115	39.900000
2887.927153	39.500000
2889.224524	43.400000
2890.520139	36.850000
2891.815543	33.700000
2893.110736	33.400000
2894.402632	36.300000
2895.697404	42.850000
2896.988879	25.950000
2898.281687	41.250000
2899.574285	41.300000
2900.863589	29.800000
2902.154225	29.600000
2903.443110	42.450000
2904.733327	33.550000
2906.020253	32.500000
2907.308511	42.850000
2908.595020	48.250000
2909.881320	45.200000
2911.167413	44.900000
2912.451757	34.200000
2913.738972	47.650000
2915.021361	33.900000
2916.305082	36.750000
2917.587057	40.950000
2918.868824	38.200000
2920.148847	28.250000
2921.431739	44.750000
2922.712886	42.200000
2923.990751	45.500000
2925.271485	45.000000
2926.548938	50.600000
2927.826185	47.500000
2929.101690	46.800000
2930.380063	43.600000
2931.653622	35.400000
2932.930048	31.000000
2934.204733	33.850000
2935.477677	31.350000
2936.751953	37.350000
2938.024489	37.450000
2939.296820	36.200000
2940.565879	43.000000
2941.837803	30.700000
2943.107989	38.650000
2944.377971	45.300000
2945.647750	30.550000
2946.915793	37.550000
2948.182099	45.150000
2949.448204	48.250000
2950.715638	36.450000
2951.981338	42.000000
2953.246835	30.500000
2954.512130	32.550000
2955.774160	39.250000
2957.037520	45.950000
2958.300679	32.250000
2959.562106	39.950000
2960.824862	28.350000
2962.085886	32.700000
2963.345180	36.500000
2964.604274	38.200000
2965.863167	35.050000
2967.121860	49.500000
2968.380353	36.800000
2969.637117	38.000000
2970.893681	29.800000
2972.148518	45.550000
2973.404683	40.500000
2974.657594	43.050000
2975.911834	31.600000
2977.165875	46.450000
2978.418190	38.050000
2979.670306	49.000000
2980.920698	24.900000
2982.173945	26.650000
2983.422415	36.700000
2984.673740	48.600000
2985.921815	23.450000
2987.169694	28.850000
2988.417375	37.750000
2989.664859	36.200000
2990.910622	40.200000
2992.156189	45.800000
2993.403083	32.400000
2994.646733	33.950000
2995.891711	41.350000
2997.133445	39.300000
2998.378031	34.250000
2999.620898	58.900000
3000.860524	42.950000
3002.103000	38.300000
3003.342236	38.500000
3004.582800	40.800000
3005.821648	32.750000
3007.060300	40.350000
3008.297237	28.200000
3009.535502	32.250000
3010.772051	28.550000
3012.008407	42.350000
3013.244569	35.550000
3014.479017	37.900000
3015.713273	36.900000
3016.947335	44.900000
3018.179685	41.000000
3019.410323	37.100000
3020.643807	48.650000
3021.875579	34.500000
3023.105641	34.800000
3024.335510	43.650000
3025.563671	39.750000
3026.793157	39.100000
3028.020934	34.600000
3029.248520	44.900000
3030.477433	28.250000
3031.701603	52.100000
3032.928616	32.600000
3034.152405	39.200000
3035.377521	37.150000
3036.600930	42.450000
3037.824149	52.950000
3039.045663	30.000000
3040.270018	30.750000
3041.489638	42.900000
3042.710584	39.400000
3043.931341	33.700000
3045.150394	34.750000
3046.370772	41.350000
3047.587934	42.900000
3048.806422	26.850000
3050.023207	45.350000
3051.239805	40.650000
3052.456214	30.500000
3053.669411	39.150000
3054.885445	33.000000
3056.098267	42.800000
3057.313926	34.300000
3058.524862	38.650000
3059.737123	48.050000
3060.949198	36.800000
3062.161085	29.500000
3063.371276	40.600000
3064.581280	47.600000
3065.791098	49.800000
3066.999220	29.350000
3068.207157	32.000000
3069.413398	30.450000
3070.620964	34.400000
3071.826835	40.250000
3073.032522	46.100000
3074.238023	22.950000
3075.441831	43.050000
3076.646963	40.550000
3077.850402	36.500000
3079.052150	23.800000
3080.253713	33.550000
3081.455093	41.800000
3082.656289	33.650000
3083.855795	38.200000
3085.055118	45.900000
3086.255764	25.600000
3087.454720	28.050000
3088.650482	24.600000
3089.849073	30.700000
3091.044470	40.050000
3092.241190	45.350000
3093.434718	35.800000
3094.631074	29.150000
3095.825744	45.100000
3097.017223	38.500000
3098.213033	26.950000
3099.404149	28.200000
3100.596589	41.100000
3101.785841	37.100000
3102.977918	36.200000
3104.168312	44.300000
3105.355520	26.600000
3106.544051	32.650000
3107.733903	23.750000
3108.920572	40.200000
3110.107060	42.900000
3111.293370	46.050000
3112.481001	40.900000
3113.665450	34.200000
3114.848220	35.650000
3116.033812	31.950000
3117.217725	46.650000
3118.399959	32.600000
3119.582014	26.150000
3120.763891	42.850000
3121.945590	36.000000
3123.125612	31.450000
3124.303957	34.850000
3125.485122	44.250000
3126.663112	33.150000
3127.840926	42.100000
3129.018562	23.850000
3130.194523	41.050000
3131.370307	42.450000
3132.547413	49.100000
3133.722844	26.100000
3134.896602	37.650000
3136.068687	38.100000
3137.242094	38.050000
3138.415324	33.950000
3139.586883	32.950000
3140.759762	46.350000
3141.929474	25.500000
3143.100507	29.300000
3144.269870	35.600000
3145.437562	47.250000
3146.608070	44.750000
3147.773920	27.850000
3148.944078	26.550000
3150.109580	26.350000
3151.274907	19.200000
3152.440061	37.650000
3153.605042	35.600000
3154.771342	25.650000
3155.932990	33.050000
3157.095957	39.600000
3158.258752	30.500000
3159.421374	34.400000
3160.582331	41.350000
3161.743115	29.650000
3162.903727	35.000000
3164.062675	41.950000
3165.221452	28.900000
3166.380057	39.050000
3167.538489	40.400000
3168.696751	13.900000
3169.853350	35.200000
3171.008288	45.200000
3172.164545	28.900000
3173.319141	31.900000
3174.473567	40.750000
3175.626333	23.450000
3176.778928	39.100000
3177.931354	37.050000
3179.083610	48.200000
3180.235695	39.200000
3181.384635	29.150000
3182.536381	30.850000
3183.686469	33.600000
3184.834901	27.500000
3185.983163	32.000000
3187.131257	34.200000
3188.279182	37.750000
3189.425451	41.150000
3190.571552	32.400000
3191.715999	38.800000
3192.860278	33.200000
3194.004389	31.150000
3195.149817	29.900000
3196.292107	34.950000
3197.434230	42.250000
3198.576185	37.550000
3199.717973	18.800000
3200.859594	39.400000
3201.998080	31.150000
3203.137883	33.850000
3204.279004	30.600000
3205.416990	29.250000
3206.553327	45.750000
3207.689498	30.500000
3208.826986	19.250000
3209.962826	34.300000
3211.099983	35.300000
3212.232527	56.350000
3213.369353	32.100000
3214.501567	29.800000
3215.635098	35.250000
3216.768465	32.400000
3217.898704	37.400000
3219.031741	41.600000
3220.161652	25.350000
3221.292879	32.600000
3222.420982	36.650000
3223.551881	26.900000
3224.681136	25.900000
3225.808748	29.300000
3226.933237	24.650000
3228.062002	39.000000
3229.187645	29.950000
3230.313126	31.250000
3231.436965	38.550000
3232.563598	35.650000
3233.685634	44.550000
3234.808986	27.700000
3235.932176	34.950000
3237.055203	24.550000
3238.176592	36.550000
3239.297818	35.950000
3240.417407	33.650000
3241.536834	36.350000
3242.654623	42.750000
3243.775204	28.000000
3244.892672	27.200000
3246.009979	25.850000
3247.127126	41.000000
3248.242637	21.000000
3249.359462	20.650000
3250.473178	31.400000
3251.589683	35.800000
3252.704554	29.550000
3253.816316	32.800000
3254.927918	37.150000
3256.040836	28.800000
3257.153594	36.350000
3258.263246	31.650000
3259.374213	29.300000
3260.485021	26.250000
3261.594197	26.750000
3262.701743	31.300000
3263.810602	37.750000
3264.919304	47.850000
3266.024903	36.350000
3267.131816	30.350000
3268.237100	16.900000
3269.343698	30.700000
3270.447196	37.650000
3271.552009	29.950000
3272.656664	22.150000
3273.758220	35.550000
3274.859620	25.950000
3275.962334	31.550000
3277.064892	31.750000
3278.164353	44.350000
3279.266598	42.500000
3280.365747	43.900000
3281.463272	16.700000
3282.560641	35.850000
3283.660792	30.850000
3284.757851	35.550000
3285.854754	35.350000
3286.951502	38.550000
3288.043692	29.350000
3289.140130	30.350000
3290.234946	25.900000
3291.329608	33.950000
3292.422648	26.000000
3293.515533	40.300000
3294.606799	34.050000
3295.699376	34.300000
3296.790334	16.300000
3297.879672	28.950000
3298.968857	25.650000
3300.059355	36.850000
3301.146768	40.950000
3302.234028	34.350000
3303.322601	30.400000
3304.411022	30.900000
3305.494895	18.700000
3306.583010	37.000000
3307.668043	26.300000
3308.751461	40.400000
3309.836191	21.450000
3310.919305	34.050000
3312.003732	22.050000
3313.085080	41.150000
3314.167740	31.100000
3315.248786	37.850000
3316.329681	34.200000
3317.408962	36.850000
3318.488093	25.950000
3319.568536	29.250000
3320.645904	35.550000
3321.724584	29.550000
3322.801652	43.700000
3323.878571	27.700000
3324.953878	38.750000
3326.029036	30.250000
3327.105505	29.800000
3328.178904	28.800000
3329.252154	33.100000
3330.326714	35.950000
3331.399666	16.450000
3332.471009	29.650000
3333.543663	14.600000
3334.613251	31.200000
3335.684149	28.500000
3336.753440	26.750000
3337.824042	34.300000
3338.893037	33.950000
3339.960426	36.500000
3341.026210	28.900000
3342.096220	33.150000
3343.163167	50.700000
3344.227052	30.850000
3345.293705	30.450000
3346.358753	25.800000
3347.422198	30.200000
3348.485497	24.650000
3349.548649	31.900000
3350.611655	24.950000
3351.674515	38.900000
3352.735773	29.000000
3353.793974	28.400000
3354.856395	12.500000
3355.915761	28.800000
3356.974981	16.700000
3358.035511	42.500000
3359.091531	36.000000
3360.150315	29.100000
3361.204592	32.050000
3362.261633	24.400000
3363.317075	30.100000
3364.373827	28.550000
3365.428980	35.550000
3366.482536	41.350000
3367.534496	28.000000
3368.589217	31.950000
3369.640889	26.550000
3370.692418	33.000000
3371.745255	29.250000
3372.795045	32.050000
3373.846144	41.000000
3374.894197	44.500000
3375.945009	37.850000
3376.992777	33.800000
3378.040402	39.650000
3379.087884	29.150000
3380.133774	29.750000
3381.180972	37.850000
3382.225128	19.050000
3383.272042	29.450000
3384.317364	26.500000
3385.359645	37.050000
3386.401786	31.750000
3387.445234	20.650000
3388.488541	18.000000
3389.530259	34.200000
3390.571835	29.500000
3391.613270	25.950000
3392.653117	21.650000
3393.691375	18.150000
3394.730941	30.550000
3395.770367	36.550000
3396.808205	29.450000
3397.844456	29.800000
3398.880568	33.050000
3399.917987	34.050000
3400.952373	44.700000
3401.988066	41.350000
3403.023620	29.900000
3404.056143	31.350000
3405.091419	28.950000
3406.123664	18.950000
3407.155771	26.600000
3408.186294	32.050000
3409.218124	26.050000
3410.249816	35.700000
3411.278480	36.100000
3412.307007	21.000000
3413.336840	29.300000
3414.366536	32.600000
3415.393206	22.800000
3416.421183	24.000000
3417.446135	36.350000
3418.473837	32.750000
3419.498516	28.750000
3420.524501	39.000000
3421.548906	28.450000
3422.573175	34.950000
3423.595865	32.050000
3424.618419	45.250000
3425.642279	22.300000
3426.663119	23.200000
3427.683823	35.950000
3428.705834	38.600000
3429.724826	34.000000
3430.743682	26.750000
3431.763845	26.250000
3432.780991	33.650000
