-118.702670	14.680220
-116.033069	11.764835
-113.366404	11.608392
-110.700491	13.540260
-108.037511	16.889810
-105.373100	20.986414
-102.711620	25.159441
-100.048711	27.981818
-97.390908	26.134266
-94.731676	27.938462
-92.073192	26.570629
-89.417633	27.311888
-86.760644	22.468531
-84.108754	19.282517
-81.455434	22.591608
-78.805033	22.391608
-76.153204	25.162238
-73.506465	25.647552
-70.858296	23.689510
-68.210870	24.072727
-65.566359	22.619580
-62.920418	22.847552
-60.279559	19.103497
-57.637271	16.316084
-54.997892	15.751049
-52.357084	21.426573
-49.717015	25.236364
-47.082020	29.316084
-44.445595	28.738462
-41.812073	28.711888
-39.177123	30.637762
-36.547239	34.144056
-33.913761	28.278322
-31.285346	24.016783
-28.657665	19.590210
-26.028555	15.548252
-23.404503	3.097902
-20.776860	-39.422378
-18.154272	-137.549650
-15.532414	-92.633566
-12.911287	254.114685
-10.290891	769.576224
-7.673382	1180.373427
-5.054445	1462.769231
-2.438394	1610.130070
0.176930	1624.286713
2.791525	1505.110490
5.403239	1256.155245
8.016381	878.909091
10.624489	420.158042
13.236178	-15.795804
15.842837	-196.538462
18.450925	-106.166434
21.058287	13.229371
23.660625	25.281119
26.266542	28.917483
28.867436	33.689510
31.469758	35.404196
34.067062	38.988811
36.667943	42.072727
39.263808	40.765035
41.861101	38.895105
44.457675	40.471329
47.049240	42.247552
49.642234	45.082517
52.232366	42.537063
54.823925	42.660140
57.412626	42.321678
60.002753	42.081119
62.587881	42.732867
65.174437	43.551049
67.760278	42.253147
70.343266	39.142657
72.927681	38.904895
75.504967	42.257343
78.085818	49.069930
80.663822	49.447552
83.241114	49.050350
85.819834	53.844755
88.393571	53.043357
90.968735	52.476923
93.541056	53.988811
96.112670	55.299301
98.681443	53.209790
101.251643	53.774825
103.819004	58.220979
106.387792	63.409790
108.953743	73.117483
111.516859	86.904895
114.083531	106.209790
116.640981	144.903497
119.204117	194.833566
121.762294	285.013986
124.324025	447.338462
126.880799	716.244755
129.438999	1143.980420
131.992247	1726.535664
134.544797	2469.485315
137.100897	3307.029371
139.652049	4181.293706
142.202504	5047.253147
144.752261	5803.198601
147.299199	6422.176224
149.845442	6859.976224
152.393110	7120.448951
154.940082	7246.033566
157.482118	7276.289510
160.023462	7267.229371
162.564112	7226.387413
165.106187	7198.875524
167.645452	7174.675524
170.181907	7157.130070
172.717672	7147.022378
175.254862	7117.925874
177.791361	7088.370629
180.325054	7066.311888
182.855943	7049.758042
185.386144	7029.928671
187.917771	7025.395804
190.446596	7018.437762
192.972622	7017.054545
195.497962	7017.311888
198.024727	7021.826573
200.548696	7020.695105
203.071979	7017.100699
205.594578	7015.674126
208.114384	7009.373427
210.633507	7026.338462
213.151947	7034.206993
215.671812	7034.374825
218.184674	7055.648951
220.701068	7079.800000
223.216781	7105.689510
225.727603	7125.316084
228.239850	7141.570629
230.749314	7157.748252
233.258100	7164.446154
235.766208	7171.672727
238.275740	7178.637762
240.780391	7186.556643
243.284366	7186.958042
245.789765	7195.896503
248.290289	7210.737063
250.794336	7241.353846
253.291413	7257.545455
255.792012	7283.534266
258.289840	7303.660140
260.786995	7314.650350
263.283478	7322.848951
265.775097	7320.471329
268.270236	7314.672727
270.762608	7311.317483
273.254310	7303.467133
275.743249	7299.615385
278.233611	7291.546853
280.721212	7285.163636
283.206053	7276.906294
285.694409	7284.637762
288.175825	7288.282517
290.660755	7298.110490
293.140839	7303.068531
295.624436	7307.710490
298.103191	7308.756643
300.583368	7336.998601
303.060794	7344.191608
305.537556	7343.503497
308.013654	7346.605594
310.487004	7372.226573
312.959693	7403.223776
315.431720	7417.991608
317.903085	7433.602797
320.371707	7442.103497
322.839669	7445.773427
325.309054	7449.002797
327.773616	7437.921678
330.241682	7439.244755
332.704927	7416.268531
335.167516	7391.634965
337.629448	7378.325874
340.090723	7390.662937
342.549263	7367.806993
345.009226	7347.620979
347.466457	7347.135664
349.923033	7347.338462
352.378955	7340.993007
354.832147	7318.690909
357.286762	7287.983217
359.736575	7253.454545
362.189884	7206.580420
364.638394	7147.967832
367.086254	7100.360839
369.535536	7053.587413
371.980023	7002.262937
374.425933	6959.788811
376.871194	6926.886713
379.313736	6897.254545
381.755630	6850.970629
384.196876	6801.381818
386.635408	6760.829371
389.075360	6723.148252
391.512599	6675.402797
393.947127	6630.965035
396.385141	6613.500699
398.818380	6580.562238
401.253039	6558.551049
403.682926	6536.558042
406.116298	6520.068531
408.544900	6503.356643
410.972860	6489.276923
413.402241	6474.089510
415.826858	6475.973427
418.252895	6475.640559
420.678293	6465.627972
423.103050	6469.980420
425.523048	6468.820979
427.944468	6460.753846
430.363192	6461.148252
432.783335	6476.043357
435.200784	6464.784615
437.619654	6464.632168
440.035829	6464.000000
442.447258	6462.057343
444.862163	6462.784615
447.274378	6458.149650
449.685960	6449.034965
452.096907	6452.479720
454.505167	6441.504895
456.912796	6449.513287
459.319792	6458.314685
461.726157	6458.394406
464.129839	6453.667133
466.532891	6449.878322
468.935313	6423.853147
471.337105	6424.730070
473.736219	6412.660140
476.136753	6394.166434
478.536658	6371.664336
480.931841	6367.288112
483.330489	6346.499301
485.724418	6340.467133
488.117721	6324.083916
490.510399	6303.450350
492.902451	6288.476923
495.295921	6267.384615
497.684679	6251.483916
500.070771	6264.415385
502.458283	6261.598601
504.845172	6259.865734
507.229396	6257.167832
509.615040	6253.328671
511.998022	6234.282517
514.378342	6237.020979
516.760083	6237.611189
519.139164	6239.904895
521.519663	6236.784615
523.897506	6238.797203
526.272692	6242.188811
528.647261	6238.615385
531.023249	6254.903497
533.396584	6244.236364
535.771336	6228.067133
538.141402	6197.051748
540.510854	6182.527273
542.881723	6160.797203
545.247911	6141.576224
547.615518	6107.272727
549.980479	6079.899301
552.344828	6042.103497
554.708563	5998.605594
557.073716	5961.481119
559.434197	5940.069930
561.796095	5896.088112
564.155354	5856.159441
566.511974	5817.441958
568.872040	5784.643357
571.225414	5733.988811
573.582233	5702.994406
575.936417	5661.591608
578.289992	5630.574825
580.642960	5584.082517
582.993295	5545.269930
585.345048	5511.390210
587.690124	5473.826573
590.040663	5449.862937
592.384530	5420.959441
594.733858	5393.074126
597.078537	5377.229371
599.420592	5360.664336
601.764064	5352.690909
604.104913	5339.528671
606.445159	5324.079720
608.782785	5297.934266
611.123846	5289.597203
613.460270	5276.909091
615.798110	5280.913287
618.133333	5297.665734
620.465939	5293.296503
622.799963	5287.779021
625.131372	5298.483916
627.462183	5299.177622
629.792396	5306.653147
632.122012	5306.948252
634.447004	5297.588811
636.777438	5285.995804
639.103251	5302.132867
641.426456	5309.205594
643.751078	5335.054545
646.073094	5336.897902
648.394516	5334.625175
650.713335	5339.055944
653.033571	5347.328671
655.353212	5361.779021
657.670254	5375.286713
659.986703	5385.618182
662.300554	5411.316084
664.615821	5434.141259
666.928491	5462.956643
669.242576	5485.990210
671.552061	5518.504895
673.862962	5532.227972
676.171270	5560.180420
678.478989	5587.039161
680.788124	5614.532867
683.092666	5645.152448
685.396622	5665.135664
687.699991	5692.033566
690.004776	5732.258741
692.304973	5752.100699
694.606586	5781.363636
696.907613	5807.721678
699.204059	5845.176224
701.501920	5860.068531
703.799197	5882.707692
706.095891	5909.478322
708.388009	5930.804196
710.683538	5951.998601
712.974493	5967.497902
715.266863	5990.437762
717.556657	6014.420979
719.845872	6038.998601
722.134507	6088.648951
724.420569	6131.867133
726.708045	6180.763636
728.992951	6202.769231
731.277279	6236.637762
733.559038	6272.751049
735.842211	6301.500699
738.124807	6317.970629
740.402847	6350.876923
742.682301	6374.472727
744.961180	6393.797203
747.239484	6426.584615
749.513237	6475.718881
751.788405	6512.195804
754.062999	6552.297902
756.335034	6574.229371
758.608482	6606.598601
760.879372	6648.725874
763.147706	6678.027972
765.417453	6696.545455
767.684645	6731.549650
769.951268	6746.737063
772.217320	6765.464336
774.480821	6791.532867
776.745734	6819.303497
779.010079	6850.777622
781.269893	6864.236364
783.531121	6889.369231
785.791781	6916.074126
788.049895	6933.920280
790.305464	6942.002797
792.564423	6945.623776
794.816884	6957.818182
797.074712	6978.686713
799.328021	6993.212587
801.578790	7002.462937
803.830971	7013.100699
806.080613	7029.450350
808.331667	7035.558042
810.578210	7059.454545
812.826166	7080.707692
815.071586	7078.699301
817.318419	7086.054545
819.564689	7098.325874
821.806456	7121.469930
824.051605	7157.373427
826.290283	7171.752448
828.532342	7176.804196
830.769903	7206.244755
833.008876	7227.016783
835.245322	7253.839161
837.483179	7281.359441
839.718511	7320.784615
841.951320	7338.338462
844.185539	7376.700699
846.417237	7435.948252
848.648380	7506.995804
850.878968	7582.040559
853.109002	7636.260140
855.338481	7703.359441
857.563480	7797.615385
859.791852	7876.594406
862.015746	7948.317483
864.241051	8028.229371
866.461880	8116.261538
868.686081	8208.325874
870.905809	8306.339860
873.126947	8403.802797
875.347535	8505.765035
877.565614	8599.233566
879.785102	8675.542657
882.000124	8773.868531
884.214598	8859.275524
886.428525	8917.366434
888.641904	8959.586014
890.854737	9003.822378
893.067022	9039.911888
895.276806	9044.872727
897.486044	9039.135664
899.694737	9026.165035
901.900930	8998.667133
904.108533	8962.598601
906.313639	8910.257343
908.518201	8859.606993
910.720268	8776.655944
912.923744	8694.723077
915.124726	8598.206993
917.325166	8488.489510
919.527015	8368.048951
921.722473	8234.330070
923.921289	8119.341259
926.115668	7987.626573
928.313404	7851.211189
930.506704	7736.427972
932.701413	7621.365035
934.893635	7526.209790
937.085320	7436.198601
939.276467	7380.406993
941.465131	7329.969231
943.653259	7298.724476
945.838905	7282.594406
948.027905	7270.034965
950.212480	7266.823776
952.396521	7247.602797
954.583913	7239.829371
956.763000	7244.444755
958.945438	7244.910490
961.127342	7245.990210
963.306771	7243.346853
965.483728	7253.411189
967.662093	7262.041958
969.841865	7256.374825
972.015288	7238.325874
974.192057	7212.327273
976.364419	7180.752448
978.538189	7136.566434
980.707555	7092.650350
982.880265	7053.236364
985.050510	7010.654545
987.220225	6958.532867
989.389412	6906.886713
991.554202	6854.623776
993.722334	6807.832168
995.886070	6746.418182
998.051214	6686.952448
1000.213898	6638.865734
1002.376057	6582.348252
1004.535759	6533.316084
1006.694936	6469.145455
1008.855520	6405.226573
1011.013649	6346.485315
1013.171255	6284.780420
1015.328337	6225.176224
1017.484895	6173.514685
1019.637074	6129.711888
1021.790660	6084.444755
1023.943724	6051.183217
1026.094339	6031.944056
1028.246360	6012.647552
1030.394009	6010.072727
1032.544989	5977.335664
1034.691598	5943.513287
1036.837688	5920.981818
1038.983260	5896.962238
1041.130237	5863.025175
1043.270925	5843.055944
1045.414942	5807.151049
1047.556520	5778.040559
1049.697580	5759.446154
1051.840046	5742.352448
1053.976231	5729.560839
1056.115743	5719.661538
1058.250899	5701.759441
1060.389380	5697.022378
1062.523508	5687.759441
1064.657122	5676.973427
1066.792140	5659.751049
1068.922810	5647.022378
1071.054884	5631.458741
1073.184528	5613.633566
1075.313661	5598.927273
1077.442283	5575.955245
1079.570393	5552.099301
1081.696077	5524.121678
1083.821251	5502.674126
1085.947829	5480.977622
1088.070069	5442.146853
1090.193714	5414.977622
1092.313024	5386.896503
1094.437563	5350.419580
1096.555858	5330.583217
1098.675556	5293.027972
1100.792837	5270.432168
1102.909610	5240.867133
1105.025877	5201.213986
1107.139729	5163.727273
1109.254984	5118.257343
1111.365917	5079.085315
1113.480162	5043.422378
1115.590086	5009.864336
1117.701413	4975.841958
1119.812237	4944.433566
1121.918744	4909.342657
1124.028560	4876.955245
1126.134062	4858.753846
1128.240968	4830.481119
1130.341658	4797.653147
1132.447560	4774.553846
1134.549153	4745.776224
1136.652148	4722.264336
1138.754644	4703.728671
1140.850932	4675.369231
1142.952427	4655.504895
1145.049620	4645.393007
1147.146314	4608.076923
1149.242511	4595.822378
1151.338209	4588.250350
1153.433410	4569.826573
1155.526214	4556.917483
1157.620420	4541.213986
1159.708435	4524.651748
1161.801648	4495.296503
1163.888674	4474.339860
1165.978998	4445.391608
1168.065034	4433.478322
1170.154368	4417.840559
1172.237521	4385.643357
1174.322077	4380.920280
1176.408034	4366.432168
1178.489709	4354.499301
1180.572785	4344.193007
1182.653476	4339.215385
1184.733676	4329.479720
1186.813384	4310.641958
1188.892601	4296.790210
1190.969435	4279.219580
1193.043889	4268.383217
1195.121635	4256.325874
1197.195110	4239.732867
1199.269987	4235.573427
1201.340596	4227.184615
1203.412606	4228.488112
1205.482240	4225.331469
1207.553275	4231.125874
1209.623822	4233.822378
1211.690109	4230.082517
1213.757796	4220.067133
1215.823110	4218.362238
1217.889825	4209.622378
1219.952284	4207.593007
1222.018029	4200.387413
1224.079519	4205.381818
1226.142410	4202.131469
1228.202932	4203.387413
1230.262972	4196.415385
1232.322528	4201.170629
1234.379720	4204.293706
1236.436429	4194.800000
1238.490776	4187.878322
1240.548403	4183.158042
1242.603668	4183.911888
1244.654693	4181.836364
1246.707117	4175.888112
1248.759061	4178.142657
1250.808647	4167.212587
1252.857754	4159.200000
1254.906382	4142.869930
1256.954532	4136.731469
1259.002204	4132.365035
1261.045645	4127.323077
1263.092362	4125.330070
1265.136725	4127.685315
1267.180611	4144.226573
1269.222147	4147.314685
1271.261333	4161.321678
1273.303792	4167.702098
1275.342028	4169.539860
1277.381663	4175.897902
1279.420822	4186.953846
1281.455764	4188.132867
1283.492104	4199.163636
1285.526100	4193.297902
1287.561493	4186.502098
1289.592673	4179.524476
1291.625252	4175.194406
1293.657359	4167.704895
1295.687125	4164.609790
1297.718288	4151.574825
1299.745244	4157.504895
1301.773599	4167.793007
1303.797748	4177.427972
1305.825163	4177.356643
1307.848375	4185.211189
1309.872985	4185.121678
1311.895260	4199.759441
1313.918933	4200.672727
1315.940273	4206.153846
1317.961146	4211.609790
1319.981551	4208.938462
1321.997763	4221.124476
1324.015372	4236.493706
1326.030653	4251.974825
1328.049193	4249.234965
1330.063543	4249.918881
1332.075568	4246.973427
1334.090851	4246.606993
1336.101948	4239.373427
1338.114441	4213.046154
1340.122752	4202.433566
1342.134319	4196.920280
1344.139847	4185.962238
1346.148630	4187.972028
1348.153235	4190.572028
1350.161094	4196.573427
1352.168491	4191.132867
1354.169857	4198.588811
1356.172619	4207.370629
1358.174922	4210.359441
1360.176765	4201.535664
1362.178148	4193.604196
1364.177217	4194.962238
1366.175828	4191.697902
1368.173981	4178.489510
1370.171676	4175.822378
1372.165208	4177.464336
1374.160135	4169.718881
1376.154606	4167.552448
1378.148620	4168.009790
1380.140327	4160.791608
1382.131578	4152.953846
1384.120524	4147.655944
1386.110865	4147.876923
1388.100752	4144.633566
1390.088334	4137.200000
1392.075463	4132.342657
1394.060290	4121.318881
1396.046512	4117.558042
1398.030433	4116.383217
1400.013902	4117.186014
1401.996919	4113.735664
1403.977638	4108.555245
1405.959751	4117.718881
1407.939567	4129.433566
1409.918933	4142.934266
1411.894160	4148.068531
1413.872625	4151.218182
1415.848797	4146.986014
1417.824519	4145.713287
1419.799792	4157.427972
1421.772775	4167.927273
1423.745309	4170.068531
1425.717395	4169.264336
1427.689034	4171.509091
1429.656544	4173.160839
1431.629128	4165.131469
1433.593906	4154.016783
1435.563757	4144.586014
1437.529483	4135.938462
1439.496603	4123.454545
1441.461439	4124.683916
1443.422155	4113.618182
1445.387939	4121.640559
1447.347768	4126.490909
1449.308991	4127.827972
1451.271605	4127.854545
1453.230105	4132.795804
1455.188163	4123.309091
1457.145779	4125.490909
1459.102952	4130.974825
1461.057850	4135.023776
1463.014141	4127.695105
1464.968157	4122.348252
1466.921732	4107.107692
1468.873035	4107.313287
1470.825730	4102.507692
1472.776154	4092.337063
1474.726139	4075.111888
1476.675685	4075.050350
1478.622962	4072.138462
1480.567971	4081.573427
1482.514373	4090.137063
1484.460337	4106.072727
1486.405864	4112.675524
1488.349125	4117.794406
1490.291950	4122.439161
1492.232512	4121.893706
1494.174466	4122.572028
1496.114157	4115.197203
1498.053413	4105.539860
1499.992235	4102.193007
1501.928797	4090.327273
1503.866750	4077.793007
1505.802444	4076.425175
1507.737705	4087.597203
1509.670709	4084.839161
1511.603281	4084.141259
1513.535421	4091.023776
1515.467129	4096.244755
1517.396584	4103.426573
1519.327429	4106.134266
1521.257842	4102.523077
1523.184183	4100.170629
1525.111914	4092.236364
1527.037396	4078.692308
1528.962448	4068.886713
1530.887070	4061.662937
1532.811264	4035.910490
1534.733211	4032.325874
1536.656548	4038.469930
1538.577638	4044.103497
1540.496484	4049.467133
1542.416720	4056.759441
1544.334712	4063.664336
1546.252278	4078.362238
1548.167603	4085.496503
1550.084317	4085.748252
1551.996975	4082.618182
1553.912838	4081.707692
1555.826462	4069.669930
1557.737847	4063.257343
1559.650622	4058.834965
1561.559347	4046.595804
1563.469461	4034.703497
1565.379152	4027.071329
1567.288420	4022.742657
1569.195453	4011.713287
1571.100254	4014.349650
1573.006444	4019.812587
1574.910403	4015.279720
1576.813940	4013.369231
1578.717057	4010.404196
1580.617944	3993.745455
1582.520220	3988.386014
1584.420267	3970.197203
1586.321703	3960.369231
1588.219104	3962.567832
1590.116088	3958.446154
1592.012653	3959.655944
1593.910605	3971.858741
1595.802723	3983.383217
1597.698035	3983.001399
1599.592928	3986.966434
1601.485601	3993.765035
1603.377856	3988.039161
1605.267892	3987.054545
1607.157512	3978.334266
1609.046717	3981.772028
1610.935506	3983.172028
1612.822079	3981.972028
1614.710039	3983.469930
1616.593982	3980.741259
1618.479312	3979.998601
1620.364229	3978.991608
1622.246932	3977.738462
1624.131022	3981.061538
1626.011100	3977.720280
1627.892566	3974.041958
1629.771820	3979.406993
1631.652462	3986.598601
1633.527299	3980.573427
1635.407117	3972.935664
1637.282930	3968.223776
1639.158334	3958.811189
1641.035123	3951.773427
1642.906115	3950.988811
1644.780290	3949.479720
1646.650465	3951.039161
1648.523821	3947.606993
1650.394974	3941.391608
1652.263925	3940.341259
1654.134262	3926.166434
1656.000606	3906.531469
1657.868335	3898.274126
1659.733865	3899.081119
1661.600781	3881.004196
1663.463707	3878.278322
1665.328020	3880.131469
1667.190136	3880.230769
1669.051847	3882.462937
1670.914943	3877.299301
1672.775845	3873.205594
1674.634554	3872.226573
1676.492859	3874.577622
1678.352548	3879.527273
1680.206471	3888.724476
1682.063567	3896.303497
1683.920259	3893.444755
1685.772976	3893.074126
1687.628864	3890.043357
1689.480778	3876.223776
1691.332291	3873.369231
1693.183403	3867.279720
1695.034114	3863.499301
1696.884425	3848.848951
1698.732552	3844.727273
1700.582063	3834.187413
1702.425824	3824.332867
1704.274536	3827.475524
1706.117501	3826.269930
1707.963632	3823.699301
1709.805802	3828.853147
1711.651137	3828.172028
1713.490730	3838.572028
1715.331709	3845.492308
1717.174070	3845.949650
1719.012474	3840.839161
1720.852262	3841.451748
1722.689875	3831.868531
1724.527093	3826.177622
1726.362137	3821.899301
1728.198564	3819.689510
1730.032818	3819.058741
1731.866679	3814.295105
1733.700145	3807.415385
1735.529665	3809.737063
1737.362345	3802.464336
1739.191079	3795.827972
1741.022972	3796.290909
1742.850922	3797.095105
1744.678480	3800.580420
1746.505647	3802.930070
1748.332422	3797.304895
1750.158805	3800.107692
1751.981252	3801.062937
1753.806854	3801.541259
1755.628520	3806.918881
1757.451569	3805.637762
1759.272457	3794.367832
1761.092955	3794.001399
1762.914835	3790.419580
1764.731015	3788.577622
1766.550347	3790.716084
1768.365752	3789.958042
1770.184308	3788.290909
1771.998938	3786.784615
1773.813181	3793.692308
1775.627038	3802.233566
1777.440508	3800.678322
1779.251824	3799.822378
1781.064522	3798.363636
1782.876834	3793.654545
1784.685227	3783.387413
1786.495002	3779.352448
1788.300861	3781.658741
1790.109867	3775.331469
1791.914959	3777.797203
1793.721432	3781.310490
1795.527520	3780.783217
1797.329699	3780.737063
1799.135021	3771.363636
1800.936435	3776.246154
1802.739230	3762.113287
1804.538118	3749.801399
1806.338387	3747.358042
1808.138274	3744.055944
1809.936019	3728.479720
1811.733384	3707.967832
1813.530368	3705.918881
1815.326972	3709.984615
1817.121437	3698.537063
1818.917282	3700.549650
1820.707471	3699.693706
1822.502557	3707.001399
1824.291990	3706.320280
1826.084561	3715.455944
1827.874996	3728.440559
1829.663296	3740.430769
1831.454732	3731.958042
1833.240523	3732.667133
1835.027692	3739.521678
1836.812731	3743.258741
1838.600902	3723.172028
1840.385188	3719.605594
1842.167345	3710.162238
1843.950881	3710.776224
1845.732288	3711.433566
1847.515073	3708.068531
1849.293979	3709.151049
1851.074263	3717.641958
1852.852422	3706.495105
1854.631958	3710.867133
1856.409370	3704.980420
1858.184659	3695.349650
1859.961325	3681.317483
1861.735869	3681.367832
1863.511790	3680.316084
1865.282092	3688.836364
1867.055521	3685.788811
1868.826830	3681.464336
1870.597768	3690.186014
1872.370084	3693.183217
1874.136786	3688.881119
1875.906613	3685.569231
1877.672577	3678.885315
1879.441665	3666.316084
1881.206891	3657.818182
1882.971749	3655.654545
1884.737983	3654.499301
1886.500359	3658.837762
1888.262368	3661.806993
1890.024010	3666.096503
1891.785284	3677.495105
1893.546192	3677.973427
1895.306732	3668.516084
1897.065164	3658.647552
1898.823229	3652.383217
1900.579187	3633.878322
1902.336521	3618.731469
1904.093490	3597.451748
1905.848352	3591.542657
1907.601109	3587.808392
1909.353503	3592.541259
1911.107273	3590.239161
1912.858939	3598.384615
1914.608502	3603.791608
1916.359442	3604.504895
1918.110018	3611.172028
1919.856756	3609.420979
1921.604869	3610.755245
1923.350883	3605.690909
1925.098273	3596.432168
1926.843564	3596.023776
1928.586758	3591.496503
1930.331328	3593.423776
1932.073801	3584.946853
1933.815914	3586.162238
1935.557668	3582.013287
1937.299061	3574.197203
1939.038361	3564.911189
1940.777302	3558.321678
1942.515884	3558.452448
1944.252375	3560.923077
1945.988507	3570.827273
1947.726015	3579.965035
1949.459700	3590.018881
1951.194760	3596.276923
1952.927731	3598.077622
1954.660346	3605.583217
1956.392604	3600.672028
1958.124506	3600.577622
1959.854323	3601.696503
1961.582054	3595.847552
1963.311160	3597.841958
1965.039910	3606.625175
1966.766577	3613.847552
1968.492890	3610.381818
1970.220577	3608.349650
1971.942727	3598.022378
1973.667978	3597.572028
1975.389422	3596.657343
1977.113966	3590.193007
1978.836431	3585.753846
1980.555092	3587.718881
1982.276852	3583.558042
1983.994811	3587.155245
1985.714142	3587.276923
1987.429674	3581.485315
1989.150026	3580.979021
1990.866580	3583.839161
1992.579337	3588.864336
1994.295190	3598.281119
1996.008971	3598.904895
1997.722402	3603.786014
1999.433762	3603.902098
2001.146494	3616.481119
2002.855435	3609.938462
2004.567470	3603.286713
2006.273995	3598.089510
2007.983613	3598.935664
2009.691163	3610.124476
2011.398366	3618.166434
2013.103503	3624.562238
2014.808293	3622.103497
2016.514456	3625.806993
2018.216835	3630.325874
2019.920587	3626.612587
2021.622276	3622.190210
2023.323619	3608.945455
2025.024618	3603.653147
2026.723555	3599.946853
2028.423864	3596.738462
2030.120397	3604.486713
2031.818302	3598.588811
2033.514149	3593.071329
2035.213081	3597.307692
2036.906527	3605.069930
2038.601344	3599.282517
2040.295818	3596.446154
2041.986525	3597.787413
2043.680314	3596.243357
2045.370338	3596.051748
2047.061731	3586.300699
2048.751072	3577.400000
2050.441784	3566.756643
2052.128732	3553.917483
2053.815340	3548.155245
2055.503319	3544.907692
2057.187538	3538.075524
2058.873127	3521.342657
2060.558377	3518.314685
2062.241579	3515.832168
2063.926151	3511.043357
2065.605259	3512.833566
2067.289154	3508.176224
2068.967587	3504.510490
2070.649098	3499.667133
2072.326857	3506.742657
2074.004280	3515.516084
2075.683072	3518.641958
2077.359821	3514.265734
2079.034529	3501.097902
2080.710607	3498.476923
2082.384643	3486.268531
2084.058345	3476.627972
2085.731711	3468.348252
2087.403038	3464.531469
2089.074031	3459.507692
2090.744690	3459.697902
2092.415015	3465.130070
2094.085006	3471.612587
2095.752960	3479.858741
2097.420582	3477.647552
2099.086170	3475.829371
2100.753126	3488.853147
2102.418049	3497.618182
2104.082640	3510.727273
2105.745199	3516.423776
2107.409126	3522.948252
2109.071022	3515.330070
2110.732587	3499.825175
2112.393822	3500.283916
2114.053027	3490.625175
2115.711903	3483.791608
2117.370448	3472.534266
2119.028664	3470.892308
2120.683157	3484.886713
2122.340714	3495.742657
2123.997941	3502.640559
2125.651448	3502.132867
2127.306322	3502.532867
2128.957477	3489.393007
2130.611695	3480.787413
2132.262195	3477.363636
2133.914063	3471.709091
2135.560522	3460.051748
2137.211735	3459.027972
2138.859236	3470.549650
2140.508103	3473.163636
2142.154951	3478.278322
2143.801474	3479.618182
2145.447671	3479.069930
2147.090159	3476.386014
2148.735706	3462.205594
2150.377546	3458.984615
2152.022443	3455.255944
2153.663635	3453.727273
2155.304503	3436.504895
2156.945048	3428.160839
2158.583580	3426.945455
2160.223478	3412.727273
2161.859676	3413.036364
2163.497240	3401.372028
2165.134482	3394.179021
2166.769714	3379.930070
2168.404624	3378.302098
2170.039213	3386.811189
2171.673481	3390.148252
2173.304055	3387.885315
2174.937681	3387.889510
2176.567614	3391.808392
2178.198914	3394.366434
2179.828208	3392.427972
2181.457183	3388.004196
2183.085838	3381.791608
2184.714174	3383.320280
2186.340507	3370.616783
2187.966522	3367.418182
2189.590536	3359.292308
2191.215915	3356.051748
2192.839293	3348.695105
2194.464036	3349.193007
2196.085098	3346.493706
2197.705843	3334.444755
2199.327952	3329.232168
2200.948064	3327.023776
2202.566180	3338.420979
2204.183980	3347.313287
2205.801464	3345.504895
2207.418634	3345.309091
2209.035487	3352.805594
2210.652026	3359.827972
2212.266571	3345.766434
2213.879125	3339.160839
2215.493042	3326.793007
2217.104968	3319.748252
2218.718257	3307.201399
2220.329555	3297.493706
2221.938865	3292.251748
2223.549537	3284.376224
2225.158221	3292.187413
2226.766593	3297.197203
2228.372978	3308.655944
2229.980725	3314.669930
2231.586487	3308.718881
2233.191937	3308.927273
2234.795402	3305.625175
2236.400230	3312.765035
2238.003074	3310.395804
2239.603935	3311.544056
2241.206159	3308.276923
2242.806401	3310.258741
2244.408005	3328.292308
2246.005956	3326.160839
2247.605270	3328.018182
2249.202604	3322.576224
2250.799630	3319.787413
2252.398017	3315.109091
2253.992757	3305.565035
2255.585519	3298.966434
2257.179644	3294.579021
2258.775130	3284.366434
2260.366971	3271.225175
2261.958506	3263.158042
2263.551402	3261.082517
2265.138990	3253.925874
2266.731273	3250.279720
2268.318249	3254.604196
2269.908254	3263.537063
2271.492954	3257.576224
2273.082348	3249.848951
2274.666439	3237.269930
2276.251892	3224.183217
2277.835376	3210.760839
2279.421885	3203.005594
2281.004761	3196.706294
2282.587334	3189.939161
2284.169603	3183.425175
2285.748242	3183.884615
2287.329906	3185.104895
2288.907941	3182.695804
2290.488999	3176.966434
2292.066430	3167.800699
2293.641898	3151.967832
2295.220388	3140.648252
2296.795254	3143.686713
2298.369819	3150.881818
2299.944083	3152.714685
2301.518047	3142.920979
2303.091711	3137.132867
2304.665075	3140.853147
2306.234820	3130.462937
2307.804266	3127.711888
2309.376730	3125.187413
2310.943920	3112.920280
2312.514127	3110.822378
2314.080721	3114.605594
2315.648673	3122.125874
2317.214671	3125.714685
2318.780371	3129.068531
2320.345773	3127.230769
2321.909222	3135.068531
2323.474030	3141.630769
2325.035229	3132.816783
2326.599443	3130.406993
2328.158396	3128.447552
2329.720362	3129.116084
2331.280378	3138.759441
2332.840098	3144.586014
2334.397870	3142.976224
2335.955346	3141.110490
2337.512528	3141.476923
2339.067762	3144.826573
2340.622702	3153.702098
2342.177349	3149.001399
2343.731702	3138.132867
2345.285761	3126.267133
2346.839527	3127.552448
2348.391348	3129.278322
2349.941226	3132.176224
2351.494113	3129.264336
2353.041756	3121.030769
2354.592407	3118.058741
2356.139468	3116.265734
2357.687886	3116.246154
2359.236013	3117.689510
2360.780551	3118.854545
2362.326447	3122.786014
2363.870404	3119.742657
2365.415719	3129.972028
2366.957449	3129.581818
2368.500537	3127.337063
2370.041688	3121.344056
2371.582550	3115.609790
2373.123123	3117.511888
2374.663407	3109.976224
2376.203402	3105.790210
2377.739818	3101.060140
2379.279236	3103.437762
2380.815077	3102.629371
2382.352275	3093.458741
2383.885897	3096.311888
2385.422519	3093.977622
2386.957211	3098.488112
2388.489972	3094.008392
2390.022448	3096.579021
2391.552995	3100.530070
2393.086540	3089.994406
2394.614874	3084.644755
2396.144564	3081.046154
2397.673969	3087.219580
2399.203089	3084.474126
2400.731923	3076.574825
2402.255553	3068.081119
2403.783818	3069.316084
2405.306880	3083.339860
2406.834577	3081.707692
2408.355434	3084.069930
2409.880923	3082.124476
2411.402853	3076.359441
2412.926137	3073.883916
2414.447501	3078.984615
2415.966945	3085.965035
2417.487744	3077.746853
2419.006624	3068.506294
2420.525223	3056.735664
2422.041903	3057.447552
2423.559939	3057.569231
2425.077693	3052.095105
2426.591895	3047.423776
2428.105818	3050.406993
2429.619460	3043.609790
2431.134456	3040.330070
2432.645905	3040.469930
2434.158707	3039.103497
2435.669597	3039.188811
2437.180208	3030.369231
2438.688907	3024.071329
2440.200592	3017.640559
2441.708734	3013.103497
2443.216598	3010.034965
2444.724183	3013.608392
2446.228229	3012.412587
2447.735259	3000.393007
2449.240381	2993.563636
2450.745226	2985.541259
2452.248164	2974.380420
2453.750825	2963.372028
2455.253211	2953.739860
2456.753690	2946.187413
2458.255524	2940.405594
2459.755452	2944.446154
2461.255105	2936.963636
2462.754483	2943.640559
2464.251958	2938.559441
2465.747531	2930.443357
2467.246084	2925.667133
2468.741109	2907.692308
2470.237486	2890.934266
2471.730337	2880.520280
2473.224541	2878.118881
2474.718471	2865.724476
2476.208877	2866.640559
2477.702261	2878.865734
2479.193747	2876.103497
2480.683336	2889.580420
2482.172653	2896.593007
2483.660074	2896.683916
2485.150471	2903.665734
2486.637350	2903.654545
2488.125580	2903.692308
2489.610293	2907.683916
2491.094736	2906.197203
2492.580531	2896.088112
2494.064434	2890.345455
2495.549687	2887.483916
2497.029807	2876.071329
2498.512899	2871.879720
2499.994102	2876.202797
2501.475035	2864.662937
2502.954078	2875.794406
2504.432854	2885.560839
2505.911361	2891.011189
2507.389599	2898.748252
2508.867570	2901.837762
2510.342035	2899.043357
2511.819470	2899.637762
2513.293400	2900.285315
2514.768682	2894.384615
2516.243696	2897.576224
2517.715209	2900.054545
2519.188073	2889.559441
2520.659054	2894.955245
2522.131385	2890.370629
2523.598602	2885.823776
2525.068786	2880.373427
2526.537089	2874.261538
2528.005126	2873.664336
2529.472899	2867.801399
2530.940407	2870.597203
2532.407651	2872.861538
2533.871402	2879.965035
2535.336503	2879.998601
2536.799727	2879.755245
2538.264300	2886.032168
2539.725385	2884.746853
2541.187819	2883.300699
2542.649990	2880.664336
2544.108674	2871.988811
2545.571931	2863.728671
2547.030091	2850.560839
2548.489601	2862.316084
2549.944016	2863.411189
2551.403002	2861.152448
2552.860116	2854.215385
2554.315358	2850.741259
2555.770340	2849.268531
2557.223452	2849.921678
2558.677913	2848.257343
2560.130505	2843.513287
2561.582837	2837.556643
2563.033301	2832.363636
2564.486722	2825.907692
2565.935060	2829.016783
2567.386353	2832.288112
2568.835780	2819.844755
2570.281736	2817.625175
2571.730646	2816.834965
2573.176085	2814.843357
2574.622873	2818.430769
2576.067797	2812.825175
2577.512464	2809.088112
2578.958478	2801.471329
2580.401025	2793.359441
2581.844920	2781.179021
2583.285350	2782.577622
2584.727128	2789.751049
2586.167046	2783.413986
2587.608311	2794.443357
2589.046114	2796.212587
2590.486867	2792.816783
2591.922558	2789.033566
2593.361197	2778.751049
2594.797980	2775.060140
2596.232907	2766.718881
2597.670781	2763.613986
2599.103598	2762.008392
2600.537762	2766.116084
2601.970071	2773.386014
2603.403728	2777.662937
2604.835530	2782.665734
2606.267080	2777.969231
2607.698376	2767.760839
2609.127821	2754.549650
2610.557013	2739.233566
2611.984354	2732.917483
2613.413042	2723.193007
2614.841477	2709.850350
2616.266466	2704.696503
2617.692800	2706.872727
2619.117287	2715.149650
2620.543118	2725.443357
2621.965507	2724.552448
2623.389240	2724.769231
2624.811128	2719.830769
2626.232765	2716.472727
2627.652558	2703.523077
2629.073696	2697.685315
2630.494584	2681.597203
2631.912033	2677.383217
2633.332422	2672.297902
2634.749374	2673.187413
2636.166078	2676.255944
2637.582533	2679.058741
2638.998740	2672.497902
2640.414699	2675.061538
2641.828817	2667.622378
2643.242687	2661.165035
2644.654718	2653.227972
2646.068094	2654.099301
2647.478040	2643.871329
2648.890922	2652.289510
2650.300375	2642.314685
2651.709582	2645.096503
2653.116953	2645.942657
2654.527258	2651.695105
2655.935727	2649.791608
2657.342362	2647.061538
2658.748750	2635.193007
2660.153306	2627.462937
2661.559205	2627.776224
2662.963270	2628.072727
2664.367092	2624.626573
2665.770669	2635.772028
2667.172415	2635.370629
2668.575504	2642.744056
2669.975175	2647.822378
2671.376190	2659.709091
2672.773789	2659.106294
2674.174317	2662.443357
2675.571431	2657.917483
2676.969888	2652.443357
2678.366517	2646.110490
2679.762905	2638.471329
2681.159050	2631.997203
2682.553369	2625.689510
2683.949031	2615.759441
2685.341284	2611.864336
2686.734879	2599.816783
2688.126650	2599.823776
2689.519764	2602.521678
2690.911053	2606.004196
2692.300521	2605.103497
2693.689748	2601.917483
2695.078735	2595.566434
2696.469065	2594.490909
2697.854411	2602.229371
2699.242680	2605.502098
2700.629129	2598.318881
2702.015339	2589.499301
2703.401310	2575.176224
2704.783883	2572.380420
2706.167798	2560.250350
2707.551474	2546.662937
2708.934913	2538.450350
2710.314956	2533.633566
2711.696341	2530.054545
2713.075910	2536.146853
2714.456821	2551.165035
2715.835917	2560.689510
2717.213199	2554.986014
2718.591822	2556.886713
2719.968631	2556.047552
2721.345205	2549.633566
2722.721543	2534.569231
2724.096069	2533.051748
2725.471936	2529.229371
2726.844416	2526.165035
2728.219813	2522.986014
2729.590249	2521.826573
2730.962025	2523.858741
2732.333568	2524.847552
2733.703302	2526.507692
2735.074376	2526.251748
2736.443643	2524.124476
2737.812676	2517.665734
2739.179903	2508.100699
2740.546896	2503.858741
2741.913657	2495.766434
2743.280185	2489.246154
2744.644909	2480.820979
2746.009400	2474.839161
2747.373659	2474.808392
2748.737687	2476.376224
2750.101482	2488.278322
2751.461905	2492.633566
2752.825237	2494.560839
2754.183627	2494.537063
2755.544927	2488.756643
2756.902857	2478.538462
2758.263695	2465.945455
2759.622733	2460.300699
2760.978403	2451.517483
2762.336982	2443.595804
2763.692193	2430.485315
2765.047175	2426.169231
2766.400360	2432.563636
2767.756452	2428.514685
2769.109180	2430.190210
2770.461679	2429.264336
2771.813951	2424.307692
2773.167560	2412.988811
2774.517808	2405.387413
2775.866263	2411.156643
2777.217622	2407.993007
2778.565622	2395.451748
2779.914961	2390.927273
2781.262507	2392.927273
2782.609827	2386.897902
2783.956919	2373.665734
2785.302221	2372.464336
2786.647297	2364.864336
2787.992147	2365.878322
2789.336771	2364.981818
2790.678043	2357.686713
2792.020652	2367.370629
2793.363037	2370.651748
2794.705196	2372.321678
2796.044006	2379.577622
2797.385716	2377.511888
2798.724077	2367.388811
2800.063776	2358.121678
2801.401689	2359.664336
2802.737818	2354.423776
2804.073724	2362.495105
2805.410967	2368.502098
2806.746425	2367.130070
2808.081661	2374.016783
2809.415115	2373.015385
2810.749905	2366.086713
2812.081354	2357.102098
2813.415699	2351.186014
2814.745146	2337.458741
2816.075930	2338.562238
2817.406492	2336.187413
2818.735275	2328.109091
2820.065395	2335.253147
2821.393736	2336.054545
2822.721855	2334.755245
2824.048198	2333.888112
2825.375876	2330.777622
2826.700222	2321.383217
2828.025904	2314.476923
2829.349810	2305.206993
2830.673496	2304.320280
2831.998518	2309.093706
2833.320211	2307.246154
2834.641685	2298.815385
2835.962939	2302.756643
2837.283975	2296.802797
2838.603239	2296.806993
2839.923838	2295.200000
2841.242665	2287.213986
2842.561274	2275.082517
2843.878113	2263.475524
2845.194734	2261.032168
2846.511138	2264.528671
2847.825772	2264.692308
2849.141741	2265.530070
2850.454391	2257.486713
2851.768375	2257.580420
2853.082143	2254.545455
2854.395694	2257.360839
2855.707479	2257.234965
2857.017497	2255.187413
2858.328850	2252.348252
2859.636888	2257.784615
2860.946260	2267.176224
2862.255417	2267.779021
2863.564359	2271.118881
2864.871538	2261.760839
2866.176953	2255.167832
2867.483703	2249.393007
2868.788691	2252.032168
2870.093464	2247.169231
2871.396477	2248.026573
2872.702370	2249.998601
2874.003409	2248.551049
2875.305781	2255.787413
2876.606395	2256.727273
2877.908341	2254.282517
2879.210075	2250.437762
2880.508505	2243.646154
2881.808268	2247.790210
2883.106274	2253.521678
2884.404068	2254.060140
2885.700105	2246.865734
2886.997476	2253.641958
2888.293092	2250.787413
2889.588496	2250.416783
2890.883689	2254.890909
2892.175585	2252.676923
2893.470356	2245.572028
2894.761832	2239.436364
2896.054640	2238.416783
2897.347238	2235.597203
2898.636541	2238.930070
2899.927178	2229.377622
2901.216063	2218.467133
2902.506280	2212.774825
2903.793206	2201.559441
2905.081464	2202.938462
2906.367973	2200.427972
2907.654273	2197.125874
2908.940365	2187.567832
2910.224709	2184.777622
2911.511925	2185.492308
2912.794314	2192.019580
2914.078035	2191.324476
2915.360009	2187.158042
2916.641777	2183.267133
2917.921799	2185.271329
2919.204691	2183.044755
2920.485838	2184.641958
2921.763703	2183.135664
2923.044437	2174.654545
2924.321890	2164.324476
2925.599138	2162.688112
2926.874643	2159.451748
2928.153016	2152.451748
2929.426575	2139.686713
2930.703001	2139.618182
2931.977685	2140.654545
2933.250630	2147.724476
2934.524906	2143.060140
2935.797441	2139.490909
2937.069773	2140.590210
2938.338832	2133.815385
2939.610756	2126.545455
2940.880942	2115.288112
2942.150924	2111.634965
2943.420703	2107.226573
2944.688746	2109.359441
2945.955052	2116.925874
2947.221156	2118.191608
2948.488591	2120.373427
2949.754290	2114.846154
2951.019788	2113.053147
2952.285083	2110.015385
2953.547113	2102.903497
2954.810473	2095.876923
2956.073632	2096.868531
2957.335058	2107.191608
2958.597815	2112.619580
2959.858839	2116.974825
2961.118133	2121.565035
2962.377226	2115.579021
2963.636120	2108.425175
2964.894812	2099.279720
2966.153305	2097.885315
2967.410069	2090.718881
2968.666634	2084.186014
2969.921470	2075.458741
2971.177636	2083.324476
2972.430547	2074.135664
2973.684786	2074.966434
2974.938827	2078.450350
2976.191142	2081.100699
2977.443259	2083.746853
2978.693651	2086.464336
2979.946898	2086.489510
2981.195368	2091.841958
2982.446693	2091.125874
2983.694768	2080.595804
2984.942646	2068.467133
2986.190328	2062.689510
2987.437812	2050.676923
2988.683575	2049.436364
2989.929141	2049.527273
2991.176036	2050.899301
2992.419686	2060.657343
2993.664663	2062.977622
2994.906398	2055.667133
2996.150984	2057.700699
2997.393851	2056.334266
2998.633477	2045.240559
2999.875953	2036.979021
3001.115189	2031.958042
3002.355753	2033.497902
3003.594600	2029.482517
3004.833253	2027.502098
3006.070190	2035.029371
3007.308455	2032.742657
3008.545004	2021.267133
3009.781360	2017.553846
3011.017522	2025.001399
3012.251970	2014.977622
3013.486225	2013.706294
3014.720287	2018.752448
3015.952637	2019.447552
3017.183275	2015.380420
3018.416759	2012.935664
3019.648532	2011.388811
3020.878593	2012.661538
3022.108463	2003.427972
3023.336623	2007.303497
3024.566110	2011.784615
3025.793887	2010.555245
3027.021473	2003.093706
3028.250385	2004.432168
3029.474555	2011.572028
3030.701568	2010.433566
3031.925358	2006.039161
3033.150473	2013.976224
3034.373883	2007.111888
3035.597102	1999.205594
3036.818616	1997.830769
3038.042971	2000.504895
3039.262591	1994.888112
3040.483537	1987.321678
3041.704293	1981.054545
3042.923347	1970.489510
3044.143725	1972.393007
3045.360887	1966.132867
3046.579374	1964.134266
3047.796160	1961.890909
3049.012757	1951.608392
3050.229167	1944.972028
3051.442363	1947.755245
3052.658397	1951.006993
3053.871219	1945.703497
3055.086878	1947.047552
3056.297814	1942.026573
3057.510076	1934.223776
3058.722150	1938.099301
3059.934038	1938.102098
3061.144229	1936.812587
3062.354233	1935.662238
3063.564051	1940.769231
3064.772173	1940.627273
3065.980110	1939.570629
3067.186351	1932.070629
3068.393917	1920.160839
3069.599788	1920.620280
3070.805474	1916.500699
3072.010976	1917.828671
3073.214784	1926.461538
3074.419916	1930.790909
3075.623355	1937.240559
3076.825102	1941.109790
3078.026666	1942.848951
3079.228046	1939.882517
3080.429242	1927.184615
3081.628748	1915.588811
3082.828071	1907.626573
3084.028717	1904.041958
3085.227673	1899.630769
3086.423434	1898.545455
3087.622025	1891.290909
3088.817422	1890.225175
3090.014143	1886.574825
3091.207671	1880.834965
3092.404027	1879.030769
3093.598696	1877.451748
3094.790175	1873.117483
3095.985986	1870.092308
3097.177102	1869.275524
3098.369542	1868.137063
3099.558793	1865.081119
3100.750871	1869.257343
3101.941265	1868.156643
3103.128473	1865.671329
3104.317003	1861.507692
3105.506856	1861.724476
3106.693524	1858.220979
3107.880013	1845.472727
3109.066323	1839.372028
3110.253954	1838.795804
3111.438403	1830.724476
3112.621173	1827.472727
3113.806765	1825.288112
3114.990678	1832.527273
3116.172911	1838.476923
3117.354967	1843.006993
3118.536844	1847.541259
3119.718543	1846.286713
3120.898565	1843.462937
3122.076910	1831.869930
3123.258075	1831.896503
3124.436065	1839.665734
3125.613878	1831.481119
3126.791514	1820.949650
3127.967475	1814.593007
3129.143260	1809.560839
3130.320365	1814.597203
3131.495797	1815.422378
3132.669555	1811.316084
3133.841640	1807.131469
3135.015046	1807.213986
3136.188277	1806.549650
3137.359836	1808.728671
3138.532715	1819.988811
3139.702427	1820.668531
3140.873460	1814.107692
3142.042822	1818.606993
3143.210515	1817.458741
3144.381023	1816.015385
3145.546872	1811.490909
3146.717031	1808.193007
3147.882532	1817.262937
3149.047860	1822.174825
3150.213014	1818.829371
3151.377995	1819.090909
3152.544295	1818.339860
3153.705942	1810.776224
3154.868910	1802.804196
3156.031705	1795.972028
3157.194326	1784.921678
3158.355283	1770.541259
3159.516068	1758.744056
3160.676680	1754.490909
3161.835628	1760.363636
3162.994405	1751.088112
3164.153009	1745.549650
3165.311442	1747.657343
3166.469703	1740.766434
3167.626303	1739.916084
3168.781241	1735.928671
3169.937498	1730.967832
3171.092094	1732.246154
3172.246520	1725.097902
3173.399285	1717.566434
3174.551881	1720.969231
3175.704307	1717.411189
3176.856562	1713.282517
3178.008648	1715.085315
3179.157587	1717.309091
3180.309333	1723.579021
3181.459422	1726.711888
3182.607853	1727.160839
3183.756116	1735.006993
3184.904210	1746.106294
3186.052135	1751.183217
3187.198404	1754.583217
3188.344505	1763.334266
3189.488952	1760.172028
3190.633230	1758.806993
3191.777341	1746.881119
3192.922770	1734.797203
3194.065060	1728.889510
3195.207182	1712.534266
3196.349138	1712.296503
3197.490926	1715.865734
3198.632547	1719.560839
3199.771033	1712.006993
3200.910836	1719.745455
3202.051956	1726.625175
3203.189943	1726.815385
3204.326279	1726.040559
3205.462451	1724.584615
3206.599939	1722.029371
3207.735779	1719.916084
3208.872936	1716.669930
3210.005480	1716.857343
3211.142305	1713.004196
3212.274520	1708.037762
3213.408051	1698.352448
3214.541417	1701.240559
3215.671657	1688.847552
3216.804694	1683.244755
3217.934605	1675.780420
3219.065832	1671.514685
3220.193934	1662.265734
3221.324834	1655.163636
3222.454089	1645.295105
3223.581701	1631.160839
3224.706190	1627.872727
3225.834955	1628.794406
3226.960598	1627.813986
3228.086078	1631.793007
3229.209917	1628.843357
3230.336551	1635.772028
3231.458587	1636.386014
3232.581939	1644.572028
3233.705128	1644.941259
3234.828156	1647.546853
3235.949544	1633.152448
3237.070771	1634.973427
3238.190359	1637.668531
3239.309786	1639.965035
3240.427576	1639.344056
3241.548157	1643.051748
3242.665625	1637.986014
3243.782932	1642.258741
3244.900079	1638.232168
3246.015589	1642.420979
3247.132415	1638.351049
3248.246130	1640.229371
3249.362636	1633.436364
3250.477506	1648.019580
3251.589268	1645.439161
3252.700871	1651.517483
3253.813789	1651.517483
3254.926547	1656.153846
3256.036199	1646.495105
3257.147166	1645.516084
3258.257974	1636.839161
3259.367150	1634.469930
3260.474695	1627.953846
3261.583555	1627.702098
3262.692256	1621.416783
3263.797855	1626.613986
3264.904769	1626.591608
3266.010053	1628.261538
3267.116651	1632.222378
3268.220149	1639.745455
3269.324961	1632.190210
3270.429616	1634.896503
3271.531173	1626.467133
3272.632573	1624.542657
3273.735287	1616.111888
3274.837845	1612.351049
3275.937306	1600.513287
3277.039551	1606.131469
3278.138700	1608.625175
3279.236224	1600.678322
3280.333594	1610.804196
3281.433745	1613.450350
3282.530804	1609.110490
3283.627707	1606.805594
3284.724455	1609.053147
3285.816644	1607.486713
3286.913083	1597.833566
3288.007899	1588.248951
3289.102560	1584.595804
3290.195600	1587.434965
3291.288486	1578.878322
3292.379751	1566.292308
3293.472329	1573.411189
3294.563287	1567.183217
3295.652625	1561.488112
3296.741810	1569.051748
3297.832307	1573.061538
3298.919721	1565.000000
3300.006981	1559.302098
3301.095554	1558.917483
3302.183974	1559.801399
3303.267848	1558.537063
3304.355963	1555.738462
3305.440996	1552.391608
3306.524414	1559.246154
3307.609144	1557.268531
3308.692258	1559.328671
3309.776684	1563.447552
3310.858033	1554.471329
3311.940693	1547.128671
3313.021738	1542.655944
3314.102633	1542.076923
3315.181915	1539.930070
3316.261046	1539.816783
3317.341489	1536.731469
3318.418857	1530.288112
3319.497537	1530.806993
3320.574605	1534.625175
3321.651523	1536.706294
3322.726831	1527.897902
3323.801989	1525.584615
3324.878458	1525.212587
3325.951857	1526.809790
3327.025106	1528.409790
3328.099667	1526.337063
3329.172619	1519.558042
3330.243962	1512.689510
3331.316616	1507.426573
3332.386203	1506.889510
3333.457101	1509.306294
3334.526393	1502.128671
3335.596994	1490.516084
3336.665989	1493.630769
3337.733379	1495.099301
3338.799163	1497.173427
3339.869173	1490.506294
3340.936120	1489.141259
3342.000005	1487.946853
3343.066657	1484.377622
3344.131706	1481.742657
3345.195151	1481.025175
3346.258450	1477.907692
3347.321602	1476.083916
3348.384608	1477.510490
3349.447468	1482.103497
3350.508725	1481.121678
3351.566926	1481.602797
3352.629348	1479.791608
3353.688714	1481.172028
3354.747934	1477.229371
3355.808463	1471.703497
3356.864484	1473.103497
3357.923268	1471.423776
3358.977545	1475.106294
3360.034586	1480.257343
3361.090028	1478.626573
3362.146780	1481.062937
3363.201933	1480.363636
3364.255489	1478.685315
3365.307448	1479.226573
3366.362170	1475.723077
3367.413842	1475.004196
3368.465370	1476.580420
3369.518208	1478.850350
3370.567998	1472.218182
3371.619097	1473.752448
3372.667149	1470.142657
3373.717962	1464.735664
3374.765729	1465.608392
3375.813354	1467.542657
3376.860837	1467.418182
3377.906727	1470.586014
3378.953925	1471.327273
3379.998080	1470.401399
3381.044995	1469.816783
3382.090317	1468.488112
3383.132598	1463.520280
3384.174738	1461.169231
3385.218187	1452.700699
3386.261494	1451.784615
3387.303211	1456.092308
3388.344788	1464.572028
3389.386223	1463.504895
3390.426070	1460.050350
3391.464328	1452.559441
3392.503894	1448.965035
3393.543320	1442.788811
3394.581158	1436.204196
3395.617409	1429.910490
3396.653520	1424.422378
3397.690939	1419.665734
3398.725325	1423.369231
3399.761019	1429.071329
3400.796573	1432.018182
3401.829095	1429.208392
3402.864371	1429.881119
3403.896617	1431.532867
3404.928723	1438.344056
3405.959247	1432.047552
3406.991077	1424.527273
3408.022769	1424.299301
3409.051433	1418.846154
3410.079960	1415.337063
3411.109793	1409.546853
3412.139489	1405.737063
3413.166159	1409.124476
3414.194135	1412.890909
3415.219087	1418.556643
3416.246790	1426.237762
3417.271468	1433.879720
3418.297453	1433.118881
3419.321859	1433.247552
3420.346128	1429.492308
3421.368818	1424.994406
3422.391372	1420.223776
3423.415232	1412.570629
3424.436072	1404.969231
3425.456776	1404.478721
3426.478786	1404.272927
3427.497778	1403.465135
3428.516635	1401.168631
3429.536798	1396.496703
3430.553944	1388.562637
