-118.702670	33.600000
-116.033069	4.200000
-113.366404	23.600000
-110.700491	16.600000
-108.037511	29.600000
-105.373100	21.600000
-102.711620	31.000000
-100.048711	24.800000
-97.390908	21.800000
-94.731676	12.800000
-92.073192	29.200000
-89.417633	35.200000
-86.760644	42.600000
-84.108754	38.400000
-81.455434	24.200000
-78.805033	22.400000
-76.153204	19.800000
-73.506465	23.200000
-70.858296	28.800000
-68.210870	18.200000
-65.566359	48.400000
-62.920418	22.600000
-60.279559	16.400000
-57.637271	32.200000
-54.997892	51.400000
-52.357084	20.000000
-49.717015	34.000000
-47.082020	46.200000
-44.445595	20.600000
-41.812073	43.800000
-39.177123	31.600000
-36.547239	30.000000
-33.913761	42.200000
-31.285346	40.400000
-28.657665	37.600000
-26.028555	28.200000
-23.404503	32.000000
-20.776860	24.000000
-18.154272	47.600000
-15.532414	52.800000
-12.911287	81.000000
-10.290891	130.200000
-7.673382	393.000000
-5.054445	1041.600000
-2.438394	2728.400000
0.176930	3422.000000
2.791525	2109.800000
5.403239	302.600000
8.016381	67.600000
10.624489	79.400000
13.236178	29.600000
15.842837	34.400000
18.450925	25.600000
21.058287	28.800000
23.660625	57.000000
26.266542	43.000000
28.867436	24.600000
31.469758	52.200000
34.067062	61.400000
36.667943	39.000000
39.263808	42.400000
41.861101	13.000000
44.457675	55.200000
47.049240	26.800000
49.642234	29.200000
52.232366	58.400000
54.823925	42.400000
57.412626	58.000000
60.002753	48.400000
62.587881	34.000000
65.174437	42.600000
67.760278	59.000000
70.343266	62.800000
72.927681	59.800000
75.504967	52.400000
78.085818	40.200000
80.663822	66.800000
83.241114	67.600000
85.819834	46.000000
88.393571	20.600000
90.968735	73.400000
93.541056	69.400000
96.112670	79.200000
98.681443	68.200000
101.251643	60.800000
103.819004	84.600000
106.387792	101.200000
108.953743	81.000000
111.516859	120.600000
114.083531	167.000000
116.640981	198.200000
119.204117	250.600000
121.762294	360.000000
124.324025	504.000000
126.880799	735.000000
129.438999	1137.800000
131.992247	1563.600000
134.544797	2358.000000
137.100897	3353.200000
139.652049	4467.000000
142.202504	5620.000000
144.752261	6498.800000
147.299199	7172.000000
149.845442	7488.800000
152.393110	7646.800000
154.940082	7896.200000
157.482118	7763.200000
160.023462	7856.800000
162.564112	7792.400000
165.106187	7749.200000
167.645452	7784.200000
170.181907	7820.000000
172.717672	7773.400000
175.254862	7761.400000
177.791361	7633.200000
180.325054	7738.800000
182.855943	7678.600000
185.386144	7629.200000
187.917771	7664.200000
190.446596	7685.600000
192.972622	7734.800000
195.497962	7704.400000
198.024727	7654.200000
200.548696	7675.000000
203.071979	7636.000000
205.594578	7725.800000
208.114384	7702.200000
210.633507	7661.200000
213.151947	7685.800000
215.671812	7747.000000
218.184674	7704.400000
220.701068	7846.600000
223.216781	7797.600000
225.727603	7794.200000
228.239850	7791.600000
230.749314	7809.000000
233.258100	7760.600000
235.766208	7819.200000
238.275740	7877.800000
240.780391	7868.600000
243.284366	7800.400000
245.789765	7974.800000
248.290289	7988.200000
250.794336	7886.000000
253.291413	7967.200000
255.792012	8025.600000
258.289840	8071.800000
260.786995	8050.200000
263.283478	7989.800000
265.775097	7991.400000
268.270236	8071.400000
270.762608	8016.600000
273.254310	7934.600000
275.743249	8031.000000
278.233611	8022.400000
280.721212	7947.200000
283.206053	8062.000000
285.694409	8026.800000
288.175825	7997.400000
290.660755	7920.200000
293.140839	8029.400000
295.624436	8052.200000
298.103191	8126.600000
300.583368	8141.200000
303.060794	8043.000000
305.537556	8037.800000
308.013654	8021.400000
310.487004	8035.200000
312.959693	8078.800000
315.431720	8098.800000
317.903085	8178.800000
320.371707	8337.400000
322.839669	8351.400000
325.309054	8183.400000
327.773616	8121.800000
330.241682	8189.800000
332.704927	8070.400000
335.167516	8130.000000
337.629448	8228.400000
340.090723	8258.600000
342.549263	8160.000000
345.009226	8137.200000
347.466457	8056.800000
349.923033	8094.600000
352.378955	8126.200000
354.832147	7939.200000
357.286762	8004.600000
359.736575	7932.600000
362.189884	7978.800000
364.638394	7881.200000
367.086254	7756.400000
369.535536	7772.800000
371.980023	7815.800000
374.425933	7753.200000
376.871194	7598.800000
379.313736	7673.600000
381.755630	7649.800000
384.196876	7528.600000
386.635408	7590.400000
389.075360	7392.000000
391.512599	7339.200000
393.947127	7367.600000
396.385141	7377.800000
398.818380	7310.200000
401.253039	7313.600000
403.682926	7332.400000
406.116298	7339.600000
408.544900	7253.800000
410.972860	7269.000000
413.402241	7177.800000
415.826858	7232.600000
418.252895	7306.000000
420.678293	7270.400000
423.103050	7225.000000
425.523048	7212.400000
427.944468	7292.600000
430.363192	7257.400000
432.783335	7256.000000
435.200784	7247.200000
437.619654	7194.400000
440.035829	7338.200000
442.447258	7262.800000
444.862163	7229.200000
447.274378	7227.800000
449.685960	7311.600000
452.096907	7315.600000
454.505167	7267.400000
456.912796	7243.200000
459.319792	7222.400000
461.726157	7296.000000
464.129839	7287.600000
466.532891	7198.000000
468.935313	7225.800000
471.337105	7217.200000
473.736219	7182.400000
476.136753	7143.800000
478.536658	7179.800000
480.931841	7123.200000
483.330489	7232.600000
485.724418	7093.800000
488.117721	7188.400000
490.510399	7126.000000
492.902451	7226.000000
495.295921	7154.200000
497.684679	7115.400000
500.070771	7170.600000
502.458283	7145.400000
504.845172	7092.200000
507.229396	7047.000000
509.615040	7171.000000
511.998022	7213.800000
514.378342	6977.200000
516.760083	7100.600000
519.139164	7046.200000
521.519663	7121.200000
523.897506	7131.000000
526.272692	7226.200000
528.647261	7033.000000
531.023249	7086.800000
533.396584	7092.600000
535.771336	7145.000000
538.141402	7049.000000
540.510854	7043.800000
542.881723	7040.400000
545.247911	6960.800000
547.615518	6941.600000
549.980479	6898.400000
552.344828	6892.000000
554.708563	6898.200000
557.073716	6786.200000
559.434197	6787.400000
561.796095	6812.200000
564.155354	6723.000000
566.511974	6710.400000
568.872040	6706.200000
571.225414	6558.200000
573.582233	6605.000000
575.936417	6562.600000
578.289992	6543.800000
580.642960	6422.400000
582.993295	6348.800000
585.345048	6471.800000
587.690124	6398.600000
590.040663	6296.000000
592.384530	6338.600000
594.733858	6342.400000
597.078537	6269.200000
599.420592	6284.800000
601.764064	6251.800000
604.104913	6262.600000
606.445159	6194.400000
608.782785	6266.800000
611.123846	6221.600000
613.460270	6220.600000
615.798110	6114.600000
618.133333	6185.200000
620.465939	6223.400000
622.799963	6153.800000
625.131372	6222.400000
627.462183	6177.400000
629.792396	6193.800000
632.122012	6196.000000
634.447004	6152.800000
636.777438	6247.000000
639.103251	6214.000000
641.426456	6308.200000
643.751078	6185.000000
646.073094	6258.000000
648.394516	6302.600000
650.713335	6194.400000
653.033571	6163.600000
655.353212	6267.600000
657.670254	6250.200000
659.986703	6243.200000
662.300554	6230.000000
664.615821	6326.400000
666.928491	6481.200000
669.242576	6376.600000
671.552061	6544.200000
673.862962	6454.200000
676.171270	6452.600000
678.478989	6455.800000
680.788124	6527.400000
683.092666	6632.600000
685.396622	6682.400000
687.699991	6626.200000
690.004776	6622.600000
692.304973	6715.200000
694.606586	6719.800000
696.907613	6662.600000
699.204059	6704.200000
701.501920	6804.400000
703.799197	6837.800000
706.095891	6760.400000
708.388009	6797.200000
710.683538	6973.400000
712.974493	6927.000000
715.266863	6969.200000
717.556657	7004.200000
719.845872	6957.200000
722.134507	7027.600000
724.420569	7020.400000
726.708045	7130.600000
728.992951	7051.000000
731.277279	7180.200000
733.559038	7277.400000
735.842211	7250.400000
738.124807	7211.400000
740.402847	7269.800000
742.682301	7347.000000
744.961180	7386.600000
747.239484	7493.800000
749.513237	7396.000000
751.788405	7446.000000
754.062999	7457.400000
756.335034	7535.600000
758.608482	7582.600000
760.879372	7616.600000
763.147706	7681.600000
765.417453	7729.400000
767.684645	7761.000000
769.951268	7697.600000
772.217320	7757.400000
774.480821	7767.200000
776.745734	7717.600000
779.010079	7854.800000
781.269893	7799.200000
783.531121	7855.400000
785.791781	7917.200000
788.049895	7902.600000
790.305464	7879.400000
792.564423	7899.600000
794.816884	8003.000000
797.074712	7959.800000
799.328021	8028.400000
801.578790	8037.200000
803.830971	7974.200000
806.080613	8083.400000
808.331667	8080.400000
810.578210	7999.000000
812.826166	8140.600000
815.071586	8183.400000
817.318419	8003.400000
819.564689	8156.600000
821.806456	8133.800000
824.051605	8225.200000
826.290283	8162.600000
828.532342	8239.200000
830.769903	8207.000000
833.008876	8314.400000
835.245322	8237.800000
837.483179	8318.000000
839.718511	8276.200000
841.951320	8347.800000
844.185539	8446.600000
846.417237	8498.600000
848.648380	8492.200000
850.878968	8558.400000
853.109002	8665.400000
855.338481	8682.000000
857.563480	8779.800000
859.791852	8878.600000
862.015746	8886.600000
864.241051	9019.200000
866.461880	9161.400000
868.686081	9246.200000
870.905809	9363.400000
873.126947	9404.400000
875.347535	9565.800000
877.565614	9694.400000
879.785102	9685.200000
882.000124	9827.600000
884.214598	9982.000000
886.428525	9961.200000
888.641904	10014.400000
890.854737	10019.000000
893.067022	9986.000000
895.276806	10100.200000
897.486044	10092.600000
899.694737	10103.600000
901.900930	10116.600000
904.108533	10110.400000
906.313639	9921.200000
908.518201	9972.200000
910.720268	9856.000000
912.923744	9734.800000
915.124726	9649.400000
917.325166	9641.000000
919.527015	9404.000000
921.722473	9254.400000
923.921289	9260.200000
926.115668	9102.400000
928.313404	8961.800000
930.506704	8847.600000
932.701413	8801.000000
934.893635	8509.400000
937.085320	8534.200000
939.276467	8383.600000
941.465131	8311.400000
943.653259	8452.400000
945.838905	8345.400000
948.027905	8274.200000
950.212480	8298.600000
952.396521	8286.000000
954.583913	8290.600000
956.763000	8283.800000
958.945438	8281.800000
961.127342	8227.400000
963.306771	8322.600000
965.483728	8416.000000
967.662093	8359.800000
969.841865	8352.000000
972.015288	8321.400000
974.192057	8318.600000
976.364419	8368.800000
978.538189	8272.800000
980.707555	8140.000000
982.880265	8248.600000
985.050510	8122.000000
987.220225	8093.600000
989.389412	7997.000000
991.554202	7936.400000
993.722334	7871.600000
995.886070	7811.400000
998.051214	7730.000000
1000.213898	7719.200000
1002.376057	7656.200000
1004.535759	7654.600000
1006.694936	7586.800000
1008.855520	7543.000000
1011.013649	7490.200000
1013.171255	7408.800000
1015.328337	7351.400000
1017.484895	7286.000000
1019.637074	7213.200000
1021.790660	7218.600000
1023.943724	7287.000000
1026.094339	7184.000000
1028.246360	7093.200000
1030.394009	7076.000000
1032.544989	7053.800000
1034.691598	7011.400000
1036.837688	7058.200000
1038.983260	6933.800000
1041.130237	6949.800000
1043.270925	6987.400000
1045.414942	6901.000000
1047.556520	6895.800000
1049.697580	6888.200000
1051.840046	6930.800000
1053.976231	6920.600000
1056.115743	6853.000000
1058.250899	6750.200000
1060.389380	6727.400000
1062.523508	6711.000000
1064.657122	6713.600000
1066.792140	6663.800000
1068.922810	6816.200000
1071.054884	6684.000000
1073.184528	6665.800000
1075.313661	6661.600000
1077.442283	6598.000000
1079.570393	6679.200000
1081.696077	6540.400000
1083.821251	6586.800000
1085.947829	6629.800000
1088.070069	6527.800000
1090.193714	6567.800000
1092.313024	6462.200000
1094.437563	6407.000000
1096.555858	6435.000000
1098.675556	6469.600000
1100.792837	6368.600000
1102.909610	6341.400000
1105.025877	6252.800000
1107.139729	6316.600000
1109.254984	6212.600000
1111.365917	6203.200000
1113.480162	6146.600000
1115.590086	6175.000000
1117.701413	6107.000000
1119.812237	6120.600000
1121.918744	6060.800000
1124.028560	6023.800000
1126.134062	6018.000000
1128.240968	5900.600000
1130.341658	5914.200000
1132.447560	5884.800000
1134.549153	5826.000000
1136.652148	5862.400000
1138.754644	5797.400000
1140.850932	5786.200000
1142.952427	5761.400000
1145.049620	5735.600000
1147.146314	5685.400000
1149.242511	5683.000000
1151.338209	5697.000000
1153.433410	5735.800000
1155.526214	5631.000000
1157.620420	5657.000000
1159.708435	5627.800000
1161.801648	5640.200000
1163.888674	5502.400000
1165.978998	5462.600000
1168.065034	5582.800000
1170.154368	5513.400000
1172.237521	5468.800000
1174.322077	5537.600000
1176.408034	5494.200000
1178.489709	5495.800000
1180.572785	5536.400000
1182.653476	5445.200000
1184.733676	5404.400000
1186.813384	5470.800000
1188.892601	5405.200000
1190.969435	5395.200000
1193.043889	5441.000000
1195.121635	5385.400000
1197.195110	5396.400000
1199.269987	5328.600000
1201.340596	5382.600000
1203.412606	5430.600000
1205.482240	5425.400000
1207.553275	5368.600000
1209.623822	5406.000000
1211.690109	5377.800000
1213.757796	5338.800000
1215.823110	5314.800000
1217.889825	5335.600000
1219.952284	5326.200000
1222.018029	5319.000000
1224.079519	5368.400000
1226.142410	5338.600000
1228.202932	5334.000000
1230.262972	5293.600000
1232.322528	5389.000000
1234.379720	5413.000000
1236.436429	5335.800000
1238.490776	5371.600000
1240.548403	5262.400000
1242.603668	5363.800000
1244.654693	5341.800000
1246.707117	5267.400000
1248.759061	5298.000000
1250.808647	5346.600000
1252.857754	5311.000000
1254.906382	5326.400000
1256.954532	5248.600000
1259.002204	5250.000000
1261.045645	5359.800000
1263.092362	5315.200000
1265.136725	5288.400000
1267.180611	5307.200000
1269.222147	5300.600000
1271.261333	5366.200000
1273.303792	5291.600000
1275.342028	5329.000000
1277.381663	5266.200000
1279.420822	5327.600000
1281.455764	5331.600000
1283.492104	5337.600000
1285.526100	5322.800000
1287.561493	5309.800000
1289.592673	5302.800000
1291.625252	5386.800000
1293.657359	5339.600000
1295.687125	5335.800000
1297.718288	5347.400000
1299.745244	5307.400000
1301.773599	5378.200000
1303.797748	5387.200000
1305.825163	5371.600000
1307.848375	5400.000000
1309.872985	5415.800000
1311.895260	5484.400000
1313.918933	5411.600000
1315.940273	5388.000000
1317.961146	5395.400000
1319.981551	5383.800000
1321.997763	5457.400000
1324.015372	5413.800000
1326.030653	5454.400000
1328.049193	5422.800000
1330.063543	5439.400000
1332.075568	5428.800000
1334.090851	5415.400000
1336.101948	5415.000000
1338.114441	5368.400000
1340.122752	5442.000000
1342.134319	5382.400000
1344.139847	5456.000000
1346.148630	5383.400000
1348.153235	5418.000000
1350.161094	5367.200000
1352.168491	5347.200000
1354.169857	5351.200000
1356.172619	5363.800000
1358.174922	5387.800000
1360.176765	5422.000000
1362.178148	5278.400000
1364.177217	5320.400000
1366.175828	5326.800000
1368.173981	5374.200000
1370.171676	5328.000000
1372.165208	5316.800000
1374.160135	5316.200000
1376.154606	5291.400000
1378.148620	5328.800000
1380.140327	5338.200000
1382.131578	5404.200000
1384.120524	5336.400000
1386.110865	5334.800000
1388.100752	5257.800000
1390.088334	5344.400000
1392.075463	5315.400000
1394.060290	5260.600000
1396.046512	5313.600000
1398.030433	5245.000000
1400.013902	5277.200000
1401.996919	5312.000000
1403.977638	5362.200000
1405.959751	5309.200000
1407.939567	5293.200000
1409.918933	5239.400000
1411.894160	5299.600000
1413.872625	5309.800000
1415.848797	5351.000000
1417.824519	5355.000000
1419.799792	5357.200000
1421.772775	5388.200000
1423.745309	5454.200000
1425.717395	5304.600000
1427.689034	5407.800000
1429.656544	5402.000000
1431.629128	5339.800000
1433.593906	5401.400000
1435.563757	5347.600000
1437.529483	5352.600000
1439.496603	5394.600000
1441.461439	5359.800000
1443.422155	5353.200000
1445.387939	5365.800000
1447.347768	5351.800000
1449.308991	5351.800000
1451.271605	5287.000000
1453.230105	5291.000000
1455.188163	5379.800000
1457.145779	5338.000000
1459.102952	5236.600000
1461.057850	5317.200000
1463.014141	5313.200000
1464.968157	5285.000000
1466.921732	5287.400000
1468.873035	5245.200000
1470.825730	5271.400000
1472.776154	5210.000000
1474.726139	5257.000000
1476.675685	5345.000000
1478.622962	5270.600000
1480.567971	5315.000000
1482.514373	5269.800000
1484.460337	5338.400000
1486.405864	5315.600000
1488.349125	5262.200000
1490.291950	5320.200000
1492.232512	5304.000000
1494.174466	5257.000000
1496.114157	5305.800000
1498.053413	5248.600000
1499.992235	5250.000000
1501.928797	5263.000000
1503.866750	5270.400000
1505.802444	5335.400000
1507.737705	5293.400000
1509.670709	5221.600000
1511.603281	5258.200000
1513.535421	5325.000000
1515.467129	5223.600000
1517.396584	5214.800000
1519.327429	5248.600000
1521.257842	5256.800000
1523.184183	5294.600000
1525.111914	5268.600000
1527.037396	5270.000000
1528.962448	5212.000000
1530.887070	5239.000000
1532.811264	5269.200000
1534.733211	5246.600000
1536.656548	5167.400000
1538.577638	5259.400000
1540.496484	5228.000000
1542.416720	5243.200000
1544.334712	5212.600000
1546.252278	5194.400000
1548.167603	5291.200000
1550.084317	5259.800000
1551.996975	5182.600000
1553.912838	5250.600000
1555.826462	5221.400000
1557.737847	5245.400000
1559.650622	5217.600000
1561.559347	5237.800000
1563.469461	5149.800000
1565.379152	5138.800000
1567.288420	5250.600000
1569.195453	5129.400000
1571.100254	5196.400000
1573.006444	5189.000000
1574.910403	5176.200000
1576.813940	5174.400000
1578.717057	5182.600000
1580.617944	5194.800000
1582.520220	5204.400000
1584.420267	5208.000000
1586.321703	5163.400000
1588.219104	5161.800000
1590.116088	5177.000000
1592.012653	5173.000000
1593.910605	5137.600000
1595.802723	5144.000000
1597.698035	5165.400000
1599.592928	5079.400000
1601.485601	5148.400000
1603.377856	5143.800000
1605.267892	5158.600000
1607.157512	5131.800000
1609.046717	5131.000000
1610.935506	5151.000000
1612.822079	5162.600000
1614.710039	5162.200000
1616.593982	5121.400000
1618.479312	5141.800000
1620.364229	5149.000000
1622.246932	5161.600000
1624.131022	5145.400000
1626.011100	5128.800000
1627.892566	5206.000000
1629.771820	5105.200000
1631.652462	5165.200000
1633.527299	5112.600000
1635.407117	5104.800000
1637.282930	5056.000000
1639.158334	5166.600000
1641.035123	5142.800000
1642.906115	5132.200000
1644.780290	5131.400000
1646.650465	5139.800000
1648.523821	5078.000000
1650.394974	5160.200000
1652.263925	5115.000000
1654.134262	5071.000000
1656.000606	5079.400000
1657.868335	5039.400000
1659.733865	5107.000000
1661.600781	5044.200000
1663.463707	5044.000000
1665.328020	5007.400000
1667.190136	5014.800000
1669.051847	5071.000000
1670.914943	5022.000000
1672.775845	5038.600000
1674.634554	5039.600000
1676.492859	5041.800000
1678.352548	4947.800000
1680.206471	5001.000000
1682.063567	4974.600000
1683.920259	5078.400000
1685.772976	5071.800000
1687.628864	5016.000000
1689.480778	4990.800000
1691.332291	5123.800000
1693.183403	4992.600000
1695.034114	5010.400000
1696.884425	5047.000000
1698.732552	5002.600000
1700.582063	4952.200000
1702.425824	4943.000000
1704.274536	4950.800000
1706.117501	4988.200000
1707.963632	4904.800000
1709.805802	4970.000000
1711.651137	4970.800000
1713.490730	5010.400000
1715.331709	4940.800000
1717.174070	5030.000000
1719.012474	4938.600000
1720.852262	5001.200000
1722.689875	4903.000000
1724.527093	4965.600000
1726.362137	4934.200000
1728.198564	4953.600000
1730.032818	4903.400000
1731.866679	4873.000000
1733.700145	4966.000000
1735.529665	4900.200000
1737.362345	4804.600000
1739.191079	4894.600000
1741.022972	4857.200000
1742.850922	4941.400000
1744.678480	4943.200000
1746.505647	4936.600000
1748.332422	4991.600000
1750.158805	4853.800000
1751.981252	4892.800000
1753.806854	4816.600000
1755.628520	4891.400000
1757.451569	4965.000000
1759.272457	4903.200000
1761.092955	4907.800000
1762.914835	4958.800000
1764.731015	4911.600000
1766.550347	4875.200000
1768.365752	4941.600000
1770.184308	4968.800000
1771.998938	4913.800000
1773.813181	4884.200000
1775.627038	4891.800000
1777.440508	4943.800000
1779.251824	4874.800000
1781.064522	4930.000000
1782.876834	4981.000000
1784.685227	4908.400000
1786.495002	4941.200000
1788.300861	4879.200000
1790.109867	4864.800000
1791.914959	4911.600000
1793.721432	4913.600000
1795.527520	4903.800000
1797.329699	4888.000000
1799.135021	4825.600000
1800.936435	4901.800000
1802.739230	4922.800000
1804.538118	4927.000000
1806.338387	4898.000000
1808.138274	4903.400000
1809.936019	4825.000000
1811.733384	4854.400000
1813.530368	4725.200000
1815.326972	4826.400000
1817.121437	4813.400000
1818.917282	4838.000000
1820.707471	4866.000000
1822.502557	4835.000000
1824.291990	4854.200000
1826.084561	4831.800000
1827.874996	4806.000000
1829.663296	4845.400000
1831.454732	4859.400000
1833.240523	4804.600000
1835.027692	4786.800000
1836.812731	4777.000000
1838.600902	4849.800000
1840.385188	4781.400000
1842.167345	4760.200000
1843.950881	4806.400000
1845.732288	4759.600000
1847.515073	4728.000000
1849.293979	4810.200000
1851.074263	4832.200000
1852.852422	4794.800000
1854.631958	4742.400000
1856.409370	4766.000000
1858.184659	4824.600000
1859.961325	4749.000000
1861.735869	4801.000000
1863.511790	4702.400000
1865.282092	4730.000000
1867.055521	4703.600000
1868.826830	4768.600000
1870.597768	4772.600000
1872.370084	4760.000000
1874.136786	4804.400000
1875.906613	4787.000000
1877.672577	4779.800000
1879.441665	4737.200000
1881.206891	4749.800000
1882.971749	4810.000000
1884.737983	4781.600000
1886.500359	4759.600000
1888.262368	4736.400000
1890.024010	4763.600000
1891.785284	4657.000000
1893.546192	4801.600000
1895.306732	4746.000000
1897.065164	4740.800000
1898.823229	4704.800000
1900.579187	4715.600000
1902.336521	4727.200000
1904.093490	4667.200000
1905.848352	4665.600000
1907.601109	4720.800000
1909.353503	4698.400000
1911.107273	4625.800000
1912.858939	4659.200000
1914.608502	4691.800000
1916.359442	4677.200000
1918.110018	4619.400000
1919.856756	4658.600000
1921.604869	4691.600000
1923.350883	4589.800000
1925.098273	4722.800000
1926.843564	4655.000000
1928.586758	4745.400000
1930.331328	4668.400000
1932.073801	4619.800000
1933.815914	4670.600000
1935.557668	4624.000000
1937.299061	4685.800000
1939.038361	4687.800000
1940.777302	4648.200000
1942.515884	4674.200000
1944.252375	4632.200000
1945.988507	4649.600000
1947.726015	4667.000000
1949.459700	4655.600000
1951.194760	4687.000000
1952.927731	4697.200000
1954.660346	4668.800000
1956.392604	4642.400000
1958.124506	4641.000000
1959.854323	4691.000000
1961.582054	4647.400000
1963.311160	4704.800000
1965.039910	4673.600000
1966.766577	4641.000000
1968.492890	4670.600000
1970.220577	4631.000000
1971.942727	4655.800000
1973.667978	4691.400000
1975.389422	4634.600000
1977.113966	4642.600000
1978.836431	4618.400000
1980.555092	4609.800000
1982.276852	4665.800000
1983.994811	4644.200000
1985.714142	4639.800000
1987.429674	4704.000000
1989.150026	4639.800000
1990.866580	4702.000000
1992.579337	4685.000000
1994.295190	4746.800000
1996.008971	4687.600000
1997.722402	4734.800000
1999.433762	4701.200000
2001.146494	4668.800000
2002.855435	4680.800000
2004.567470	4729.400000
2006.273995	4712.000000
2007.983613	4715.600000
2009.691163	4691.000000
2011.398366	4689.400000
2013.103503	4752.600000
2014.808293	4707.800000
2016.514456	4724.400000
2018.216835	4761.800000
2019.920587	4742.600000
2021.622276	4747.200000
2023.323619	4679.400000
2025.024618	4664.400000
2026.723555	4733.000000
2028.423864	4762.400000
2030.120397	4700.800000
2031.818302	4692.000000
2033.514149	4713.000000
2035.213081	4712.400000
2036.906527	4715.000000
2038.601344	4629.000000
2040.295818	4735.000000
2041.986525	4770.400000
2043.680314	4743.400000
2045.370338	4658.600000
2047.061731	4690.200000
2048.751072	4650.000000
2050.441784	4634.400000
2052.128732	4685.000000
2053.815340	4629.200000
2055.503319	4633.400000
2057.187538	4619.800000
2058.873127	4576.600000
2060.558377	4637.800000
2062.241579	4618.400000
2063.926151	4550.400000
2065.605259	4523.200000
2067.289154	4534.600000
2068.967587	4578.000000
2070.649098	4554.000000
2072.326857	4607.800000
2074.004280	4651.600000
2075.683072	4534.600000
2077.359821	4558.000000
2079.034529	4620.000000
2080.710607	4541.400000
2082.384643	4614.600000
2084.058345	4572.000000
2085.731711	4521.200000
2087.403038	4542.800000
2089.074031	4544.600000
2090.744690	4513.400000
2092.415015	4534.000000
2094.085006	4517.400000
2095.752960	4570.400000
2097.420582	4549.000000
2099.086170	4539.200000
2100.753126	4520.000000
2102.418049	4613.600000
2104.082640	4552.400000
2105.745199	4547.400000
2107.409126	4539.800000
2109.071022	4477.400000
2110.732587	4616.600000
2112.393822	4544.800000
2114.053027	4535.600000
2115.711903	4587.000000
2117.370448	4597.800000
2119.028664	4605.600000
2120.683157	4614.600000
2122.340714	4586.400000
2123.997941	4514.800000
2125.651448	4560.400000
2127.306322	4459.600000
2128.957477	4562.200000
2130.611695	4549.400000
2132.262195	4532.800000
2133.914063	4529.200000
2135.560522	4562.000000
2137.211735	4567.800000
2138.859236	4624.800000
2140.508103	4490.200000
2142.154951	4578.400000
2143.801474	4519.600000
2145.447671	4522.800000
2147.090159	4505.000000
2148.735706	4576.400000
2150.377546	4513.600000
2152.022443	4500.600000
2153.663635	4480.400000
2155.304503	4542.200000
2156.945048	4487.000000
2158.583580	4480.400000
2160.223478	4463.800000
2161.859676	4460.400000
2163.497240	4478.600000
2165.134482	4478.400000
2166.769714	4430.800000
2168.404624	4474.200000
2170.039213	4454.400000
2171.673481	4444.800000
2173.304055	4416.400000
2174.937681	4409.800000
2176.567614	4471.200000
2178.198914	4408.000000
2179.828208	4390.200000
2181.457183	4446.000000
2183.085838	4354.400000
2184.714174	4367.000000
2186.340507	4350.200000
2187.966522	4388.200000
2189.590536	4306.200000
2191.215915	4376.400000
2192.839293	4371.400000
2194.464036	4344.600000
2196.085098	4368.600000
2197.705843	4364.000000
2199.327952	4327.200000
2200.948064	4346.000000
2202.566180	4336.200000
2204.183980	4369.000000
2205.801464	4304.600000
2207.418634	4314.600000
2209.035487	4295.600000
2210.652026	4340.000000
2212.266571	4394.200000
2213.879125	4413.000000
2215.493042	4382.600000
2217.104968	4268.600000
2218.718257	4261.400000
2220.329555	4329.800000
2221.938865	4318.400000
2223.549537	4336.000000
2225.158221	4363.800000
2226.766593	4383.600000
2228.372978	4289.800000
2229.980725	4307.000000
2231.586487	4352.400000
2233.191937	4314.800000
2234.795402	4294.400000
2236.400230	4279.200000
2238.003074	4285.200000
2239.603935	4275.200000
2241.206159	4314.800000
2242.806401	4376.200000
2244.408005	4348.800000
2246.005956	4397.600000
2247.605270	4315.000000
2249.202604	4302.000000
2250.799630	4276.800000
2252.398017	4291.800000
2253.992757	4348.600000
2255.585519	4316.600000
2257.179644	4299.200000
2258.775130	4272.800000
2260.366971	4250.600000
2261.958506	4332.200000
2263.551402	4248.000000
2265.138990	4233.800000
2266.731273	4231.800000
2268.318249	4303.200000
2269.908254	4347.600000
2271.492954	4335.400000
2273.082348	4209.400000
2274.666439	4235.400000
2276.251892	4240.600000
2277.835376	4226.800000
2279.421885	4155.800000
2281.004761	4162.600000
2282.587334	4185.800000
2284.169603	4191.000000
2285.748242	4199.400000
2287.329906	4125.400000
2288.907941	4149.600000
2290.488999	4168.800000
2292.066430	4182.800000
2293.641898	4196.800000
2295.220388	4065.400000
2296.795254	4170.800000
2298.369819	4111.000000
2299.944083	4129.800000
2301.518047	4129.800000
2303.091711	4086.200000
2304.665075	4102.400000
2306.234820	4052.200000
2307.804266	4103.200000
2309.376730	4007.600000
2310.943920	4064.200000
2312.514127	4118.400000
2314.080721	4075.000000
2315.648673	4105.000000
2317.214671	4053.600000
2318.780371	4145.400000
2320.345773	4131.400000
2321.909222	4063.400000
2323.474030	4058.000000
2325.035229	4140.000000
2326.599443	4150.800000
2328.158396	4101.000000
2329.720362	4158.000000
2331.280378	4089.400000
2332.840098	4105.600000
2334.397870	4103.000000
2335.955346	4135.600000
2337.512528	4103.800000
2339.067762	4135.200000
2340.622702	4091.000000
2342.177349	4078.800000
2343.731702	4094.600000
2345.285761	4124.200000
2346.839527	4107.000000
2348.391348	4075.600000
2349.941226	4005.000000
2351.494113	4109.000000
2353.041756	4053.800000
2354.592407	4076.600000
2356.139468	4065.600000
2357.687886	4051.600000
2359.236013	4024.400000
2360.780551	4116.000000
2362.326447	4125.600000
2363.870404	4063.400000
2365.415719	4082.800000
2366.957449	4101.600000
2368.500537	4073.600000
2370.041688	4024.000000
2371.582550	4081.200000
2373.123123	4061.600000
2374.663407	4071.200000
2376.203402	4082.800000
2377.739818	4138.800000
2379.279236	4016.600000
2380.815077	4067.200000
2382.352275	3994.400000
2383.885897	3992.200000
2385.422519	4047.000000
2386.957211	4032.000000
2388.489972	4008.600000
2390.022448	3990.400000
2391.552995	4066.000000
2393.086540	4047.200000
2394.614874	3993.800000
2396.144564	4081.000000
2397.673969	4030.400000
2399.203089	3985.800000
2400.731923	4031.000000
2402.255553	4003.600000
2403.783818	3980.600000
2405.306880	4073.800000
2406.834577	3987.000000
2408.355434	4013.400000
2409.880923	3997.000000
2411.402853	4051.800000
2412.926137	4100.000000
2414.447501	4015.000000
2415.966945	3990.600000
2417.487744	3974.600000
2419.006624	4050.800000
2420.525223	4057.800000
2422.041903	3954.600000
2423.559939	4014.000000
2425.077693	3978.600000
2426.591895	3941.600000
2428.105818	3957.200000
2429.619460	4023.600000
2431.134456	3953.000000
2432.645905	4025.800000
2434.158707	4023.400000
2435.669597	3980.200000
2437.180208	3940.600000
2438.688907	3896.200000
2440.200592	3951.600000
2441.708734	3966.200000
2443.216598	3966.200000
2444.724183	3904.200000
2446.228229	3957.600000
2447.735259	3922.600000
2449.240381	3897.800000
2450.745226	3959.600000
2452.248164	3902.000000
2453.750825	3919.800000
2455.253211	3899.400000
2456.753690	3907.800000
2458.255524	3849.000000
2459.755452	3876.800000
2461.255105	3847.400000
2462.754483	3808.800000
2464.251958	3830.400000
2465.747531	3772.800000
2467.246084	3860.000000
2468.741109	3788.600000
2470.237486	3867.400000
2471.730337	3787.000000
2473.224541	3825.200000
2474.718471	3811.800000
2476.208877	3814.200000
2477.702261	3790.800000
2479.193747	3728.400000
2480.683336	3773.400000
2482.172653	3756.200000
2483.660074	3837.800000
2485.150471	3803.600000
2486.637350	3777.800000
2488.125580	3775.200000
2489.610293	3808.000000
2491.094736	3749.000000
2492.580531	3744.800000
2494.064434	3837.000000
2495.549687	3736.000000
2497.029807	3782.200000
2498.512899	3779.600000
2499.994102	3775.800000
2501.475035	3826.400000
2502.954078	3742.000000
2504.432854	3786.800000
2505.911361	3794.400000
2507.389599	3801.000000
2508.867570	3824.200000
2510.342035	3780.200000
2511.819470	3830.400000
2513.293400	3756.200000
2514.768682	3795.200000
2516.243696	3775.600000
2517.715209	3757.200000
2519.188073	3784.600000
2520.659054	3746.800000
2522.131385	3817.800000
2523.598602	3759.400000
2525.068786	3810.600000
2526.537089	3738.000000
2528.005126	3816.000000
2529.472899	3766.400000
2530.940407	3734.800000
2532.407651	3792.800000
2533.871402	3778.000000
2535.336503	3785.800000
2536.799727	3779.200000
2538.264300	3781.000000
2539.725385	3798.800000
2541.187819	3795.200000
2542.649990	3808.000000
2544.108674	3808.400000
2545.571931	3784.600000
2547.030091	3747.600000
2548.489601	3773.800000
2549.944016	3734.800000
2551.403002	3740.000000
2552.860116	3765.400000
2554.315358	3736.400000
2555.770340	3707.800000
2557.223452	3718.800000
2558.677913	3676.400000
2560.130505	3730.400000
2561.582837	3731.600000
2563.033301	3690.200000
2564.486722	3730.600000
2565.935060	3672.600000
2567.386353	3697.200000
2568.835780	3683.800000
2570.281736	3682.800000
2571.730646	3701.200000
2573.176085	3688.200000
2574.622873	3713.600000
2576.067797	3695.800000
2577.512464	3674.800000
2578.958478	3685.800000
2580.401025	3615.200000
2581.844920	3636.000000
2583.285350	3627.800000
2584.727128	3577.400000
2586.167046	3667.800000
2587.608311	3673.200000
2589.046114	3641.600000
2590.486867	3691.800000
2591.922558	3658.800000
2593.361197	3578.600000
2594.797980	3648.400000
2596.232907	3612.800000
2597.670781	3643.600000
2599.103598	3615.200000
2600.537762	3637.800000
2601.970071	3585.200000
2603.403728	3610.600000
2604.835530	3565.000000
2606.267080	3564.600000
2607.698376	3520.400000
2609.127821	3604.400000
2610.557013	3568.800000
2611.984354	3547.600000
2613.413042	3563.000000
2614.841477	3548.600000
2616.266466	3514.000000
2617.692800	3537.600000
2619.117287	3539.200000
2620.543118	3510.800000
2621.965507	3547.400000
2623.389240	3550.600000
2624.811128	3504.000000
2626.232765	3492.800000
2627.652558	3490.600000
2629.073696	3500.800000
2630.494584	3481.000000
2631.912033	3462.800000
2633.332422	3488.600000
2634.749374	3476.000000
2636.166078	3485.400000
2637.582533	3454.400000
2638.998740	3480.800000
2640.414699	3414.000000
2641.828817	3496.000000
2643.242687	3495.800000
2644.654718	3398.800000
2646.068094	3466.000000
2647.478040	3472.600000
2648.890922	3460.400000
2650.300375	3406.000000
2651.709582	3479.800000
2653.116953	3466.800000
2654.527258	3480.400000
2655.935727	3429.800000
2657.342362	3472.800000
2658.748750	3463.800000
2660.153306	3457.400000
2661.559205	3546.800000
2662.963270	3401.600000
2664.367092	3515.600000
2665.770669	3455.200000
2667.172415	3452.800000
2668.575504	3548.400000
2669.975175	3463.000000
2671.376190	3485.200000
2672.773789	3499.000000
2674.174317	3398.000000
2675.571431	3479.400000
2676.969888	3431.400000
2678.366517	3483.000000
2679.762905	3428.600000
2681.159050	3445.400000
2682.553369	3428.600000
2683.949031	3485.400000
2685.341284	3441.800000
2686.734879	3413.400000
2688.126650	3471.400000
2689.519764	3424.400000
2690.911053	3354.600000
2692.300521	3422.600000
2693.689748	3417.600000
2695.078735	3420.800000
2696.469065	3402.600000
2697.854411	3379.000000
2699.242680	3350.600000
2700.629129	3362.800000
2702.015339	3328.600000
2703.401310	3379.600000
2704.783883	3360.800000
2706.167798	3416.000000
2707.551474	3363.400000
2708.934913	3297.200000
2710.314956	3328.200000
2711.696341	3340.200000
2713.075910	3339.000000
2714.456821	3317.800000
2715.835917	3339.000000
2717.213199	3273.800000
2718.591822	3380.200000
2719.968631	3325.600000
2721.345205	3384.600000
2722.721543	3265.800000
2724.096069	3274.600000
2725.471936	3340.800000
2726.844416	3298.600000
2728.219813	3319.600000
2729.590249	3310.400000
2730.962025	3285.600000
2732.333568	3327.800000
2733.703302	3299.200000
2735.074376	3333.000000
2736.443643	3294.000000
2737.812676	3303.200000
2739.179903	3299.800000
2740.546896	3269.200000
2741.913657	3301.400000
2743.280185	3257.200000
2744.644909	3220.600000
2746.009400	3297.400000
2747.373659	3220.200000
2748.737687	3258.600000
2750.101482	3259.200000
2751.461905	3194.600000
2752.825237	3236.600000
2754.183627	3288.800000
2755.544927	3246.000000
2756.902857	3292.200000
2758.263695	3242.800000
2759.622733	3187.000000
2760.978403	3206.400000
2762.336982	3206.800000
2763.692193	3181.400000
2765.047175	3164.400000
2766.400360	3198.400000
2767.756452	3153.000000
2769.109180	3173.800000
2770.461679	3236.200000
2771.813951	3172.400000
2773.167560	3134.800000
2774.517808	3161.200000
2775.866263	3181.800000
2777.217622	3129.600000
2778.565622	3185.000000
2779.914961	3136.000000
2781.262507	3154.200000
2782.609827	3076.600000
2783.956919	3095.400000
2785.302221	3106.800000
2786.647297	3156.200000
2787.992147	3105.800000
2789.336771	3069.600000
2790.678043	3094.400000
2792.020652	3090.600000
2793.363037	3130.200000
2794.705196	3062.200000
2796.044006	3071.400000
2797.385716	3147.400000
2798.724077	3132.400000
2800.063776	3044.400000
2801.401689	3082.800000
2802.737818	3132.800000
2804.073724	3072.800000
2805.410967	3065.600000
2806.746425	3023.400000
2808.081661	3095.600000
2809.415115	3048.000000
2810.749905	3087.200000
2812.081354	3079.000000
2813.415699	3100.400000
2814.745146	3045.600000
2816.075930	3071.800000
2817.406492	3044.200000
2818.735275	3079.400000
2820.065395	3051.600000
2821.393736	3092.600000
2822.721855	3070.800000
2824.048198	3084.400000
2825.375876	2995.000000
2826.700222	3049.800000
2828.025904	3056.400000
2829.349810	3072.800000
2830.673496	3024.800000
2831.998518	3059.400000
2833.320211	3050.600000
2834.641685	3035.400000
2835.962939	3025.600000
2837.283975	3015.800000
2838.603239	3006.600000
2839.923838	3068.000000
2841.242665	3050.800000
2842.561274	2981.800000
2843.878113	2994.600000
2845.194734	3004.200000
2846.511138	2936.000000
2847.825772	2999.200000
2849.141741	2944.800000
2850.454391	2960.200000
2851.768375	3016.000000
2853.082143	2991.400000
2854.395694	2948.200000
2855.707479	2970.400000
2857.017497	3001.400000
2858.328850	3004.000000
2859.636888	2908.800000
2860.946260	3012.800000
2862.255417	2998.400000
2863.564359	2906.800000
2864.871538	3020.000000
2866.176953	2953.400000
2867.483703	3007.800000
2868.788691	2961.400000
2870.093464	2960.000000
2871.396477	2974.600000
2872.702370	2947.600000
2874.003409	2913.600000
2875.305781	2902.400000
2876.606395	2986.000000
2877.908341	2981.600000
2879.210075	2976.400000
2880.508505	2972.200000
2881.808268	2952.400000
2883.106274	2983.400000
2884.404068	2927.400000
2885.700105	2923.800000
2886.997476	2878.800000
2888.293092	2954.200000
2889.588496	2967.600000
2890.883689	2938.200000
2892.175585	2901.400000
2893.470356	2910.600000
2894.761832	2948.000000
2896.054640	2924.000000
2897.347238	2907.600000
2898.636541	2874.400000
2899.927178	2884.200000
2901.216063	2896.000000
2902.506280	2853.800000
2903.793206	2900.800000
2905.081464	2871.000000
2906.367973	2798.200000
2907.654273	2905.400000
2908.940365	2895.200000
2910.224709	2865.400000
2911.511925	2883.600000
2912.794314	2889.400000
2914.078035	2892.400000
2915.360009	2859.600000
2916.641777	2815.800000
2917.921799	2865.200000
2919.204691	2825.200000
2920.485838	2857.000000
2921.763703	2868.800000
2923.044437	2848.400000
2924.321890	2805.200000
2925.599138	2832.800000
2926.874643	2833.800000
2928.153016	2812.800000
2929.426575	2766.200000
2930.703001	2798.400000
2931.977685	2750.800000
2933.250630	2784.800000
2934.524906	2765.800000
2935.797441	2787.600000
2937.069773	2758.000000
2938.338832	2798.600000
2939.610756	2753.600000
2940.880942	2775.600000
2942.150924	2735.600000
2943.420703	2763.800000
2944.688746	2773.800000
2945.955052	2737.000000
2947.221156	2721.800000
2948.488591	2800.200000
2949.754290	2786.600000
2951.019788	2783.000000
2952.285083	2750.400000
2953.547113	2761.000000
2954.810473	2728.400000
2956.073632	2744.200000
2957.335058	2786.400000
2958.597815	2770.400000
2959.858839	2698.200000
2961.118133	2708.400000
2962.377226	2766.000000
2963.636120	2716.600000
2964.894812	2748.200000
2966.153305	2703.400000
2967.410069	2787.000000
2968.666634	2749.400000
2969.921470	2719.600000
2971.177636	2678.400000
2972.430547	2727.600000
2973.684786	2696.000000
2974.938827	2731.000000
2976.191142	2699.400000
2977.443259	2707.400000
2978.693651	2713.000000
2979.946898	2718.800000
2981.195368	2762.200000
2982.446693	2772.800000
2983.694768	2695.600000
2984.942646	2720.400000
2986.190328	2689.800000
2987.437812	2683.400000
2988.683575	2703.800000
2989.929141	2667.800000
2991.176036	2768.200000
2992.419686	2694.000000
2993.664663	2718.000000
2994.906398	2711.400000
2996.150984	2676.600000
2997.393851	2710.400000
2998.633477	2777.200000
2999.875953	2690.000000
3001.115189	2656.600000
3002.355753	2704.400000
3003.594600	2655.600000
3004.833253	2606.800000
3006.070190	2737.000000
3007.308455	2680.800000
3008.545004	2668.200000
3009.781360	2643.200000
3011.017522	2651.400000
3012.251970	2657.200000
3013.486225	2607.600000
3014.720287	2654.800000
3015.952637	2656.400000
3017.183275	2626.200000
3018.416759	2618.200000
3019.648532	2630.400000
3020.878593	2662.800000
3022.108463	2667.400000
3023.336623	2585.600000
3024.566110	2612.200000
3025.793887	2600.400000
3027.021473	2598.400000
3028.250385	2654.800000
3029.474555	2641.800000
3030.701568	2618.600000
3031.925358	2580.400000
3033.150473	2643.600000
3034.373883	2585.400000
3035.597102	2629.200000
3036.818616	2592.400000
3038.042971	2619.600000
3039.262591	2538.000000
3040.483537	2585.800000
3041.704293	2603.600000
3042.923347	2614.600000
3044.143725	2600.800000
3045.360887	2564.800000
3046.579374	2594.200000
3047.796160	2554.400000
3049.012757	2588.200000
3050.229167	2597.000000
3051.442363	2577.600000
3052.658397	2630.800000
3053.871219	2563.400000
3055.086878	2578.000000
3056.297814	2504.800000
3057.510076	2564.400000
3058.722150	2593.000000
3059.934038	2544.000000
3061.144229	2554.200000
3062.354233	2525.800000
3063.564051	2508.200000
3064.772173	2512.400000
3065.980110	2524.600000
3067.186351	2548.400000
3068.393917	2527.800000
3069.599788	2513.700000
3070.805474	2499.600000
3072.010976	2525.000000
3073.214784	2523.800000
3074.419916	2531.000000
3075.623355	2479.200000
3076.825102	2520.600000
3078.026666	2531.000000
3079.228046	2564.000000
3080.429242	2484.200000
3081.628748	2520.200000
3082.828071	2461.800000
3084.028717	2485.200000
3085.227673	2514.800000
3086.423434	2515.800000
3087.622025	2538.400000
3088.817422	2491.400000
3090.014143	2501.200000
3091.207671	2478.400000
3092.404027	2411.800000
3093.598696	2514.000000
3094.790175	2491.600000
3095.985986	2472.400000
3097.177102	2448.200000
3098.369542	2474.200000
3099.558793	2557.200000
3100.750871	2407.200000
3101.941265	2427.600000
3103.128473	2436.600000
3104.317003	2443.400000
3105.506856	2438.600000
3106.693524	2448.200000
3107.880013	2485.000000
3109.066323	2443.600000
3110.253954	2355.200000
3111.438403	2422.800000
3112.621173	2383.400000
3113.806765	2389.400000
3114.990678	2419.200000
3116.172911	2468.800000
3117.354967	2415.400000
3118.536844	2381.400000
3119.718543	2409.400000
3120.898565	2385.000000
3122.076910	2403.200000
3123.258075	2426.000000
3124.436065	2369.600000
3125.613878	2361.000000
3126.791514	2387.600000
3127.967475	2369.600000
3129.143260	2376.800000
3130.320365	2410.800000
3131.495797	2384.400000
3132.669555	2367.800000
3133.841640	2395.800000
3135.015046	2379.200000
3136.188277	2387.600000
3137.359836	2385.200000
3138.532715	2422.800000
3139.702427	2400.000000
3140.873460	2403.000000
3142.042822	2373.200000
3143.210515	2382.200000
3144.381023	2359.200000
3145.546872	2394.800000
3146.717031	2364.200000
3147.882532	2376.800000
3149.047860	2377.200000
3150.213014	2320.000000
3151.377995	2372.400000
3152.544295	2362.600000
3153.705942	2336.600000
3154.868910	2300.800000
3156.031705	2348.600000
3157.194326	2321.000000
3158.355283	2264.400000
3159.516068	2280.800000
3160.676680	2337.400000
3161.835628	2260.400000
3162.994405	2324.800000
3164.153009	2289.800000
3165.311442	2261.800000
3166.469703	2333.600000
3167.626303	2259.400000
3168.781241	2240.400000
3169.937498	2308.000000
3171.092094	2289.400000
3172.246520	2281.800000
3173.399285	2236.200000
3174.551881	2268.200000
3175.704307	2249.200000
3176.856562	2275.800000
3178.008648	2281.200000
3179.157587	2245.200000
3180.309333	2271.800000
3181.459422	2239.800000
3182.607853	2309.400000
3183.756116	2260.600000
3184.904210	2266.000000
3186.052135	2255.400000
3187.198404	2295.800000
3188.344505	2303.000000
3189.488952	2352.600000
3190.633230	2299.200000
3191.777341	2278.600000
3192.922770	2248.200000
3194.065060	2224.800000
3195.207182	2234.600000
3196.349138	2290.200000
3197.490926	2248.400000
3198.632547	2223.600000
3199.771033	2278.600000
3200.910836	2257.200000
3202.051956	2249.800000
3203.189943	2238.400000
3204.326279	2234.200000
3205.462451	2212.600000
3206.599939	2268.400000
3207.735779	2244.800000
3208.872936	2258.200000
3210.005480	2245.200000
3211.142305	2217.000000
3212.274520	2240.600000
3213.408051	2234.000000
3214.541417	2213.800000
3215.671657	2194.800000
3216.804694	2231.400000
3217.934605	2161.000000
3219.065832	2222.200000
3220.193934	2133.000000
3221.324834	2158.600000
3222.454089	2119.000000
3223.581701	2202.000000
3224.706190	2098.600000
3225.834955	2197.800000
3226.960598	2140.400000
3228.086078	2138.800000
3229.209917	2153.600000
3230.336551	2172.200000
3231.458587	2163.000000
3232.581939	2189.600000
3233.705128	2117.400000
3234.828156	2133.000000
3235.949544	2109.600000
3237.070771	2097.800000
3238.190359	2132.600000
3239.309786	2095.400000
3240.427576	2125.200000
3241.548157	2045.200000
3242.665625	2141.800000
3243.782932	2155.600000
3244.900079	2130.200000
3246.015589	2156.600000
3247.132415	2163.000000
3248.246130	2136.000000
3249.362636	2095.800000
3250.477506	2140.200000
3251.589268	2153.000000
3252.700871	2153.200000
3253.813789	2099.600000
3254.926547	2100.000000
3256.036199	2140.400000
3257.147166	2133.000000
3258.257974	2081.800000
3259.367150	2123.400000
3260.474695	2136.200000
3261.583555	2110.200000
3262.692256	2108.600000
3263.797855	2128.800000
3264.904769	2094.800000
3266.010053	2105.600000
3267.116651	2127.400000
3268.220149	2094.600000
3269.324961	2121.200000
3270.429616	2145.800000
3271.531173	2110.000000
3272.632573	2060.800000
3273.735287	2117.000000
3274.837845	2117.000000
3275.937306	2154.000000
3277.039551	2108.800000
3278.138700	2087.600000
3279.236224	2100.400000
3280.333594	2093.000000
3281.433745	2098.400000
3282.530804	2078.800000
3283.627707	2078.800000
3284.724455	2085.800000
3285.816644	2075.000000
3286.913083	2037.800000
3288.007899	2045.600000
3289.102560	2038.400000
3290.195600	2100.000000
3291.288486	2064.800000
3292.379751	2074.000000
3293.472329	2071.800000
3294.563287	2062.200000
3295.652625	2021.600000
3296.741810	2042.600000
3297.832307	2037.000000
3298.919721	2026.800000
3300.006981	2010.600000
3301.095554	2074.800000
3302.183974	2038.800000
3303.267848	2009.400000
3304.355963	2012.000000
3305.440996	2034.600000
3306.524414	2014.600000
3307.609144	2018.400000
3308.692258	2038.800000
3309.776684	2046.800000
3310.858033	2001.200000
3311.940693	1998.400000
3313.021738	2012.000000
3314.102633	2072.000000
3315.181915	2017.800000
3316.261046	1988.600000
3317.341489	2001.200000
3318.418857	1996.800000
3319.497537	2023.400000
3320.574605	1997.800000
3321.651523	2005.000000
3322.726831	1954.200000
3323.801989	1997.400000
3324.878458	2068.800000
3325.951857	1971.000000
3327.025106	1951.800000
3328.099667	1932.200000
3329.172619	2007.600000
3330.243962	1976.600000
3331.316616	1974.600000
3332.386203	1888.000000
3333.457101	1913.200000
3334.526393	1951.800000
3335.596994	2006.600000
3336.665989	1953.400000
3337.733379	1928.600000
3338.799163	1932.800000
3339.869173	1886.800000
3340.936120	1927.400000
3342.000005	1925.600000
3343.066657	1954.600000
3344.131706	1912.000000
3345.195151	1922.000000
3346.258450	1946.600000
3347.321602	1917.000000
3348.384608	1894.400000
3349.447468	1928.200000
3350.508725	1947.800000
3351.566926	1922.000000
3352.629348	1918.400000
3353.688714	1900.200000
3354.747934	1917.800000
3355.808463	1935.800000
3356.864484	1926.400000
3357.923268	1940.200000
3358.977545	1958.800000
3360.034586	1912.400000
3361.090028	1945.400000
3362.146780	1876.000000
3363.201933	1917.600000
3364.255489	1925.400000
3365.307448	1901.400000
3366.362170	1928.800000
3367.413842	1925.600000
3368.465370	1892.600000
3369.518208	1891.800000
3370.567998	1976.000000
3371.619097	1915.400000
3372.667149	1897.400000
3373.717962	1900.200000
3374.765729	1909.000000
3375.813354	1883.600000
3376.860837	1885.800000
3377.906727	1917.600000
3378.953925	1901.200000
3379.998080	1961.600000
3381.044995	1893.800000
3382.090317	1870.400000
3383.132598	1923.000000
3384.174738	1881.800000
3385.218187	1897.400000
3386.261494	1891.400000
3387.303211	1910.200000
3388.344788	1885.200000
3389.386223	1833.000000
3390.426070	1915.600000
3391.464328	1875.000000
3392.503894	1904.000000
3393.543320	1850.600000
3394.581158	1907.800000
3395.617409	1857.400000
3396.653520	1859.200000
3397.690939	1911.000000
3398.725325	1882.800000
3399.761019	1861.800000
3400.796573	1852.400000
3401.829095	1865.800000
3402.864371	1846.400000
3403.896617	1858.000000
3404.928723	1850.200000
3405.959247	1851.600000
3406.991077	1866.600000
3408.022769	1834.800000
3409.051433	1852.600000
3410.079960	1852.200000
3411.109793	1825.600000
3412.139489	1813.400000
3413.166159	1857.200000
3414.194135	1871.200000
3415.219087	1844.400000
3416.246790	1784.400000
3417.271468	1858.600000
3418.297453	1813.600000
3419.321859	1836.800000
3420.346128	1832.600000
3421.368818	1837.600000
3422.391372	1848.800000
3423.415232	1838.000000
3424.436072	1840.000000
3425.456776	1800.800000
3426.478786	1793.800000
3427.497778	1791.800000
3428.516635	1819.000000
3429.536798	1823.600000
3430.553944	1786.400000
