-118.106446	10.370000
-115.436846	5.160000
-112.770181	6.960000
-110.104268	8.060000
-107.441287	10.840000
-104.776877	11.910000
-102.115397	9.670000
-99.452487	8.370000
-96.794685	9.240000
-94.135452	14.580000
-91.476968	10.410000
-88.821409	6.250000
-86.164421	13.570000
-83.512530	6.540000
-80.859210	8.170000
-78.208810	9.620000
-75.556980	15.760000
-72.910241	10.660000
-70.262072	16.630000
-67.614647	11.810000
-64.970135	11.810000
-62.324195	12.180000
-59.683336	8.710000
-57.041048	12.350000
-54.401668	8.800000
-51.760860	16.790000
-49.120792	10.560000
-46.485796	10.890000
-43.849371	12.590000
-41.215850	11.510000
-38.580900	13.070000
-35.951015	13.750000
-33.317538	14.600000
-30.689123	18.070000
-28.061441	16.010000
-25.432332	17.870000
-22.808279	22.480000
-20.180637	18.930000
-17.558048	30.920000
-14.936191	37.350000
-12.315064	68.470000
-9.694667	143.470000
-7.077158	462.470000
-4.458221	1426.370000
-1.842170	3369.500000
0.773153	4008.180000
3.387749	1906.240000
5.999462	182.400000
8.612604	45.450000
11.220712	35.090000
13.832402	25.820000
16.439061	22.930000
19.047148	22.080000
21.654511	19.940000
24.256849	19.110000
26.862765	15.740000
29.463659	16.460000
32.065981	18.270000
34.663286	18.370000
37.264166	13.260000
39.860032	24.050000
42.457325	14.870000
45.053899	13.740000
47.645464	22.250000
50.238457	23.220000
52.828589	22.020000
55.420149	17.430000
58.008849	16.230000
60.598976	17.810000
63.184105	22.920000
65.770660	22.770000
68.356502	17.310000
70.939490	21.520000
73.523905	19.720000
76.101190	18.870000
78.682042	22.500000
81.260045	24.580000
83.837338	25.560000
86.416057	28.340000
88.989795	25.260000
91.564959	29.990000
94.137280	30.580000
96.708893	27.860000
99.277666	31.460000
101.847866	37.200000
104.415228	38.280000
106.984015	43.670000
109.549966	49.140000
112.113082	64.600000
114.679754	86.170000
117.237205	99.750000
119.800341	140.570000
122.358518	202.180000
124.920248	282.540000
127.477023	424.020000
130.035223	634.190000
132.588471	933.740000
135.141020	1353.100000
137.697120	1887.580000
140.248273	2461.070000
142.798727	3026.400000
145.348485	3458.420000
147.895423	3782.710000
150.441665	3947.140000
152.989333	4041.900000
155.536306	4089.470000
158.078342	4065.520000
160.619685	4044.480000
163.160335	4053.010000
165.702411	4015.220000
168.241676	4053.580000
170.778131	4005.960000
173.313896	4001.790000
175.851086	3991.870000
178.387584	3975.250000
180.921277	3960.970000
183.452167	3956.090000
185.982368	3936.850000
188.513994	3923.160000
191.042819	3932.460000
193.568845	3934.790000
196.094186	3915.450000
198.620951	3915.540000
201.144919	3918.280000
203.668203	3918.920000
206.190802	3908.960000
208.710608	3906.320000
211.229731	3897.380000
213.748171	3880.060000
216.268035	3894.820000
218.780898	3904.960000
221.297292	3904.020000
223.813004	3923.520000
226.323827	3912.970000
228.836074	3945.790000
231.345538	3933.250000
233.854324	3937.330000
236.362432	3959.980000
238.871963	3980.040000
241.376615	3969.320000
243.880590	3983.530000
246.385989	3977.530000
248.886513	4019.800000
251.390560	4020.330000
253.887637	4009.580000
256.388236	4024.850000
258.886064	4030.910000
261.383219	4031.620000
263.879701	4047.920000
266.371320	4055.040000
268.866459	4061.720000
271.358832	4048.040000
273.850534	4062.000000
276.339473	4055.740000
278.829835	4058.040000
281.317436	4040.990000
283.802277	4053.590000
286.290632	4067.690000
288.772048	4041.260000
291.256978	4045.390000
293.737063	4055.510000
296.220660	4056.450000
298.699414	4078.710000
301.179592	4089.990000
303.657017	4071.560000
306.133779	4076.320000
308.609878	4079.090000
311.083228	4063.450000
313.555916	4102.420000
316.027943	4082.100000
318.499309	4132.430000
320.967931	4163.470000
323.435893	4155.200000
325.905278	4123.300000
328.369840	4118.940000
330.837905	4103.380000
333.301151	4118.020000
335.763740	4108.550000
338.225671	4092.530000
340.686946	4091.790000
343.145487	4087.670000
345.605450	4071.280000
348.062680	4047.180000
350.519256	4033.990000
352.975178	4008.100000
355.428371	3972.560000
357.882985	3956.170000
360.332798	3930.390000
362.786108	3915.320000
365.234618	3871.370000
367.682478	3845.880000
370.131759	3821.210000
372.576247	3814.300000
375.022157	3770.950000
377.467418	3734.000000
379.909960	3738.430000
382.351854	3698.930000
384.793100	3679.420000
387.231631	3664.460000
389.671584	3620.210000
392.108823	3614.830000
394.543350	3583.730000
396.981365	3582.620000
399.414603	3555.670000
401.849263	3504.310000
404.279149	3506.000000
406.712521	3513.820000
409.141123	3509.260000
411.569084	3452.760000
413.998465	3479.890000
416.423081	3477.600000
418.849119	3458.220000
421.274516	3449.130000
423.699273	3453.650000
426.119272	3430.970000
428.540692	3464.790000
430.959415	3433.950000
433.379559	3436.350000
435.797008	3447.000000
438.215877	3434.000000
440.632053	3454.230000
443.043482	3452.520000
445.458387	3440.030000
447.870602	3438.010000
450.282183	3454.150000
452.693130	3449.780000
455.101391	3441.460000
457.509019	3426.620000
459.916016	3435.650000
462.322380	3431.790000
464.726062	3422.880000
467.129114	3417.070000
469.531536	3424.280000
471.933329	3409.820000
474.332443	3404.080000
476.732977	3408.930000
479.132882	3395.170000
481.528064	3374.780000
483.926713	3384.280000
486.320642	3367.220000
488.713945	3361.570000
491.106622	3356.190000
493.498674	3358.320000
495.892145	3328.140000
498.280903	3345.850000
500.666995	3345.680000
503.054507	3320.430000
505.441395	3325.210000
507.825620	3319.650000
510.211264	3314.110000
512.594245	3306.770000
514.974566	3313.650000
517.356306	3332.800000
519.735387	3307.620000
522.115887	3315.130000
524.493729	3310.620000
526.868916	3318.750000
529.243485	3298.090000
531.619473	3298.690000
533.992807	3274.440000
536.367559	3279.090000
538.737626	3256.910000
541.107077	3240.370000
543.477946	3216.990000
545.844135	3179.260000
548.211742	3173.670000
550.576703	3134.900000
552.941051	3127.260000
555.304787	3102.550000
557.669940	3082.400000
560.030420	3056.390000
562.392319	3044.000000
564.751578	3008.660000
567.108198	2976.840000
569.468263	2966.670000
571.821638	2926.810000
574.178457	2900.580000
576.532640	2873.580000
578.886216	2847.210000
581.239183	2831.060000
583.589519	2789.370000
585.941271	2776.050000
588.286347	2757.560000
590.636887	2728.840000
592.980754	2712.030000
595.330081	2705.120000
597.674761	2687.990000
600.016815	2678.860000
602.360287	2648.730000
604.701136	2643.900000
607.041383	2625.180000
609.379009	2643.580000
611.720070	2604.910000
614.056494	2617.990000
616.394334	2609.640000
618.729556	2599.970000
621.062163	2591.230000
623.396186	2619.710000
625.727596	2612.800000
628.058407	2604.970000
630.388620	2607.720000
632.718235	2619.520000
635.043228	2619.870000
637.373662	2612.220000
639.699474	2613.000000
642.022680	2635.650000
644.347301	2620.940000
646.669318	2619.480000
648.990740	2632.590000
651.309559	2633.650000
653.629794	2650.130000
655.949436	2657.390000
658.266477	2664.960000
660.582926	2671.610000
662.896778	2685.530000
665.212044	2704.730000
667.524714	2724.300000
669.838799	2708.580000
672.148284	2761.060000
674.459185	2764.910000
676.767493	2758.430000
679.075213	2787.420000
681.384348	2813.990000
683.688890	2830.040000
685.992845	2838.620000
688.296215	2848.560000
690.600999	2894.520000
692.901197	2892.960000
695.202809	2932.440000
697.503837	2914.420000
699.800282	2934.980000
702.098143	2966.550000
704.395420	2963.090000
706.692114	2988.380000
708.984232	3000.350000
711.279761	3007.720000
713.570717	3043.580000
715.863087	3069.970000
718.152881	3065.350000
720.442096	3085.290000
722.730730	3090.290000
725.016793	3119.550000
727.304269	3136.090000
729.589175	3140.600000
731.873502	3170.360000
734.155261	3206.930000
736.438434	3185.580000
738.721030	3210.670000
740.999071	3237.100000
743.278525	3255.140000
745.557404	3281.020000
747.835707	3299.780000
750.109461	3332.940000
752.384629	3341.750000
754.659223	3357.030000
756.931258	3365.480000
759.204705	3410.760000
761.475595	3418.250000
763.743929	3424.320000
766.013676	3444.360000
768.280869	3469.390000
770.547491	3492.230000
772.813544	3509.540000
775.077044	3506.360000
777.341958	3525.440000
779.606302	3549.550000
781.866117	3557.930000
784.127345	3570.200000
786.388005	3585.540000
788.646118	3604.210000
790.901687	3599.450000
793.160647	3651.120000
795.413108	3650.170000
797.670936	3633.400000
799.924244	3655.900000
802.175013	3664.970000
804.427194	3662.190000
806.676837	3679.820000
808.927891	3687.370000
811.174434	3680.740000
813.422389	3687.640000
815.667810	3724.120000
817.914642	3713.340000
820.160913	3746.830000
822.402680	3754.020000
824.647829	3767.750000
826.886506	3783.950000
829.128566	3793.850000
831.366127	3815.550000
833.605099	3839.360000
835.841545	3835.270000
838.079402	3859.420000
840.314735	3861.890000
842.547543	3930.680000
844.781763	3937.680000
847.013461	3958.490000
849.244604	3988.840000
851.475192	4022.400000
853.705226	4071.490000
855.934705	4112.020000
858.159703	4160.060000
860.388076	4207.270000
862.611970	4258.400000
864.837274	4304.330000
867.058103	4384.040000
869.282304	4416.490000
871.502032	4467.360000
873.723171	4521.590000
875.943759	4603.060000
878.161837	4660.770000
880.381326	4711.360000
882.596348	4768.290000
884.810822	4803.040000
887.024749	4856.570000
889.238128	4881.410000
891.450960	4887.390000
893.663246	4912.160000
895.873029	4934.160000
898.082267	4918.240000
900.290960	4922.800000
902.497154	4901.860000
904.704757	4877.180000
906.909863	4811.720000
909.114425	4806.540000
911.316491	4765.420000
913.519967	4668.170000
915.720949	4622.450000
917.921390	4546.750000
920.123239	4476.710000
922.318696	4387.850000
924.517513	4311.570000
926.711891	4233.750000
928.909627	4134.870000
931.102927	4077.930000
933.297636	4005.830000
935.489859	3938.450000
937.681544	3903.520000
939.872691	3842.250000
942.061355	3817.070000
944.249482	3787.430000
946.435129	3759.170000
948.624128	3742.820000
950.808704	3737.520000
952.992745	3761.120000
955.180136	3737.920000
957.359223	3750.600000
959.541661	3757.720000
961.723565	3750.010000
963.902995	3751.450000
966.079952	3743.470000
968.258316	3774.220000
970.438088	3765.560000
972.611511	3759.020000
974.788280	3723.280000
976.960643	3725.600000
979.134412	3688.920000
981.303778	3665.560000
983.476489	3642.040000
985.646733	3613.170000
987.816449	3562.440000
989.985636	3529.380000
992.150426	3510.530000
994.318557	3499.400000
996.482294	3423.270000
998.647437	3400.210000
1000.810122	3367.190000
1002.972280	3329.760000
1005.131982	3313.900000
1007.291160	3270.100000
1009.451744	3234.610000
1011.609873	3186.490000
1013.767478	3180.630000
1015.924560	3129.250000
1018.081119	3104.650000
1020.233298	3089.950000
1022.386883	3040.680000
1024.539947	3045.220000
1026.690563	3016.560000
1028.842584	3012.180000
1030.990232	2993.500000
1033.141212	2980.450000
1035.287821	2957.300000
1037.433912	2938.440000
1039.579483	2916.840000
1041.726460	2911.900000
1043.867149	2902.270000
1046.011166	2861.580000
1048.152743	2868.690000
1050.293804	2844.550000
1052.436269	2842.870000
1054.572455	2832.730000
1056.711967	2817.210000
1058.847123	2799.050000
1060.985604	2799.930000
1063.119731	2779.540000
1065.253345	2777.060000
1067.388364	2746.980000
1069.519033	2756.330000
1071.651107	2747.710000
1073.780752	2723.510000
1075.909885	2706.220000
1078.038506	2685.360000
1080.166616	2679.830000
1082.292300	2663.980000
1084.417474	2647.740000
1086.544052	2631.930000
1088.666293	2611.920000
1090.789937	2584.790000
1092.909248	2572.420000
1095.033787	2532.670000
1097.152081	2524.700000
1099.271780	2520.350000
1101.389060	2489.080000
1103.505834	2461.160000
1105.622101	2443.640000
1107.735953	2429.300000
1109.851208	2397.190000
1111.962141	2384.730000
1114.076385	2353.750000
1116.186309	2348.910000
1118.297637	2306.530000
1120.408460	2294.050000
1122.514968	2265.270000
1124.624784	2269.430000
1126.730286	2244.640000
1128.837191	2232.420000
1130.937881	2195.640000
1133.043783	2189.340000
1135.145376	2184.500000
1137.248372	2174.330000
1139.350867	2138.270000
1141.447155	2122.330000
1143.548651	2103.650000
1145.645844	2103.470000
1147.742538	2074.710000
1149.838734	2068.640000
1151.934433	2054.670000
1154.029634	2046.140000
1156.122438	2045.250000
1158.216644	2020.230000
1160.304659	2021.110000
1162.397872	2000.840000
1164.484897	1986.300000
1166.575221	1979.400000
1168.661258	1964.900000
1170.750592	1964.140000
1172.833745	1944.930000
1174.918301	1949.230000
1177.004257	1922.610000
1179.085932	1922.160000
1181.169009	1920.560000
1183.249700	1906.470000
1185.329899	1908.350000
1187.409607	1891.370000
1189.488824	1893.340000
1191.565659	1886.140000
1193.640113	1887.340000
1195.717859	1862.910000
1197.791334	1871.700000
1199.866210	1878.050000
1201.936819	1870.110000
1204.008830	1860.420000
1206.078464	1859.210000
1208.149499	1856.710000
1210.220046	1870.090000
1212.286332	1860.310000
1214.354019	1854.120000
1216.419334	1851.840000
1218.486049	1842.530000
1220.548508	1843.210000
1222.614252	1838.810000
1224.675743	1849.450000
1226.738633	1845.330000
1228.799156	1836.060000
1230.859195	1823.770000
1232.918752	1830.710000
1234.975943	1842.250000
1237.032653	1839.430000
1239.087000	1835.790000
1241.144627	1826.710000
1243.199892	1841.660000
1245.250916	1821.350000
1247.303340	1822.840000
1249.355284	1822.240000
1251.404870	1822.380000
1253.453977	1827.060000
1255.502606	1830.230000
1257.550756	1833.560000
1259.598428	1822.990000
1261.641869	1818.750000
1263.688585	1816.500000
1265.732948	1830.570000
1267.776835	1827.930000
1269.818371	1826.680000
1271.857557	1827.760000
1273.900015	1819.030000
1275.938251	1826.220000
1277.977886	1822.520000
1280.017046	1834.550000
1282.051987	1832.860000
1284.088328	1830.880000
1286.122323	1828.140000
1288.157717	1818.910000
1290.188897	1837.240000
1292.221476	1834.350000
1294.253582	1839.060000
1296.283348	1824.870000
1298.314512	1839.160000
1300.341468	1835.910000
1302.369822	1842.420000
1304.393972	1830.690000
1306.421386	1832.720000
1308.444598	1818.760000
1310.469208	1835.120000
1312.491484	1840.220000
1314.515157	1838.700000
1316.536497	1818.690000
1318.557369	1836.140000
1320.577775	1827.180000
1322.593986	1844.940000
1324.611596	1817.200000
1326.626877	1825.700000
1328.645416	1816.140000
1330.659767	1821.590000
1332.671792	1817.310000
1334.687074	1834.440000
1336.698171	1819.830000
1338.710665	1823.850000
1340.718976	1839.770000
1342.730543	1810.090000
1344.736070	1818.970000
1346.744853	1813.770000
1348.749458	1821.410000
1350.757317	1827.630000
1352.764714	1823.420000
1354.766080	1815.710000
1356.768843	1820.460000
1358.771145	1825.160000
1360.772988	1828.490000
1362.774371	1818.080000
1364.773441	1821.980000
1366.772052	1808.790000
1368.770205	1815.180000
1370.767900	1819.320000
1372.761431	1809.220000
1374.756359	1823.070000
1376.750830	1816.730000
1378.744844	1809.460000
1380.736551	1820.480000
1382.727802	1815.680000
1384.716748	1807.470000
1386.707089	1808.340000
1388.696975	1812.400000
1390.684558	1812.540000
1392.671686	1802.800000
1394.656514	1807.500000
1396.642735	1796.790000
1398.626657	1808.600000
1400.610126	1809.690000
1402.593143	1803.260000
1404.573861	1795.600000
1406.555975	1808.580000
1408.535791	1795.060000
1410.515157	1800.100000
1412.490383	1809.820000
1414.468849	1796.960000
1416.445020	1802.650000
1418.420743	1802.490000
1420.396016	1789.830000
1422.368998	1801.620000
1424.341532	1810.050000
1426.313619	1795.950000
1428.285257	1801.530000
1430.252767	1794.100000
1432.225352	1804.380000
1434.190130	1799.730000
1436.159981	1795.480000
1438.125707	1789.400000
1440.092826	1806.870000
1442.057662	1793.600000
1444.018379	1788.990000
1445.984163	1789.410000
1447.943992	1788.960000
1449.905214	1786.190000
1451.867829	1781.520000
1453.826329	1790.720000
1455.784387	1789.540000
1457.742002	1779.280000
1459.699176	1764.370000
1461.654074	1783.130000
1463.610364	1782.510000
1465.564380	1776.990000
1467.517956	1797.700000
1469.469259	1791.820000
1471.421954	1784.650000
1473.372378	1768.250000
1475.322363	1774.890000
1477.271908	1787.260000
1479.219185	1776.500000
1481.164195	1771.160000
1483.110596	1786.840000
1485.056561	1788.880000
1487.002087	1806.510000
1488.945349	1789.220000
1490.888174	1790.780000
1492.828736	1775.140000
1494.770689	1782.410000
1496.710381	1795.320000
1498.649637	1780.550000
1500.588458	1797.080000
1502.525020	1786.370000
1504.462973	1787.290000
1506.398668	1790.570000
1508.333929	1783.520000
1510.266933	1770.390000
1512.199505	1779.770000
1514.131645	1784.960000
1516.063353	1776.270000
1517.992807	1788.010000
1519.923652	1780.610000
1521.854066	1778.070000
1523.780406	1774.430000
1525.708138	1780.780000
1527.633619	1777.840000
1529.558671	1768.710000
1531.483294	1775.700000
1533.407488	1781.300000
1535.329435	1766.590000
1537.252771	1769.970000
1539.173862	1774.620000
1541.092708	1774.530000
1543.012944	1765.690000
1544.930936	1763.050000
1546.848502	1761.660000
1548.763826	1769.050000
1550.680540	1754.690000
1552.593199	1760.960000
1554.509062	1765.620000
1556.422685	1775.520000
1558.334071	1762.600000
1560.246845	1754.220000
1562.155570	1766.630000
1564.065685	1764.860000
1565.975376	1755.200000
1567.884643	1758.310000
1569.791677	1763.830000
1571.696478	1749.620000
1573.602668	1760.940000
1575.506626	1761.700000
1577.410164	1745.020000
1579.313280	1751.810000
1581.214168	1764.180000
1583.116443	1738.800000
1585.016491	1753.960000
1586.917926	1748.450000
1588.815328	1736.730000
1590.712311	1752.360000
1592.608876	1740.620000
1594.506829	1741.900000
1596.398947	1743.430000
1598.294258	1744.950000
1600.189152	1744.100000
1602.081824	1736.860000
1603.974080	1731.730000
1605.864115	1726.620000
1607.753736	1745.800000
1609.642940	1729.100000
1611.531730	1732.570000
1613.418303	1740.120000
1615.306262	1738.270000
1617.190205	1735.510000
1619.075536	1743.620000
1620.960452	1742.170000
1622.843155	1740.520000
1624.727245	1731.500000
1626.607324	1733.130000
1628.488789	1737.210000
1630.368044	1728.750000
1632.248685	1731.960000
1634.123522	1736.450000
1636.003341	1730.330000
1637.879154	1726.590000
1639.754557	1735.150000
1641.631347	1735.780000
1643.502339	1726.370000
1645.376513	1733.000000
1647.246689	1730.880000
1649.120045	1728.760000
1650.991198	1727.770000
1652.860149	1731.950000
1654.730486	1729.820000
1656.596829	1712.790000
1658.464558	1716.240000
1660.330089	1724.160000
1662.197004	1715.540000
1664.059931	1711.050000
1665.924243	1699.600000
1667.786359	1719.720000
1669.648071	1706.690000
1671.511167	1703.610000
1673.372069	1712.190000
1675.230777	1705.760000
1677.089082	1692.520000
1678.948772	1705.610000
1680.802695	1692.460000
1682.659790	1704.110000
1684.516483	1695.840000
1686.369200	1683.650000
1688.225087	1689.940000
1690.077001	1708.610000
1691.928514	1701.490000
1693.779626	1688.190000
1695.630338	1683.860000
1697.480649	1690.180000
1699.328776	1696.610000
1701.178286	1679.280000
1703.022048	1683.610000
1704.870759	1689.430000
1706.713725	1686.340000
1708.559856	1686.240000
1710.402026	1677.380000
1712.247360	1694.310000
1714.086954	1684.750000
1715.927932	1684.810000
1717.770293	1694.750000
1719.608698	1679.860000
1721.448486	1691.040000
1723.286099	1678.510000
1725.123316	1689.050000
1726.958360	1681.930000
1728.794787	1672.750000
1730.629042	1689.050000
1732.462902	1670.940000
1734.296369	1674.750000
1736.125889	1669.390000
1737.958568	1656.850000
1739.787303	1678.480000
1741.619196	1671.820000
1743.447146	1673.310000
1745.274704	1662.480000
1747.101870	1658.400000
1748.928645	1665.050000
1750.755029	1662.950000
1752.577476	1660.030000
1754.403077	1659.410000
1756.224744	1662.650000
1758.047793	1661.240000
1759.868681	1652.150000
1761.689179	1660.830000
1763.511059	1661.420000
1765.327239	1659.270000
1767.146571	1659.370000
1768.961976	1654.580000
1770.780531	1655.200000
1772.595161	1657.910000
1774.409405	1665.280000
1776.223261	1652.820000
1778.036731	1660.390000
1779.848048	1641.350000
1781.660746	1656.970000
1783.473057	1664.140000
1785.281451	1647.860000
1787.091226	1645.420000
1788.897085	1652.380000
1790.706090	1654.690000
1792.511182	1650.250000
1794.317655	1647.400000
1796.123744	1641.300000
1797.925923	1632.430000
1799.731245	1646.680000
1801.532659	1639.960000
1803.335453	1648.980000
1805.134341	1644.060000
1806.934610	1651.720000
1808.734497	1640.420000
1810.532243	1647.690000
1812.329607	1638.400000
1814.126592	1634.780000
1815.923196	1636.780000
1817.717661	1627.880000
1819.513505	1621.790000
1821.303695	1632.270000
1823.098781	1630.230000
1824.888214	1624.790000
1826.680784	1625.390000
1828.471219	1623.180000
1830.259520	1624.790000
1832.050956	1639.030000
1833.836746	1629.820000
1835.623916	1635.590000
1837.408954	1631.240000
1839.197126	1617.900000
1840.981412	1617.180000
1842.763569	1609.430000
1844.547104	1606.500000
1846.328511	1608.120000
1848.111297	1622.860000
1849.890203	1619.930000
1851.670487	1611.040000
1853.448645	1609.860000
1855.228182	1607.750000
1857.005594	1613.560000
1858.780882	1610.470000
1860.557549	1607.050000
1862.332092	1611.190000
1864.108014	1608.280000
1865.878316	1609.920000
1867.651744	1604.230000
1869.423053	1614.160000
1871.193992	1605.760000
1872.966307	1593.880000
1874.733010	1613.000000
1876.502837	1612.730000
1878.268801	1605.320000
1880.037889	1609.890000
1881.803115	1608.230000
1883.567972	1596.640000
1885.334207	1612.180000
1887.096583	1602.870000
1888.858592	1590.930000
1890.620233	1596.360000
1892.381508	1584.780000
1894.142415	1590.260000
1895.902956	1595.940000
1897.661387	1591.350000
1899.419453	1579.380000
1901.175410	1587.150000
1902.932745	1573.270000
1904.689713	1575.750000
1906.444576	1586.100000
1908.197333	1577.200000
1909.949727	1575.780000
1911.703496	1573.850000
1913.455162	1584.260000
1915.204726	1577.390000
1916.955666	1569.780000
1918.706242	1570.090000
1920.452979	1581.040000
1922.201093	1578.220000
1923.947107	1580.070000
1925.694497	1585.160000
1927.439788	1570.190000
1929.182982	1574.580000
1930.927552	1572.490000
1932.670025	1574.390000
1934.412138	1572.560000
1936.153891	1583.910000
1937.895285	1576.620000
1939.634585	1577.350000
1941.373525	1578.480000
1943.112108	1591.270000
1944.848598	1595.730000
1946.584731	1593.680000
1948.322238	1591.630000
1950.055923	1599.830000
1951.790983	1583.180000
1953.523955	1589.650000
1955.256570	1588.230000
1956.988828	1580.710000
1958.720730	1598.910000
1960.450546	1596.460000
1962.178278	1601.580000
1963.907383	1595.560000
1965.636134	1592.190000
1967.362801	1599.330000
1969.089114	1592.930000
1970.816800	1593.860000
1972.538950	1587.960000
1974.264201	1585.740000
1975.985646	1589.950000
1977.710190	1601.510000
1979.432655	1591.410000
1981.151316	1598.270000
1982.873076	1597.880000
1984.591034	1595.450000
1986.310365	1592.580000
1988.025897	1590.980000
1989.746250	1595.190000
1991.462803	1592.780000
1993.175561	1588.800000
1994.891414	1578.910000
1996.605194	1577.020000
1998.318625	1584.990000
2000.029985	1580.130000
2001.742718	1601.590000
2003.451659	1585.170000
2005.163694	1602.450000
2006.870219	1586.790000
2008.579837	1587.430000
2010.287387	1599.490000
2011.994590	1592.970000
2013.699727	1597.050000
2015.404517	1584.710000
2017.110679	1590.290000
2018.813059	1587.120000
2020.516811	1590.410000
2022.218499	1585.240000
2023.919843	1602.150000
2025.620841	1581.360000
2027.319779	1579.640000
2029.020087	1585.000000
2030.716621	1578.140000
2032.414526	1590.540000
2034.110372	1574.940000
2035.809304	1587.670000
2037.502750	1585.120000
2039.197568	1584.670000
2040.892042	1589.160000
2042.582748	1597.960000
2044.276538	1592.400000
2045.966561	1587.060000
2047.657955	1574.860000
2049.347296	1588.180000
2051.038007	1570.940000
2052.724956	1585.240000
2054.411564	1565.540000
2056.099543	1562.390000
2057.783762	1562.620000
2059.469351	1570.650000
2061.154601	1557.170000
2062.837803	1548.970000
2064.522374	1560.000000
2066.201483	1542.370000
2067.885377	1550.940000
2069.563811	1539.040000
2071.245321	1542.620000
2072.923081	1540.250000
2074.600503	1549.300000
2076.279296	1533.770000
2077.956045	1544.450000
2079.630753	1543.520000
2081.306830	1539.610000
2082.980867	1542.880000
2084.654568	1534.340000
2086.327934	1537.540000
2087.999262	1529.400000
2089.670255	1538.580000
2091.340914	1540.680000
2093.011238	1526.390000
2094.681229	1536.180000
2096.349184	1525.150000
2098.016806	1531.400000
2099.682393	1530.630000
2101.349350	1533.890000
2103.014272	1535.880000
2104.678863	1547.330000
2106.341422	1548.320000
2108.005349	1563.990000
2109.667246	1540.670000
2111.328811	1558.520000
2112.990045	1547.270000
2114.649251	1559.680000
2116.308126	1557.440000
2117.966672	1549.260000
2119.624888	1555.210000
2121.279380	1550.860000
2122.936937	1545.290000
2124.594165	1555.200000
2126.247671	1550.240000
2127.902545	1541.160000
2129.553701	1548.290000
2131.207918	1536.520000
2132.858419	1535.970000
2134.510286	1548.190000
2136.156745	1528.210000
2137.807959	1535.280000
2139.455459	1547.100000
2141.104326	1552.120000
2142.751175	1536.990000
2144.397697	1541.110000
2146.043894	1555.860000
2147.686383	1537.520000
2149.331930	1538.500000
2150.973770	1537.890000
2152.618667	1530.340000
2154.259859	1524.750000
2155.900727	1521.090000
2157.541271	1535.700000
2159.179803	1521.650000
2160.819702	1525.430000
2162.455900	1519.320000
2164.093464	1519.430000
2165.730705	1523.990000
2167.365937	1510.940000
2169.000848	1509.250000
2170.635437	1505.980000
2172.269704	1511.190000
2173.900279	1499.350000
2175.533904	1509.230000
2177.163838	1511.330000
2178.795137	1500.030000
2180.424432	1515.890000
2182.053406	1511.940000
2183.682062	1503.990000
2185.310398	1498.190000
2186.936731	1503.390000
2188.562746	1487.000000
2190.186760	1493.190000
2191.812138	1488.660000
2193.435517	1493.600000
2195.060259	1484.260000
2196.681321	1485.360000
2198.302066	1482.080000
2199.924176	1472.600000
2201.544288	1484.600000
2203.162403	1473.900000
2204.780203	1474.980000
2206.397688	1464.990000
2208.014857	1482.810000
2209.631711	1479.700000
2211.248250	1478.950000
2212.862795	1478.460000
2214.475348	1484.620000
2216.089265	1484.400000
2217.701191	1477.430000
2219.314480	1470.660000
2220.925779	1471.900000
2222.535088	1455.470000
2224.145761	1481.190000
2225.754445	1473.900000
2227.362817	1466.570000
2228.969201	1457.580000
2230.576949	1466.170000
2232.182710	1468.200000
2233.788160	1468.660000
2235.391625	1454.640000
2236.996454	1460.780000
2238.599298	1468.460000
2240.200159	1470.620000
2241.802383	1448.510000
2243.402624	1462.570000
2245.004228	1456.440000
2246.602180	1466.860000
2248.201494	1464.450000
2249.798828	1466.860000
2251.395853	1468.650000
2252.994241	1457.630000
2254.588980	1465.060000
2256.181742	1466.080000
2257.775867	1455.480000
2259.371353	1452.270000
2260.963195	1456.780000
2262.554730	1439.280000
2264.147626	1460.230000
2265.735213	1452.730000
2267.327497	1444.570000
2268.914473	1462.080000
2270.504478	1442.930000
2272.089178	1446.680000
2273.678572	1447.160000
2275.262663	1437.880000
2276.848116	1437.650000
2278.431599	1441.970000
2280.018109	1426.900000
2281.600985	1423.170000
2283.183557	1419.160000
2284.765826	1420.780000
2286.344466	1422.450000
2287.926129	1415.760000
2289.504164	1409.700000
2291.085222	1415.790000
2292.662654	1410.420000
2294.238121	1405.050000
2295.816611	1393.640000
2297.391477	1398.840000
2298.966042	1392.820000
2300.540307	1397.550000
2302.114271	1396.550000
2303.687935	1397.730000
2305.261298	1408.260000
2306.831043	1381.750000
2308.400489	1387.900000
2309.972954	1392.090000
2311.540143	1396.610000
2313.110351	1388.830000
2314.676944	1386.180000
2316.244897	1390.720000
2317.810894	1401.010000
2319.376594	1394.040000
2320.941997	1403.860000
2322.505445	1394.060000
2324.070253	1399.240000
2325.631453	1408.520000
2327.195667	1397.790000
2328.754620	1408.390000
2330.316586	1410.250000
2331.876602	1402.110000
2333.436322	1400.890000
2334.994093	1400.930000
2336.551569	1390.830000
2338.108751	1406.650000
2339.663986	1399.130000
2341.218926	1405.220000
2342.773573	1396.690000
2344.327926	1403.430000
2345.881985	1395.440000
2347.435750	1408.010000
2348.987572	1397.790000
2350.537450	1395.430000
2352.090336	1400.740000
2353.637980	1410.240000
2355.188631	1395.460000
2356.735692	1395.470000
2358.284110	1401.020000
2359.832236	1393.940000
2361.376774	1389.390000
2362.922671	1390.490000
2364.466628	1402.530000
2366.011943	1383.540000
2367.553673	1383.320000
2369.096760	1385.860000
2370.637912	1386.000000
2372.178774	1387.540000
2373.719347	1391.680000
2375.259631	1391.070000
2376.799625	1383.620000
2378.336042	1393.260000
2379.875460	1373.040000
2381.411301	1380.020000
2382.948498	1371.200000
2384.482120	1375.490000
2386.018743	1366.530000
2387.553434	1376.770000
2389.086196	1365.490000
2390.618671	1371.650000
2392.149219	1376.120000
2393.682764	1375.240000
2395.211098	1375.820000
2396.740788	1366.790000
2398.270193	1369.330000
2399.799312	1365.370000
2401.328147	1366.770000
2402.851776	1365.790000
2404.380042	1362.420000
2405.903104	1361.940000
2407.430800	1367.020000
2408.951657	1352.330000
2410.477147	1365.920000
2411.999076	1358.080000
2413.522361	1360.090000
2415.043725	1356.160000
2416.563169	1352.280000
2418.083968	1357.990000
2419.602848	1352.070000
2421.121446	1357.470000
2422.638127	1341.200000
2424.156162	1348.400000
2425.673916	1355.110000
2427.188119	1360.570000
2428.702041	1338.970000
2430.215683	1356.530000
2431.730680	1345.370000
2433.242128	1341.290000
2434.754931	1343.240000
2436.265821	1337.800000
2437.776431	1334.470000
2439.285130	1329.510000
2440.796816	1334.450000
2442.304957	1329.750000
2443.812821	1326.200000
2445.320407	1318.860000
2446.824452	1326.720000
2448.331483	1317.540000
2449.836605	1330.400000
2451.341450	1323.540000
2452.844388	1319.910000
2454.347049	1308.830000
2455.849434	1315.530000
2457.349914	1305.710000
2458.851747	1292.380000
2460.351676	1298.970000
2461.851329	1280.950000
2463.350706	1283.120000
2464.848181	1285.500000
2466.343755	1286.720000
2467.842308	1283.490000
2469.337332	1280.510000
2470.833710	1289.720000
2472.326561	1279.810000
2473.820764	1279.130000
2475.314694	1277.140000
2476.805101	1278.630000
2478.298484	1286.610000
2479.789970	1273.830000
2481.279559	1278.080000
2482.768876	1279.980000
2484.256298	1276.360000
2485.746695	1273.310000
2487.233573	1278.230000
2488.721803	1279.090000
2490.206517	1278.920000
2491.690960	1274.070000
2493.176755	1280.760000
2494.660657	1273.060000
2496.145911	1268.060000
2497.626031	1277.570000
2499.109123	1283.250000
2500.590325	1278.650000
2502.071258	1272.150000
2503.550302	1276.280000
2505.029077	1270.700000
2506.507584	1271.080000
2507.985823	1266.540000
2509.463793	1277.800000
2510.938259	1275.080000
2512.415693	1279.750000
2513.889624	1271.150000
2515.364906	1268.570000
2516.839920	1277.030000
2518.311433	1262.890000
2519.784296	1277.010000
2521.255277	1267.050000
2522.727608	1278.710000
2524.194826	1277.500000
2525.665009	1268.470000
2527.133312	1272.080000
2528.601350	1271.070000
2530.069123	1267.950000
2531.536631	1266.250000
2533.003874	1271.070000
2534.467625	1273.340000
2535.932726	1260.410000
2537.395950	1276.110000
2538.860524	1270.130000
2540.321608	1273.500000
2541.784042	1278.600000
2543.246213	1265.680000
2544.704898	1282.330000
2546.168155	1277.530000
2547.626315	1281.890000
2549.085824	1275.960000
2550.540240	1269.900000
2551.999225	1265.860000
2553.456339	1271.060000
2554.911582	1269.740000
2556.366564	1252.310000
2557.819676	1278.660000
2559.274137	1248.970000
2560.726729	1259.930000
2562.179061	1259.040000
2563.629525	1259.870000
2565.082945	1261.180000
2566.531283	1255.090000
2567.982577	1254.000000
2569.432004	1249.960000
2570.877959	1260.330000
2572.326870	1258.250000
2573.772309	1253.830000
2575.219097	1254.570000
2576.664021	1245.170000
2578.108688	1250.310000
2579.554702	1239.150000
2580.997249	1236.750000
2582.441144	1249.630000
2583.881574	1241.430000
2585.323351	1228.140000
2586.763269	1233.180000
2588.204534	1225.710000
2589.642338	1232.520000
2591.083091	1231.210000
2592.518781	1225.800000
2593.957421	1234.060000
2595.394204	1225.180000
2596.829130	1230.490000
2598.267005	1217.270000
2599.699821	1235.370000
2601.133985	1222.220000
2602.566295	1232.140000
2603.999951	1218.970000
2605.431754	1213.430000
2606.863304	1222.100000
2608.294600	1222.840000
2609.724044	1213.240000
2611.153237	1209.800000
2612.580578	1219.140000
2614.009266	1207.220000
2615.437701	1212.140000
2616.862689	1208.030000
2618.289024	1203.130000
2619.713510	1200.060000
2621.139342	1205.420000
2622.561730	1208.550000
2623.985464	1214.470000
2625.407351	1200.360000
2626.828989	1198.710000
2628.248781	1192.550000
2629.669919	1198.270000
2631.090807	1193.890000
2632.508257	1192.390000
2633.928646	1199.790000
2635.345598	1188.400000
2636.762302	1188.750000
2638.178757	1194.000000
2639.594964	1199.390000
2641.010922	1178.030000
2642.425040	1189.400000
2643.838911	1191.340000
2645.250942	1189.580000
2646.664318	1185.520000
2648.074264	1194.070000
2649.487145	1187.590000
2650.896599	1185.180000
2652.305806	1197.910000
2653.713177	1191.820000
2655.123482	1187.450000
2656.531951	1185.400000
2657.938585	1191.480000
2659.344974	1181.040000
2660.749529	1192.450000
2662.155428	1199.360000
2663.559494	1188.880000
2664.963316	1182.680000
2666.366893	1180.090000
2667.768638	1193.260000
2669.171727	1192.090000
2670.571399	1186.090000
2671.972413	1191.820000
2673.370012	1190.880000
2674.770541	1188.570000
2676.167655	1178.830000
2677.566112	1178.140000
2678.962741	1185.570000
2680.359128	1182.390000
2681.755274	1178.960000
2683.149593	1172.800000
2684.545255	1171.750000
2685.937507	1175.410000
2687.331103	1168.030000
2688.722874	1181.960000
2690.115987	1179.310000
2691.507277	1163.230000
2692.896744	1172.400000
2694.285971	1167.060000
2695.674959	1165.190000
2697.065289	1171.190000
2698.450634	1163.900000
2699.838903	1156.590000
2701.225352	1158.560000
2702.611562	1164.360000
2703.997534	1160.870000
2705.380106	1160.320000
2706.764021	1155.930000
2708.147698	1148.400000
2709.531137	1154.560000
2710.911180	1145.500000
2712.292565	1154.760000
2713.672134	1156.830000
2715.053045	1153.820000
2716.432141	1157.790000
2717.809422	1149.810000
2719.188045	1150.770000
2720.564855	1156.320000
2721.941429	1149.520000
2723.317767	1152.860000
2724.692293	1150.130000
2726.068160	1157.680000
2727.440640	1159.290000
2728.816036	1147.200000
2730.186472	1152.040000
2731.558249	1141.470000
2732.929791	1132.740000
2734.299525	1141.820000
2735.670600	1142.940000
2737.039867	1142.550000
2738.408900	1137.130000
2739.776126	1134.100000
2741.143120	1140.270000
2742.509881	1125.140000
2743.876409	1117.850000
2745.241132	1129.440000
2746.605624	1130.110000
2747.969883	1123.280000
2749.333910	1135.150000
2750.697706	1124.950000
2752.058128	1128.930000
2753.421461	1115.850000
2754.779851	1122.910000
2756.141151	1113.240000
2757.499080	1116.710000
2758.859919	1103.190000
2760.218957	1100.300000
2761.574627	1104.540000
2762.933205	1103.400000
2764.288417	1095.060000
2765.643399	1092.230000
2766.996584	1094.170000
2768.352676	1098.230000
2769.705404	1098.620000
2771.057903	1099.200000
2772.410174	1088.430000
2773.763784	1091.110000
2775.114032	1090.230000
2776.462487	1103.270000
2777.813846	1081.410000
2779.161846	1079.870000
2780.511185	1079.940000
2781.858731	1090.530000
2783.206050	1082.320000
2784.553143	1074.540000
2785.898445	1075.950000
2787.243521	1068.320000
2788.588371	1063.020000
2789.932994	1064.760000
2791.274266	1064.990000
2792.616876	1071.930000
2793.959260	1059.380000
2795.301420	1071.590000
2796.640230	1056.730000
2797.981939	1055.550000
2799.320301	1058.250000
2800.660000	1058.710000
2801.997913	1060.900000
2803.334042	1061.230000
2804.669947	1065.850000
2806.007190	1056.720000
2807.342649	1075.860000
2808.677885	1068.020000
2810.011338	1066.550000
2811.346129	1057.680000
2812.677578	1059.890000
2814.011923	1062.980000
2815.341370	1055.220000
2816.672154	1066.780000
2818.002716	1055.240000
2819.331499	1055.710000
2820.661618	1058.370000
2821.989959	1056.470000
2823.318079	1063.400000
2824.644422	1053.440000
2825.972100	1039.520000
2827.296446	1056.510000
2828.622127	1047.260000
2829.946033	1042.120000
2831.269720	1045.890000
2832.594742	1038.200000
2833.916434	1030.000000
2835.237908	1035.220000
2836.559163	1030.770000
2837.880199	1039.150000
2839.199463	1025.290000
2840.520062	1029.100000
2841.838889	1022.750000
2843.157498	1030.830000
2844.474336	1024.820000
2845.790958	1024.390000
2847.107361	1017.500000
2848.421996	1019.670000
2849.737965	1020.190000
2851.050614	1019.930000
2852.364599	1021.230000
2853.678366	1024.930000
2854.991918	1018.990000
2856.303702	1013.650000
2857.613720	1017.020000
2858.925073	1014.120000
2860.233111	1017.460000
2861.542484	1019.040000
2862.851641	1019.760000
2864.160583	1016.530000
2865.467762	1012.430000
2866.773177	1017.510000
2868.079927	1025.330000
2869.384914	1023.730000
2870.689688	1020.280000
2871.992700	1018.880000
2873.298594	1016.660000
2874.599632	1024.180000
2875.902005	1016.990000
2877.202618	1024.790000
2878.504565	1018.020000
2879.806299	1019.690000
2881.104728	1022.280000
2882.404492	1009.260000
2883.702497	1019.760000
2885.000291	1005.300000
2886.296329	1009.910000
2887.593700	1006.230000
2888.889315	994.430000
2890.184719	1001.820000
2891.479913	998.720000
2892.771808	1002.210000
2894.066580	999.590000
2895.358055	992.110000
2896.650863	990.180000
2897.943461	998.800000
2899.232765	1001.930000
2900.523401	989.550000
2901.812286	1001.890000
2903.102504	990.020000
2904.389430	993.030000
2905.677688	991.910000
2906.964196	990.160000
2908.250497	985.180000
2909.536589	990.870000
2910.820933	981.660000
2912.108149	977.970000
2913.390537	973.500000
2914.674258	973.370000
2915.956233	981.310000
2917.238001	983.350000
2918.518023	984.750000
2919.800915	983.730000
2921.082062	982.480000
2922.359927	975.750000
2923.640661	980.290000
2924.918114	973.290000
2926.195361	964.550000
2927.470867	976.760000
2928.749240	974.810000
2930.022798	963.130000
2931.299224	965.910000
2932.573909	962.460000
2933.846854	959.700000
2935.121129	965.340000
2936.393665	959.310000
2937.665997	964.920000
2938.935055	963.060000
2940.206979	950.550000
2941.477165	956.910000
2942.747148	948.250000
2944.016927	956.620000
2945.284969	956.290000
2946.551276	954.760000
2947.817380	956.800000
2949.084814	952.950000
2950.350514	954.460000
2951.616011	951.580000
2952.881306	948.230000
2954.143336	952.900000
2955.406697	945.370000
2956.669855	948.540000
2957.931282	949.140000
2959.194038	934.970000
2960.455063	946.390000
2961.714356	939.990000
2962.973450	938.050000
2964.232343	941.510000
2965.491036	945.220000
2966.749529	938.100000
2968.006293	940.900000
2969.262857	940.570000
2970.517694	934.030000
2971.773860	936.030000
2973.026770	936.400000
2974.281010	934.910000
2975.535051	944.680000
2976.787366	933.700000
2978.039483	934.360000
2979.289875	934.800000
2980.543122	931.960000
2981.791592	929.240000
2983.042916	931.970000
2984.290992	922.790000
2985.538870	918.920000
2986.786551	930.480000
2988.034036	925.970000
2989.279799	928.430000
2990.525365	925.580000
2991.772259	925.920000
2993.015909	927.730000
2994.260887	922.690000
2995.502622	915.130000
2996.747208	916.470000
2997.990074	903.970000
2999.229700	907.830000
3000.472176	919.130000
3001.711413	905.980000
3002.951977	910.350000
3004.190824	913.640000
3005.429477	904.770000
3006.666414	908.180000
3007.904678	899.120000
3009.141228	913.400000
3010.377583	902.310000
3011.613745	902.790000
3012.848194	902.320000
3014.082449	900.970000
3015.316511	906.820000
3016.548861	894.930000
3017.779499	906.680000
3019.012983	897.410000
3020.244755	895.520000
3021.474817	900.190000
3022.704687	888.490000
3023.932847	889.660000
3025.162333	895.420000
3026.390111	897.660000
3027.617697	892.380000
3028.846609	900.330000
3030.070779	888.400000
3031.297792	889.070000
3032.521581	888.110000
3033.746697	896.410000
3034.970106	888.120000
3036.193326	892.150000
3037.414840	885.550000
3038.639195	888.230000
3039.858815	881.440000
3041.079760	883.960000
3042.300517	879.590000
3043.519570	880.630000
3044.739949	887.070000
3045.957111	881.790000
3047.175598	872.990000
3048.392384	878.590000
3049.608981	878.400000
3050.825390	884.000000
3052.038587	875.170000
3053.254621	886.410000
3054.467443	866.560000
3055.683102	879.290000
3056.894038	868.260000
3058.106299	876.090000
3059.318374	870.200000
3060.530262	871.230000
3061.740452	861.610000
3062.950456	874.720000
3064.160275	879.600000
3065.368397	871.990000
3066.576333	864.950000
3067.782575	868.310000
3068.990140	863.900000
3070.196012	868.705000
3071.401698	873.510000
3072.607199	859.140000
3073.811007	863.060000
3075.016139	854.320000
3076.219579	869.770000
3077.421326	863.930000
3078.622890	862.120000
3079.824270	849.650000
3081.025466	854.480000
3082.224972	856.180000
3083.424294	856.070000
3084.624940	856.910000
3085.823896	851.210000
3087.019658	844.050000
3088.218249	847.140000
3089.413646	851.440000
3090.610366	841.590000
3091.803894	843.200000
3093.000251	842.210000
3094.194920	843.170000
3095.386399	841.210000
3096.582209	833.100000
3097.773326	833.820000
3098.965765	842.960000
3100.155017	842.890000
3101.347095	837.370000
3102.537488	837.730000
3103.724696	838.090000
3104.913227	839.060000
3106.103080	836.960000
3107.289748	830.410000
3108.476237	833.280000
3109.662546	831.640000
3110.850177	824.910000
3112.034627	825.770000
3113.217396	825.100000
3114.402989	816.450000
3115.586901	816.430000
3116.769135	820.980000
3117.951190	819.240000
3119.133068	817.030000
3120.314767	819.760000
3121.494788	815.350000
3122.673133	816.030000
3123.854299	812.510000
3125.032289	811.950000
3126.210102	807.890000
3127.387738	809.690000
3128.563699	807.410000
3129.739483	812.980000
3130.916589	809.190000
3132.092020	807.590000
3133.265778	806.620000
3134.437864	807.060000
3135.611270	804.700000
3136.784501	805.040000
3137.956059	806.070000
3139.128939	806.420000
3140.298651	814.240000
3141.469684	810.340000
3142.639046	820.500000
3143.806739	808.010000
3144.977247	813.860000
3146.143096	801.660000
3147.313255	796.710000
3148.478756	800.740000
3149.644084	804.050000
3150.809238	798.980000
3151.974218	810.080000
3153.140519	799.440000
3154.302166	796.420000
3155.465134	790.550000
3156.627928	780.620000
3157.790550	778.580000
3158.951507	778.040000
3160.112291	781.110000
3161.272903	772.630000
3162.431852	775.480000
3163.590628	774.310000
3164.749233	772.720000
3165.907666	763.480000
3167.065927	772.930000
3168.222526	770.860000
3169.377464	774.950000
3170.533721	765.220000
3171.688318	767.560000
3172.842743	766.340000
3173.995509	767.300000
3175.148105	770.690000
3176.300530	762.610000
3177.452786	759.820000
3178.604872	765.650000
3179.753811	758.520000
3180.905557	766.170000
3182.055645	759.280000
3183.204077	766.880000
3184.352340	761.710000
3185.500433	769.790000
3186.648358	769.850000
3187.794628	765.600000
3188.940729	768.660000
3190.085175	774.850000
3191.229454	772.440000
3192.373565	767.240000
3193.518994	759.880000
3194.661283	763.110000
3195.803406	760.030000
3196.945361	772.640000
3198.087150	753.190000
3199.228771	771.600000
3200.367256	769.150000
3201.507059	763.090000
3202.648180	760.700000
3203.786166	760.160000
3204.922503	760.950000
3206.058674	761.530000
3207.196163	756.590000
3208.332002	758.460000
3209.469159	754.300000
3210.601703	755.490000
3211.738529	766.270000
3212.870743	741.450000
3214.004275	747.990000
3215.137641	740.400000
3216.267880	751.160000
3217.400917	734.900000
3218.530828	733.310000
3219.662056	734.770000
3220.790158	728.970000
3221.921057	729.400000
3223.050313	724.580000
3224.177924	721.270000
3225.302414	721.410000
3226.431179	732.340000
3227.556822	724.300000
3228.682302	723.110000
3229.806141	723.600000
3230.932774	728.510000
3232.054810	724.670000
3233.178162	720.970000
3234.301352	725.450000
3235.424380	717.120000
3236.545768	719.230000
3237.666995	714.170000
3238.786583	722.780000
3239.906010	713.930000
3241.023799	719.870000
3242.144381	719.670000
3243.261848	728.870000
3244.379156	720.370000
3245.496302	725.970000
3246.611813	716.530000
3247.728639	733.730000
3248.842354	729.420000
3249.958860	732.950000
3251.073730	729.840000
3252.185492	730.910000
3253.297095	736.240000
3254.410012	726.100000
3255.522771	731.750000
3256.632423	729.680000
3257.743390	730.570000
3258.854197	721.400000
3259.963374	727.530000
3261.070919	732.260000
3262.179779	713.760000
3263.288480	726.720000
3264.394079	727.220000
3265.500992	729.820000
3266.606277	728.910000
3267.712875	724.100000
3268.816373	722.820000
3269.921185	724.300000
3271.025840	725.040000
3272.127396	727.600000
3273.228797	730.490000
3274.331511	726.840000
3275.434068	727.650000
3276.533530	722.550000
3277.635774	727.630000
3278.734923	720.440000
3279.832448	729.140000
3280.929817	718.860000
3282.029969	716.630000
3283.127027	723.310000
3284.223930	715.290000
3285.320679	713.630000
3286.412868	714.740000
3287.509306	709.930000
3288.604123	706.760000
3289.698784	711.240000
3290.791824	704.630000
3291.884710	707.020000
3292.975975	700.760000
3294.068553	703.130000
3295.159510	702.700000
3296.248848	704.860000
3297.338033	702.350000
3298.428531	697.840000
3299.515944	696.650000
3300.603205	694.600000
3301.691778	699.270000
3302.780198	694.070000
3303.864071	701.310000
3304.952186	701.030000
3306.037220	696.770000
3307.120637	699.710000
3308.205367	695.650000
3309.288482	694.960000
3310.372908	700.050000
3311.454256	696.820000
3312.536916	700.390000
3313.617962	688.420000
3314.698857	693.480000
3315.778139	699.360000
3316.857270	693.700000
3317.937712	692.700000
3319.015081	685.740000
3320.093760	695.500000
3321.170829	693.720000
3322.247747	704.160000
3323.323054	687.250000
3324.398212	696.370000
3325.474681	688.250000
3326.548080	686.060000
3327.621330	688.950000
3328.695891	687.620000
3329.768842	689.860000
3330.840186	691.760000
3331.912840	689.940000
3332.982427	686.870000
3334.053325	680.980000
3335.122616	683.750000
3336.193218	681.910000
3337.262213	680.530000
3338.329602	677.620000
3339.395386	668.850000
3340.465396	670.380000
3341.532343	678.140000
3342.596228	676.260000
3343.662881	679.800000
3344.727929	674.980000
3345.791374	673.360000
3346.854673	671.670000
3347.917826	665.550000
3348.980832	668.130000
3350.043691	676.410000
3351.104949	669.320000
3352.163150	668.010000
3353.225572	677.300000
3354.284937	663.990000
3355.344157	663.980000
3356.404687	656.650000
3357.460707	670.000000
3358.519492	667.250000
3359.573769	668.260000
3360.630809	666.750000
3361.686252	673.210000
3362.743003	670.680000
3363.798157	663.350000
3364.851713	671.740000
3365.903672	674.330000
3366.958393	660.320000
3368.010065	663.500000
3369.061594	667.040000
3370.114432	671.950000
3371.164222	668.530000
3372.215320	659.110000
3373.263373	664.240000
3374.314186	660.270000
3375.361953	666.040000
3376.409578	660.630000
3377.457060	668.490000
3378.502950	663.150000
3379.550148	658.430000
3380.594304	658.670000
3381.641218	666.490000
3382.686540	658.750000
3383.728822	659.130000
3384.770962	654.660000
3385.814410	658.000000
3386.857718	653.880000
3387.899435	658.970000
3388.941011	658.790000
3389.982447	658.690000
3391.022293	653.560000
3392.060552	652.210000
3393.100118	656.890000
3394.139543	652.030000
3395.177381	660.350000
3396.213633	663.150000
3397.249744	657.700000
3398.287163	649.350000
3399.321549	647.030000
3400.357242	642.640000
3401.392796	653.130000
3402.425319	646.980000
3403.460595	646.420000
3404.492840	644.440000
3405.524947	650.480000
3406.555470	650.260000
3407.587301	654.550000
3408.618992	647.490000
3409.647657	653.550000
3410.676183	648.950000
3411.706017	640.110000
3412.735712	642.290000
3413.762382	638.090000
3414.790359	644.420000
3415.815311	639.280000
3416.843013	638.850000
3417.867692	652.600000
3418.893677	645.240000
3419.918082	641.770000
3420.942351	638.660000
3421.965041	641.760000
3422.987595	644.080000
3424.011455	637.940000
3425.032295	635.990000
3426.053000	627.260000
3427.075010	630.330000
3428.094002	630.660000
3429.112859	629.200000
3430.133021	627.370000
3431.150167	624.650000
