-118.106446	5.080000
-115.436846	7.200000
-112.770181	9.060000
-110.104268	6.880000
-107.441287	11.450000
-104.776877	12.020000
-102.115397	6.600000
-99.452487	9.990000
-96.794685	12.430000
-94.135452	12.610000
-91.476968	6.070000
-88.821409	9.680000
-86.164421	12.340000
-83.512530	9.840000
-80.859210	9.120000
-78.208810	11.250000
-75.556980	13.060000
-72.910241	9.950000
-70.262072	12.160000
-67.614647	9.790000
-64.970135	11.790000
-62.324195	9.660000
-59.683336	14.700000
-57.041048	8.930000
-54.401668	6.640000
-51.760860	11.470000
-49.120792	9.070000
-46.485796	14.070000
-43.849371	11.480000
-41.215850	14.130000
-38.580900	20.550000
-35.951015	8.820000
-33.317538	14.420000
-30.689123	13.000000
-28.061441	13.190000
-25.432332	21.840000
-22.808279	20.960000
-20.180637	23.540000
-17.558048	31.600000
-14.936191	40.700000
-12.315064	65.330000
-9.694667	139.940000
-7.077158	438.620000
-4.458221	1335.110000
-1.842170	3048.190000
0.773153	3094.070000
3.387749	1505.920000
5.999462	175.240000
8.612604	38.200000
11.220712	27.720000
13.832402	24.230000
16.439061	14.490000
19.047148	20.440000
21.654511	18.910000
24.256849	15.850000
26.862765	19.340000
29.463659	14.770000
32.065981	19.750000
34.663286	12.120000
37.264166	16.740000
39.860032	17.600000
42.457325	19.830000
45.053899	14.270000
47.645464	22.450000
50.238457	17.040000
52.828589	18.670000
55.420149	19.310000
58.008849	17.280000
60.598976	23.930000
63.184105	18.800000
65.770660	22.970000
68.356502	22.230000
70.939490	22.410000
73.523905	28.100000
76.101190	24.580000
78.682042	22.210000
81.260045	25.360000
83.837338	25.170000
86.416057	23.040000
88.989795	20.910000
91.564959	27.540000
94.137280	31.580000
96.708893	30.870000
99.277666	33.800000
101.847866	42.050000
104.415228	43.140000
106.984015	47.410000
109.549966	58.710000
112.113082	67.480000
114.679754	95.930000
117.237205	116.900000
119.800341	161.220000
122.358518	230.310000
124.920248	329.170000
127.477023	493.930000
130.035223	737.960000
132.588471	1098.110000
135.141020	1596.350000
137.697120	2220.760000
140.248273	2931.540000
142.798727	3638.870000
145.348485	4146.260000
147.895423	4581.170000
150.441665	4771.610000
152.989333	4881.880000
155.536306	4930.450000
158.078342	4898.730000
160.619685	4865.780000
163.160335	4889.270000
165.702411	4839.470000
168.241676	4844.380000
170.778131	4800.210000
173.313896	4779.730000
175.851086	4761.310000
178.387584	4722.440000
180.921277	4724.320000
183.452167	4695.010000
185.982368	4662.060000
188.513994	4649.240000
191.042819	4639.290000
193.568845	4647.320000
196.094186	4630.260000
198.620951	4640.100000
201.144919	4611.910000
203.668203	4604.290000
206.190802	4600.630000
208.710608	4600.840000
211.229731	4593.110000
213.748171	4586.480000
216.268035	4567.750000
218.780898	4583.120000
221.297292	4599.510000
223.813004	4612.880000
226.323827	4610.790000
228.836074	4617.740000
231.345538	4623.660000
233.854324	4612.290000
236.362432	4645.600000
238.871963	4663.940000
241.376615	4653.990000
243.880590	4643.420000
246.385989	4658.470000
248.886513	4691.640000
251.390560	4687.930000
253.887637	4681.470000
256.388236	4719.700000
258.886064	4715.690000
261.383219	4686.740000
263.879701	4725.530000
266.371320	4726.110000
268.866459	4701.990000
271.358832	4701.460000
273.850534	4707.490000
276.339473	4723.220000
278.829835	4719.910000
281.317436	4672.940000
283.802277	4692.630000
286.290632	4701.030000
288.772048	4686.860000
291.256978	4688.330000
293.737063	4712.420000
296.220660	4693.490000
298.699414	4734.420000
301.179592	4727.240000
303.657017	4705.450000
306.133779	4701.880000
308.609878	4712.640000
311.083228	4712.590000
313.555916	4723.520000
316.027943	4708.700000
318.499309	4768.070000
320.967931	4806.330000
323.435893	4817.170000
325.905278	4764.340000
328.369840	4760.280000
330.837905	4720.740000
333.301151	4736.710000
335.763740	4729.900000
338.225671	4692.490000
340.686946	4685.630000
343.145487	4676.320000
345.605450	4633.450000
348.062680	4609.190000
350.519256	4587.720000
352.975178	4555.630000
355.428371	4504.170000
357.882985	4466.920000
360.332798	4429.230000
362.786108	4401.540000
365.234618	4337.910000
367.682478	4290.240000
370.131759	4274.790000
372.576247	4224.920000
375.022157	4174.420000
377.467418	4109.810000
379.909960	4106.040000
382.351854	4071.690000
384.793100	4033.680000
387.231631	4000.790000
389.671584	3933.470000
392.108823	3912.190000
394.543350	3871.810000
396.981365	3860.700000
399.414603	3815.270000
401.849263	3767.260000
404.279149	3749.150000
406.712521	3748.280000
409.141123	3735.810000
411.569084	3686.340000
413.998465	3692.010000
416.423081	3687.190000
418.849119	3665.440000
421.274516	3635.730000
423.699273	3622.000000
426.119272	3602.350000
428.540692	3620.630000
430.959415	3583.180000
433.379559	3589.790000
435.797008	3589.770000
438.215877	3592.060000
440.632053	3587.370000
443.043482	3596.790000
445.458387	3566.550000
447.870602	3569.470000
450.282183	3578.530000
452.693130	3577.870000
455.101391	3567.110000
457.509019	3557.700000
459.916016	3554.070000
462.322380	3537.240000
464.726062	3517.850000
467.129114	3500.100000
469.531536	3506.680000
471.933329	3496.150000
474.332443	3489.380000
476.732977	3480.860000
479.132882	3476.210000
481.528064	3452.870000
483.926713	3464.660000
486.320642	3432.310000
488.713945	3419.340000
491.106622	3422.770000
493.498674	3413.880000
495.892145	3385.930000
498.280903	3374.270000
500.666995	3381.750000
503.054507	3355.160000
505.441395	3344.330000
507.825620	3336.820000
510.211264	3329.800000
512.594245	3319.180000
514.974566	3315.600000
517.356306	3343.710000
519.735387	3308.720000
522.115887	3311.580000
524.493729	3291.970000
526.868916	3301.880000
529.243485	3273.510000
531.619473	3284.040000
533.992807	3243.520000
536.367559	3252.500000
538.737626	3192.090000
541.107077	3183.190000
543.477946	3137.300000
545.844135	3091.930000
548.211742	3079.220000
550.576703	3021.820000
552.941051	2966.700000
555.304787	2935.670000
557.669940	2908.250000
560.030420	2854.510000
562.392319	2837.030000
564.751578	2777.290000
567.108198	2744.830000
569.468263	2711.370000
571.821638	2658.550000
574.178457	2635.320000
576.532640	2587.450000
578.886216	2527.160000
581.239183	2505.780000
583.589519	2440.450000
585.941271	2425.230000
588.286347	2382.630000
590.636887	2341.760000
592.980754	2332.830000
595.330081	2295.310000
597.674761	2260.740000
600.016815	2250.700000
602.360287	2210.580000
604.701136	2196.760000
607.041383	2192.130000
609.379009	2180.280000
611.720070	2143.550000
614.056494	2145.990000
616.394334	2130.020000
618.729556	2132.610000
621.062163	2110.100000
623.396186	2143.770000
625.727596	2124.910000
628.058407	2118.970000
630.388620	2124.410000
632.718235	2114.490000
635.043228	2114.380000
637.373662	2119.940000
639.699474	2124.290000
642.022680	2132.300000
644.347301	2106.480000
646.669318	2122.190000
648.990740	2117.700000
651.309559	2135.400000
653.629794	2139.430000
655.949436	2154.270000
658.266477	2168.850000
660.582926	2180.210000
662.896778	2200.750000
665.212044	2222.810000
667.524714	2244.280000
669.838799	2258.270000
672.148284	2282.130000
674.459185	2327.180000
676.767493	2316.860000
679.075213	2357.840000
681.384348	2381.300000
683.688890	2412.590000
685.992845	2417.510000
688.296215	2442.140000
690.600999	2482.680000
692.901197	2495.290000
695.202809	2527.680000
697.503837	2540.230000
699.800282	2559.240000
702.098143	2577.230000
704.395420	2604.780000
706.692114	2642.400000
708.984232	2640.970000
711.279761	2674.270000
713.570717	2710.360000
715.863087	2724.890000
718.152881	2751.570000
720.442096	2778.810000
722.730730	2800.320000
725.016793	2836.350000
727.304269	2850.150000
729.589175	2848.480000
731.873502	2896.240000
734.155261	2921.060000
736.438434	2914.510000
738.721030	2951.650000
740.999071	2975.570000
743.278525	3000.550000
745.557404	3032.660000
747.835707	3074.820000
750.109461	3100.970000
752.384629	3127.160000
754.659223	3146.330000
756.931258	3162.470000
759.204705	3193.880000
761.475595	3227.860000
763.743929	3253.680000
766.013676	3270.190000
768.280869	3280.140000
770.547491	3312.600000
772.813544	3348.210000
775.077044	3348.150000
777.341958	3383.460000
779.606302	3412.790000
781.866117	3416.790000
784.127345	3441.260000
786.388005	3465.330000
788.646118	3498.040000
790.901687	3494.690000
793.160647	3531.050000
795.413108	3528.230000
797.670936	3554.460000
799.924244	3555.480000
802.175013	3575.590000
804.427194	3588.070000
806.676837	3602.550000
808.927891	3618.400000
811.174434	3621.600000
813.422389	3624.310000
815.667810	3671.860000
817.914642	3652.760000
820.160913	3690.810000
822.402680	3714.420000
824.647829	3733.420000
826.886506	3748.900000
829.128566	3775.730000
831.366127	3789.620000
833.605099	3829.070000
835.841545	3848.080000
838.079402	3867.720000
840.314735	3888.870000
842.547543	3969.530000
844.781763	4001.270000
847.013461	4041.920000
849.244604	4096.150000
851.475192	4132.830000
853.705226	4223.790000
855.934705	4266.980000
858.159703	4343.610000
860.388076	4409.340000
862.611970	4482.900000
864.837274	4559.330000
867.058103	4640.260000
869.282304	4710.230000
871.502032	4787.360000
873.723171	4864.350000
875.943759	4992.970000
878.161837	5081.700000
880.381326	5173.220000
882.596348	5225.900000
884.810822	5284.310000
887.024749	5357.770000
889.238128	5402.800000
891.450960	5416.300000
893.663246	5428.610000
895.873029	5493.880000
898.082267	5464.560000
900.290960	5475.970000
902.497154	5438.510000
904.704757	5412.320000
906.909863	5335.260000
909.114425	5278.560000
911.316491	5227.820000
913.519967	5111.170000
915.720949	5028.000000
917.921390	4904.140000
920.123239	4799.490000
922.318696	4666.700000
924.517513	4555.720000
926.711891	4437.450000
928.909627	4276.590000
931.102927	4179.280000
933.297636	4083.190000
935.489859	3979.920000
937.681544	3917.760000
939.872691	3832.900000
942.061355	3775.400000
944.249482	3753.370000
946.435129	3683.000000
948.624128	3664.290000
950.808704	3661.050000
952.992745	3659.910000
955.180136	3625.210000
957.359223	3650.680000
959.541661	3623.660000
961.723565	3623.440000
963.902995	3630.000000
966.079952	3643.410000
968.258316	3639.400000
970.438088	3644.210000
972.611511	3610.300000
974.788280	3579.930000
976.960643	3566.730000
979.134412	3519.730000
981.303778	3475.660000
983.476489	3452.060000
985.646733	3396.440000
987.816449	3335.560000
989.985636	3272.720000
992.150426	3233.380000
994.318557	3190.120000
996.482294	3108.640000
998.647437	3066.080000
1000.810122	3013.800000
1002.972280	2941.600000
1005.131982	2922.100000
1007.291160	2846.090000
1009.451744	2802.700000
1011.609873	2742.800000
1013.767478	2712.660000
1015.924560	2638.300000
1018.081119	2605.400000
1020.233298	2573.350000
1022.386883	2525.620000
1024.539947	2508.740000
1026.690563	2477.600000
1028.842584	2434.650000
1030.990232	2419.440000
1033.141212	2380.490000
1035.287821	2363.890000
1037.433912	2324.980000
1039.579483	2299.550000
1041.726460	2282.040000
1043.867149	2254.370000
1046.011166	2228.360000
1048.152743	2223.390000
1050.293804	2194.020000
1052.436269	2171.730000
1054.572455	2150.730000
1056.711967	2134.010000
1058.847123	2105.440000
1060.985604	2089.100000
1063.119731	2052.300000
1065.253345	2046.170000
1067.388364	2016.670000
1069.519033	2011.670000
1071.651107	1986.280000
1073.780752	1963.100000
1075.909885	1939.010000
1078.038506	1899.430000
1080.166616	1881.450000
1082.292300	1858.530000
1084.417474	1834.960000
1086.544052	1807.850000
1088.666293	1766.990000
1090.789937	1737.420000
1092.909248	1713.630000
1095.033787	1671.840000
1097.152081	1639.270000
1099.271780	1606.440000
1101.389060	1575.360000
1103.505834	1529.380000
1105.622101	1512.470000
1107.735953	1478.040000
1109.851208	1438.910000
1111.962141	1404.820000
1114.076385	1370.690000
1116.186309	1339.960000
1118.297637	1304.410000
1120.408460	1282.660000
1122.514968	1242.840000
1124.624784	1236.000000
1126.730286	1194.430000
1128.837191	1165.270000
1130.937881	1139.830000
1133.043783	1110.090000
1135.145376	1085.440000
1137.248372	1069.030000
1139.350867	1043.480000
1141.447155	1008.660000
1143.548651	978.030000
1145.645844	971.060000
1147.742538	939.340000
1149.838734	924.100000
1151.934433	901.930000
1154.029634	882.210000
1156.122438	858.530000
1158.216644	843.540000
1160.304659	828.950000
1162.397872	809.980000
1164.484897	785.510000
1166.575221	769.700000
1168.661258	756.940000
1170.750592	743.800000
1172.833745	726.370000
1174.918301	713.560000
1177.004257	697.670000
1179.085932	688.710000
1181.169009	676.190000
1183.249700	662.850000
1185.329899	656.510000
1187.409607	638.690000
1189.488824	629.520000
1191.565659	620.150000
1193.640113	608.360000
1195.717859	604.220000
1197.791334	593.370000
1199.866210	594.000000
1201.936819	573.650000
1204.008830	569.780000
1206.078464	569.420000
1208.149499	558.200000
1210.220046	558.350000
1212.286332	556.340000
1214.354019	543.160000
1216.419334	542.460000
1218.486049	541.430000
1220.548508	538.050000
1222.614252	533.830000
1224.675743	523.510000
1226.738633	530.170000
1228.799156	518.610000
1230.859195	513.240000
1232.918752	518.530000
1234.975943	514.470000
1237.032653	513.310000
1239.087000	508.730000
1241.144627	507.470000
1243.199892	509.100000
1245.250916	508.250000
1247.303340	501.790000
1249.355284	502.920000
1251.404870	509.880000
1253.453977	497.060000
1255.502606	498.710000
1257.550756	499.350000
1259.598428	495.960000
1261.641869	490.740000
1263.688585	489.230000
1265.732948	493.400000
1267.776835	492.590000
1269.818371	483.810000
1271.857557	484.080000
1273.900015	481.710000
1275.938251	487.290000
1277.977886	488.970000
1280.017046	488.420000
1282.051987	478.580000
1284.088328	482.040000
1286.122323	487.630000
1288.157717	480.970000
1290.188897	486.130000
1292.221476	484.500000
1294.253582	479.070000
1296.283348	482.010000
1298.314512	472.700000
1300.341468	481.790000
1302.369822	479.760000
1304.393972	480.140000
1306.421386	473.060000
1308.444598	473.340000
1310.469208	480.890000
1312.491484	478.590000
1314.515157	484.190000
1316.536497	477.260000
1318.557369	476.950000
1320.577775	476.520000
1322.593986	486.020000
1324.611596	476.950000
1326.626877	482.280000
1328.645416	484.030000
1330.659767	482.020000
1332.671792	469.890000
1334.687074	482.200000
1336.698171	484.850000
1338.710665	476.070000
1340.718976	488.220000
1342.730543	483.210000
1344.736070	477.500000
1346.744853	479.660000
1348.749458	483.520000
1350.757317	486.060000
1352.764714	487.720000
1354.766080	484.700000
1356.768843	489.750000
1358.771145	482.040000
1360.772988	486.750000
1362.774371	483.790000
1364.773441	486.950000
1366.772052	490.810000
1368.770205	491.860000
1370.767900	486.990000
1372.761431	485.970000
1374.756359	487.420000
1376.750830	484.890000
1378.744844	482.760000
1380.736551	483.750000
1382.727802	481.190000
1384.716748	483.280000
1386.707089	486.650000
1388.696975	480.770000
1390.684558	479.730000
1392.671686	475.430000
1394.656514	466.410000
1396.642735	477.400000
1398.626657	476.150000
1400.610126	470.870000
1402.593143	477.070000
1404.573861	468.130000
1406.555975	471.390000
1408.535791	466.190000
1410.515157	460.050000
1412.490383	471.390000
1414.468849	455.330000
1416.445020	463.340000
1418.420743	465.910000
1420.396016	460.240000
1422.368998	464.500000
1424.341532	460.070000
1426.313619	459.430000
1428.285257	454.540000
1430.252767	453.190000
1432.225352	456.460000
1434.190130	454.520000
1436.159981	460.900000
1438.125707	449.190000
1440.092826	452.650000
1442.057662	447.790000
1444.018379	446.640000
1445.984163	448.700000
1447.943992	436.720000
1449.905214	446.150000
1451.867829	447.520000
1453.826329	443.590000
1455.784387	441.080000
1457.742002	436.230000
1459.699176	435.990000
1461.654074	437.570000
1463.610364	437.850000
1465.564380	433.130000
1467.517956	434.080000
1469.469259	441.280000
1471.421954	433.260000
1473.372378	434.330000
1475.322363	424.730000
1477.271908	431.810000
1479.219185	425.350000
1481.164195	426.500000
1483.110596	428.550000
1485.056561	422.860000
1487.002087	424.810000
1488.945349	430.560000
1490.888174	432.150000
1492.828736	424.080000
1494.770689	416.940000
1496.710381	424.340000
1498.649637	421.070000
1500.588458	422.940000
1502.525020	416.700000
1504.462973	424.360000
1506.398668	428.360000
1508.333929	421.610000
1510.266933	419.050000
1512.199505	415.020000
1514.131645	422.430000
1516.063353	413.240000
1517.992807	416.690000
1519.923652	414.880000
1521.854066	410.260000
1523.780406	418.260000
1525.708138	417.420000
1527.633619	410.640000
1529.558671	414.390000
1531.483294	413.200000
1533.407488	406.290000
1535.329435	405.860000
1537.252771	412.120000
1539.173862	410.020000
1541.092708	409.370000
1543.012944	418.130000
1544.930936	410.720000
1546.848502	409.640000
1548.763826	408.660000
1550.680540	402.360000
1552.593199	406.790000
1554.509062	405.150000
1556.422685	406.140000
1558.334071	410.900000
1560.246845	404.090000
1562.155570	403.620000
1564.065685	401.820000
1565.975376	399.340000
1567.884643	400.700000
1569.791677	402.610000
1571.696478	400.790000
1573.602668	402.650000
1575.506626	400.470000
1577.410164	399.960000
1579.313280	398.540000
1581.214168	408.000000
1583.116443	399.390000
1585.016491	405.680000
1586.917926	400.400000
1588.815328	395.620000
1590.712311	401.050000
1592.608876	396.750000
1594.506829	399.890000
1596.398947	395.020000
1598.294258	391.780000
1600.189152	394.700000
1602.081824	393.420000
1603.974080	393.410000
1605.864115	391.780000
1607.753736	392.380000
1609.642940	386.760000
1611.531730	398.220000
1613.418303	389.770000
1615.306262	391.120000
1617.190205	384.560000
1619.075536	390.340000
1620.960452	392.390000
1622.843155	389.240000
1624.727245	389.190000
1626.607324	391.550000
1628.488789	393.540000
1630.368044	383.320000
1632.248685	385.270000
1634.123522	386.320000
1636.003341	386.830000
1637.879154	383.900000
1639.754557	377.450000
1641.631347	380.500000
1643.502339	385.480000
1645.376513	378.960000
1647.246689	386.360000
1649.120045	378.070000
1650.991198	381.190000
1652.860149	376.870000
1654.730486	382.230000
1656.596829	382.390000
1658.464558	378.980000
1660.330089	377.380000
1662.197004	375.890000
1664.059931	374.050000
1665.924243	375.610000
1667.786359	379.350000
1669.648071	376.980000
1671.511167	375.080000
1673.372069	375.900000
1675.230777	377.130000
1677.089082	372.770000
1678.948772	372.820000
1680.802695	366.470000
1682.659790	370.680000
1684.516483	370.840000
1686.369200	377.100000
1688.225087	368.760000
1690.077001	370.060000
1691.928514	364.050000
1693.779626	364.160000
1695.630338	365.340000
1697.480649	381.270000
1699.328776	367.110000
1701.178286	369.780000
1703.022048	370.560000
1704.870759	374.120000
1706.713725	370.690000
1708.559856	366.630000
1710.402026	367.030000
1712.247360	367.920000
1714.086954	366.090000
1715.927932	369.220000
1717.770293	372.870000
1719.608698	365.670000
1721.448486	367.260000
1723.286099	364.660000
1725.123316	366.520000
1726.958360	366.340000
1728.794787	363.560000
1730.629042	363.610000
1732.462902	363.930000
1734.296369	365.450000
1736.125889	359.800000
1737.958568	361.070000
1739.787303	362.330000
1741.619196	365.270000
1743.447146	365.550000
1745.274704	356.420000
1747.101870	360.250000
1748.928645	354.240000
1750.755029	360.770000
1752.577476	362.760000
1754.403077	365.680000
1756.224744	363.200000
1758.047793	362.230000
1759.868681	360.850000
1761.689179	362.880000
1763.511059	359.600000
1765.327239	355.850000
1767.146571	359.370000
1768.961976	358.420000
1770.780531	358.340000
1772.595161	358.550000
1774.409405	362.920000
1776.223261	355.810000
1778.036731	358.170000
1779.848048	356.320000
1781.660746	352.960000
1783.473057	354.200000
1785.281451	354.400000
1787.091226	352.640000
1788.897085	361.680000
1790.706090	349.290000
1792.511182	360.980000
1794.317655	360.820000
1796.123744	356.120000
1797.925923	351.850000
1799.731245	354.540000
1801.532659	353.600000
1803.335453	357.960000
1805.134341	355.740000
1806.934610	350.540000
1808.734497	348.840000
1810.532243	354.640000
1812.329607	350.800000
1814.126592	350.150000
1815.923196	352.810000
1817.717661	351.730000
1819.513505	354.020000
1821.303695	349.360000
1823.098781	347.970000
1824.888214	344.830000
1826.680784	352.880000
1828.471219	342.850000
1830.259520	351.390000
1832.050956	355.250000
1833.836746	353.440000
1835.623916	354.680000
1837.408954	344.730000
1839.197126	351.910000
1840.981412	347.120000
1842.763569	346.440000
1844.547104	345.120000
1846.328511	348.810000
1848.111297	349.480000
1849.890203	342.510000
1851.670487	347.900000
1853.448645	349.260000
1855.228182	341.730000
1857.005594	342.680000
1858.780882	344.110000
1860.557549	346.220000
1862.332092	342.460000
1864.108014	345.040000
1865.878316	344.620000
1867.651744	349.350000
1869.423053	342.240000
1871.193992	341.220000
1872.966307	346.710000
1874.733010	348.840000
1876.502837	342.040000
1878.268801	346.620000
1880.037889	346.020000
1881.803115	342.820000
1883.567972	338.590000
1885.334207	342.900000
1887.096583	337.040000
1888.858592	342.580000
1890.620233	349.110000
1892.381508	339.930000
1894.142415	339.240000
1895.902956	341.950000
1897.661387	345.030000
1899.419453	338.720000
1901.175410	338.300000
1902.932745	339.160000
1904.689713	339.740000
1906.444576	341.620000
1908.197333	336.780000
1909.949727	336.990000
1911.703496	334.560000
1913.455162	334.930000
1915.204726	345.060000
1916.955666	340.760000
1918.706242	332.500000
1920.452979	338.390000
1922.201093	336.910000
1923.947107	340.210000
1925.694497	341.280000
1927.439788	335.080000
1929.182982	338.290000
1930.927552	334.500000
1932.670025	334.120000
1934.412138	334.870000
1936.153891	338.000000
1937.895285	335.530000
1939.634585	336.170000
1941.373525	338.420000
1943.112108	333.020000
1944.848598	337.130000
1946.584731	336.725000
1948.322238	336.320000
1950.055923	339.280000
1951.790983	345.720000
1953.523955	338.650000
1955.256570	338.810000
1956.988828	335.490000
1958.720730	343.020000
1960.450546	336.110000
1962.178278	337.640000
1963.907383	338.330000
1965.636134	338.380000
1967.362801	336.080000
1969.089114	337.190000
1970.816800	338.700000
1972.538950	339.630000
1974.264201	342.680000
1975.985646	340.400000
1977.710190	334.920000
1979.432655	341.010000
1981.151316	334.890000
1982.873076	349.790000
1984.591034	338.440000
1986.310365	334.510000
1988.025897	343.370000
1989.746250	344.010000
1991.462803	344.330000
1993.175561	335.640000
1994.891414	340.230000
1996.605194	337.720000
1998.318625	342.600000
2000.029985	344.220000
2001.742718	340.770000
2003.451659	345.520000
2005.163694	340.380000
2006.870219	334.570000
2008.579837	339.560000
2010.287387	342.980000
2011.994590	349.050000
2013.699727	339.090000
2015.404517	340.550000
2017.110679	339.080000
2018.813059	343.570000
2020.516811	341.100000
2022.218499	339.770000
2023.919843	344.250000
2025.620841	343.480000
2027.319779	342.920000
2029.020087	337.860000
2030.716621	347.400000
2032.414526	348.360000
2034.110372	338.360000
2035.809304	345.100000
2037.502750	346.940000
2039.197568	339.950000
2040.892042	338.450000
2042.582748	349.320000
2044.276538	343.350000
2045.966561	344.460000
2047.657955	338.290000
2049.347296	338.020000
2051.038007	338.320000
2052.724956	340.330000
2054.411564	335.660000
2056.099543	337.560000
2057.783762	338.600000
2059.469351	334.770000
2061.154601	333.910000
2062.837803	332.960000
2064.522374	334.700000
2066.201483	332.230000
2067.885377	336.870000
2069.563811	328.120000
2071.245321	328.930000
2072.923081	330.720000
2074.600503	331.050000
2076.279296	324.630000
2077.956045	332.600000
2079.630753	334.080000
2081.306830	330.450000
2082.980867	328.150000
2084.654568	328.420000
2086.327934	327.190000
2087.999262	331.310000
2089.670255	331.520000
2091.340914	329.290000
2093.011238	333.680000
2094.681229	330.320000
2096.349184	332.230000
2098.016806	325.640000
2099.682393	325.120000
2101.349350	333.400000
2103.014272	328.280000
2104.678863	331.340000
2106.341422	330.820000
2108.005349	331.730000
2109.667246	332.690000
2111.328811	333.020000
2112.990045	326.920000
2114.649251	330.090000
2116.308126	337.870000
2117.966672	333.870000
2119.624888	331.730000
2121.279380	333.510000
2122.936937	330.580000
2124.594165	326.870000
2126.247671	332.220000
2127.902545	330.710000
2129.553701	330.250000
2131.207918	328.590000
2132.858419	332.640000
2134.510286	336.930000
2136.156745	333.360000
2137.807959	331.600000
2139.455459	324.860000
2141.104326	330.770000
2142.751175	329.300000
2144.397697	334.180000
2146.043894	337.370000
2147.686383	328.370000
2149.331930	325.910000
2150.973770	335.930000
2152.618667	323.730000
2154.259859	327.640000
2155.900727	324.040000
2157.541271	335.030000
2159.179803	325.630000
2160.819702	327.850000
2162.455900	326.550000
2164.093464	329.040000
2165.730705	318.360000
2167.365937	328.160000
2169.000848	323.050000
2170.635437	325.990000
2172.269704	322.850000
2173.900279	322.010000
2175.533904	324.630000
2177.163838	329.180000
2178.795137	324.240000
2180.424432	324.690000
2182.053406	323.560000
2183.682062	322.200000
2185.310398	326.510000
2186.936731	318.950000
2188.562746	320.380000
2190.186760	321.540000
2191.812138	318.550000
2193.435517	319.210000
2195.060259	325.710000
2196.681321	320.660000
2198.302066	317.740000
2199.924176	319.740000
2201.544288	320.970000
2203.162403	313.400000
2204.780203	321.750000
2206.397688	317.340000
2208.014857	319.070000
2209.631711	321.530000
2211.248250	318.560000
2212.862795	319.600000
2214.475348	317.250000
2216.089265	321.450000
2217.701191	317.160000
2219.314480	321.410000
2220.925779	313.580000
2222.535088	318.280000
2224.145761	317.260000
2225.754445	315.320000
2227.362817	315.160000
2228.969201	307.300000
2230.576949	313.230000
2232.182710	317.160000
2233.788160	316.890000
2235.391625	316.820000
2236.996454	309.430000
2238.599298	319.390000
2240.200159	316.310000
2241.802383	316.080000
2243.402624	320.570000
2245.004228	316.210000
2246.602180	318.100000
2248.201494	320.640000
2249.798828	318.700000
2251.395853	316.800000
2252.994241	320.440000
2254.588980	317.370000
2256.181742	309.870000
2257.775867	311.730000
2259.371353	317.730000
2260.963195	314.390000
2262.554730	318.060000
2264.147626	311.610000
2265.735213	322.010000
2267.327497	313.610000
2268.914473	311.690000
2270.504478	313.100000
2272.089178	305.070000
2273.678572	311.330000
2275.262663	314.430000
2276.848116	311.280000
2278.431599	311.980000
2280.018109	312.490000
2281.600985	311.420000
2283.183557	306.500000
2284.765826	309.990000
2286.344466	314.410000
2287.926129	305.220000
2289.504164	307.220000
2291.085222	309.450000
2292.662654	306.355000
2294.238121	303.260000
2295.816611	307.170000
2297.391477	303.530000
2298.966042	305.050000
2300.540307	306.080000
2302.114271	302.640000
2303.687935	303.480000
2305.261298	300.640000
2306.831043	301.040000
2308.400489	302.310000
2309.972954	306.850000
2311.540143	309.520000
2313.110351	298.530000
2314.676944	303.490000
2316.244897	301.560000
2317.810894	310.910000
2319.376594	308.640000
2320.941997	313.480000
2322.505445	299.760000
2324.070253	307.720000
2325.631453	313.940000
2327.195667	320.930000
2328.754620	317.360000
2330.316586	319.990000
2331.876602	310.570000
2333.436322	311.260000
2334.994093	306.790000
2336.551569	307.300000
2338.108751	306.030000
2339.663986	310.970000
2341.218926	304.860000
2342.773573	306.760000
2344.327926	310.490000
2345.881985	309.590000
2347.435750	314.060000
2348.987572	313.830000
2350.537450	313.640000
2352.090336	308.630000
2353.637980	309.390000
2355.188631	309.770000
2356.735692	312.290000
2358.284110	312.190000
2359.832236	310.940000
2361.376774	306.580000
2362.922671	311.120000
2364.466628	314.720000
2366.011943	306.040000
2367.553673	312.570000
2369.096760	313.560000
2370.637912	310.380000
2372.178774	311.790000
2373.719347	315.570000
2375.259631	313.880000
2376.799625	316.520000
2378.336042	307.280000
2379.875460	310.440000
2381.411301	315.240000
2382.948498	308.290000
2384.482120	311.630000
2386.018743	310.300000
2387.553434	314.620000
2389.086196	310.040000
2390.618671	311.800000
2392.149219	307.450000
2393.682764	309.310000
2395.211098	306.380000
2396.740788	302.250000
2398.270193	319.270000
2399.799312	308.800000
2401.328147	315.000000
2402.851776	313.680000
2404.380042	313.890000
2405.903104	318.540000
2407.430800	309.420000
2408.951657	309.520000
2410.477147	314.700000
2411.999076	308.190000
2413.522361	311.910000
2415.043725	309.820000
2416.563169	315.560000
2418.083968	309.790000
2419.602848	309.550000
2421.121446	315.010000
2422.638127	310.360000
2424.156162	317.680000
2425.673916	312.280000
2427.188119	316.130000
2428.702041	317.570000
2430.215683	311.580000
2431.730680	313.370000
2433.242128	309.720000
2434.754931	304.900000
2436.265821	310.890000
2437.776431	311.780000
2439.285130	314.040000
2440.796816	305.970000
2442.304957	309.990000
2443.812821	304.410000
2445.320407	307.870000
2446.824452	308.080000
2448.331483	310.960000
2449.836605	306.500000
2451.341450	309.240000
2452.844388	307.380000
2454.347049	304.290000
2455.849434	301.780000
2457.349914	296.170000
2458.851747	305.120000
2460.351676	301.790000
2461.851329	299.720000
2463.350706	300.180000
2464.848181	300.330000
2466.343755	297.630000
2467.842308	296.010000
2469.337332	293.900000
2470.833710	293.950000
2472.326561	285.980000
2473.820764	295.430000
2475.314694	292.030000
2476.805101	291.020000
2478.298484	298.280000
2479.789970	294.560000
2481.279559	299.470000
2482.768876	296.400000
2484.256298	290.560000
2485.746695	296.430000
2487.233573	291.610000
2488.721803	298.150000
2490.206517	293.930000
2491.690960	291.340000
2493.176755	290.830000
2494.660657	294.940000
2496.145911	299.180000
2497.626031	293.590000
2499.109123	295.590000
2500.590325	291.620000
2502.071258	295.730000
2503.550302	294.230000
2505.029077	292.270000
2506.507584	293.240000
2507.985823	290.060000
2509.463793	295.110000
2510.938259	291.250000
2512.415693	295.240000
2513.889624	297.570000
2515.364906	293.710000
2516.839920	292.380000
2518.311433	292.750000
2519.784296	293.310000
2521.255277	295.420000
2522.727608	304.240000
2524.194826	293.780000
2525.665009	290.260000
2527.133312	301.540000
2528.601350	302.020000
2530.069123	295.410000
2531.536631	296.170000
2533.003874	297.050000
2534.467625	292.560000
2535.932726	293.650000
2537.395950	303.450000
2538.860524	298.640000
2540.321608	293.610000
2541.784042	297.570000
2543.246213	297.130000
2544.704898	296.170000
2546.168155	294.720000
2547.626315	294.630000
2549.085824	293.860000
2550.540240	294.650000
2551.999225	294.400000
2553.456339	299.690000
2554.911582	298.590000
2556.366564	299.060000
2557.819676	297.340000
2559.274137	292.330000
2560.726729	298.700000
2562.179061	290.720000
2563.629525	294.130000
2565.082945	295.400000
2566.531283	287.030000
2567.982577	294.250000
2569.432004	293.280000
2570.877959	292.170000
2572.326870	294.500000
2573.772309	294.610000
2575.219097	287.810000
2576.664021	287.030000
2578.108688	296.150000
2579.554702	292.990000
2580.997249	292.150000
2582.441144	288.680000
2583.881574	287.910000
2585.323351	293.660000
2586.763269	291.980000
2588.204534	291.810000
2589.642338	293.130000
2591.083091	290.430000
2592.518781	284.960000
2593.957421	292.250000
2595.394204	288.800000
2596.829130	285.970000
2598.267005	288.510000
2599.699821	293.210000
2601.133985	288.000000
2602.566295	292.030000
2603.999951	288.790000
2605.431754	292.340000
2606.863304	284.700000
2608.294600	284.360000
2609.724044	290.760000
2611.153237	291.590000
2612.580578	282.860000
2614.009266	283.440000
2615.437701	283.460000
2616.862689	284.660000
2618.289024	282.340000
2619.713510	284.630000
2621.139342	286.690000
2622.561730	287.880000
2623.985464	285.650000
2625.407351	284.590000
2626.828989	281.290000
2628.248781	285.740000
2629.669919	277.380000
2631.090807	279.600000
2632.508257	288.530000
2633.928646	286.990000
2635.345598	278.120000
2636.762302	278.270000
2638.178757	282.970000
2639.594964	276.100000
2641.010922	288.720000
2642.425040	283.680000
2643.838911	284.440000
2645.250942	283.630000
2646.664318	283.810000
2648.074264	285.510000
2649.487145	280.680000
2650.896599	287.620000
2652.305806	281.250000
2653.713177	286.030000
2655.123482	284.660000
2656.531951	282.730000
2657.938585	289.670000
2659.344974	283.120000
2660.749529	278.110000
2662.155428	283.320000
2663.559494	285.750000
2664.963316	281.900000
2666.366893	285.640000
2667.768638	288.210000
2669.171727	283.240000
2670.571399	285.890000
2671.972413	281.130000
2673.370012	283.960000
2674.770541	287.400000
2676.167655	286.020000
2677.566112	286.290000
2678.962741	280.540000
2680.359128	285.910000
2681.755274	282.860000
2683.149593	278.500000
2684.545255	278.300000
2685.937507	277.560000
2687.331103	279.910000
2688.722874	281.640000
2690.115987	277.730000
2691.507277	282.960000
2692.896744	277.180000
2694.285971	274.290000
2695.674959	279.960000
2697.065289	278.600000
2698.450634	282.570000
2699.838903	277.000000
2701.225352	277.080000
2702.611562	283.120000
2703.997534	282.250000
2705.380106	276.950000
2706.764021	283.280000
2708.147698	277.930000
2709.531137	275.390000
2710.911180	276.270000
2712.292565	274.740000
2713.672134	277.040000
2715.053045	277.040000
2716.432141	276.240000
2717.809422	276.460000
2719.188045	277.760000
2720.564855	277.500000
2721.941429	277.670000
2723.317767	281.770000
2724.692293	279.720000
2726.068160	280.730000
2727.440640	283.760000
2728.816036	278.450000
2730.186472	275.980000
2731.558249	277.950000
2732.929791	273.070000
2734.299525	276.300000
2735.670600	281.190000
2737.039867	272.970000
2738.408900	276.000000
2739.776126	274.730000
2741.143120	277.870000
2742.509881	274.680000
2743.876409	273.010000
2745.241132	273.220000
2746.605624	273.620000
2747.969883	273.450000
2749.333910	277.140000
2750.697706	276.430000
2752.058128	279.450000
2753.421461	272.400000
2754.779851	278.380000
2756.141151	276.070000
2757.499080	270.850000
2758.859919	268.480000
2760.218957	268.410000
2761.574627	262.360000
2762.933205	266.080000
2764.288417	272.050000
2765.643399	268.600000
2766.996584	260.250000
2768.352676	274.020000
2769.705404	266.630000
2771.057903	267.800000
2772.410174	266.750000
2773.763784	267.880000
2775.114032	272.960000
2776.462487	271.460000
2777.813846	271.890000
2779.161846	275.100000
2780.511185	270.220000
2781.858731	267.140000
2783.206050	273.910000
2784.553143	269.910000
2785.898445	260.330000
2787.243521	260.170000
2788.588371	263.350000
2789.932994	264.840000
2791.274266	272.940000
2792.616876	268.660000
2793.959260	268.750000
2795.301420	267.240000
2796.640230	271.380000
2797.981939	267.850000
2799.320301	263.060000
2800.660000	264.070000
2801.997913	264.880000
2803.334042	264.650000
2804.669947	262.590000
2806.007190	261.830000
2807.342649	266.960000
2808.677885	264.800000
2810.011338	266.030000
2811.346129	266.150000
2812.677578	265.220000
2814.011923	263.630000
2815.341370	265.020000
2816.672154	257.580000
2818.002716	264.030000
2819.331499	270.050000
2820.661618	266.660000
2821.989959	262.430000
2823.318079	269.060000
2824.644422	256.840000
2825.972100	264.810000
2827.296446	273.000000
2828.622127	260.670000
2829.946033	266.110000
2831.269720	265.360000
2832.594742	263.330000
2833.916434	261.010000
2835.237908	261.850000
2836.559163	257.440000
2837.880199	261.490000
2839.199463	261.570000
2840.520062	261.370000
2841.838889	266.870000
2843.157498	259.940000
2844.474336	259.940000
2845.790958	262.740000
2847.107361	259.130000
2848.421996	261.870000
2849.737965	259.470000
2851.050614	262.060000
2852.364599	262.300000
2853.678366	255.320000
2854.991918	262.990000
2856.303702	257.280000
2857.613720	264.120000
2858.925073	255.820000
2860.233111	268.830000
2861.542484	260.760000
2862.851641	264.830000
2864.160583	261.410000
2865.467762	261.060000
2866.773177	259.700000
2868.079927	261.150000
2869.384914	258.850000
2870.689688	265.670000
2871.992700	267.510000
2873.298594	258.920000
2874.599632	262.630000
2875.902005	259.140000
2877.202618	265.330000
2878.504565	269.720000
2879.806299	262.670000
2881.104728	263.620000
2882.404492	263.850000
2883.702497	266.380000
2885.000291	256.280000
2886.296329	261.010000
2887.593700	258.490000
2888.889315	255.880000
2890.184719	257.520000
2891.479913	256.260000
2892.771808	255.900000
2894.066580	259.210000
2895.358055	262.270000
2896.650863	262.390000
2897.943461	263.310000
2899.232765	258.760000
2900.523401	253.560000
2901.812286	261.560000
2903.102504	262.240000
2904.389430	254.760000
2905.677688	261.610000
2906.964196	252.880000
2908.250497	259.970000
2909.536589	256.680000
2910.820933	257.510000
2912.108149	255.420000
2913.390537	261.220000
2914.674258	262.910000
2915.956233	258.250000
2917.238001	257.090000
2918.518023	261.270000
2919.800915	265.540000
2921.082062	256.460000
2922.359927	257.760000
2923.640661	260.050000
2924.918114	250.920000
2926.195361	251.720000
2927.470867	254.880000
2928.749240	251.050000
2930.022798	248.960000
2931.299224	256.500000
2932.573909	254.550000
2933.846854	259.590000
2935.121129	256.490000
2936.393665	253.090000
2937.665997	247.040000
2938.935055	255.710000
2940.206979	253.300000
2941.477165	251.180000
2942.747148	257.050000
2944.016927	248.390000
2945.284969	255.880000
2946.551276	256.520000
2947.817380	256.140000
2949.084814	256.550000
2950.350514	253.480000
2951.616011	255.050000
2952.881306	251.030000
2954.143336	257.140000
2955.406697	252.500000
2956.669855	255.250000
2957.931282	262.110000
2959.194038	247.980000
2960.455063	253.370000
2961.714356	255.970000
2962.973450	257.260000
2964.232343	252.440000
2965.491036	248.720000
2966.749529	255.680000
2968.006293	253.780000
2969.262857	260.240000
2970.517694	249.490000
2971.773860	257.250000
2973.026770	251.730000
2974.281010	255.390000
2975.535051	241.980000
2976.787366	251.830000
2978.039483	256.910000
2979.289875	249.590000
2980.543122	255.130000
2981.791592	246.220000
2983.042916	253.660000
2984.290992	247.940000
2985.538870	251.960000
2986.786551	254.260000
2988.034036	255.810000
2989.279799	251.760000
2990.525365	252.950000
2991.772259	250.130000
2993.015909	244.340000
2994.260887	253.020000
2995.502622	249.630000
2996.747208	251.640000
2997.990074	249.180000
2999.229700	248.530000
3000.472176	253.400000
3001.711413	257.260000
3002.951977	252.480000
3004.190824	247.700000
3005.429477	246.550000
3006.666414	246.510000
3007.904678	250.250000
3009.141228	248.990000
3010.377583	250.960000
3011.613745	251.050000
3012.848194	250.830000
3014.082449	246.900000
3015.316511	252.740000
3016.548861	247.840000
3017.779499	256.620000
3019.012983	242.000000
3020.244755	249.250000
3021.474817	249.530000
3022.704687	248.690000
3023.932847	244.660000
3025.162333	247.890000
3026.390111	245.460000
3027.617697	248.490000
3028.846609	249.980000
3030.070779	256.720000
3031.297792	249.380000
3032.521581	253.040000
3033.746697	251.370000
3034.970106	251.300000
3036.193326	254.040000
3037.414840	257.180000
3038.639195	255.700000
3039.858815	246.850000
3041.079760	252.140000
3042.300517	252.320000
3043.519570	247.350000
3044.739949	251.850000
3045.957111	247.080000
3047.175598	249.360000
3048.392384	252.330000
3049.608981	247.120000
3050.825390	252.350000
3052.038587	249.270000
3053.254621	246.850000
3054.467443	253.360000
3055.683102	250.850000
3056.894038	245.430000
3058.106299	254.670000
3059.318374	242.110000
3060.530262	245.010000
3061.740452	245.550000
3062.950456	248.560000
3064.160275	246.460000
3065.368397	251.980000
3066.576333	248.960000
3067.782575	248.060000
3068.990140	253.250000
3070.196012	249.765000
3071.401698	246.280000
3072.607199	250.720000
3073.811007	245.100000
3075.016139	252.260000
3076.219579	253.750000
3077.421326	254.250000
3078.622890	253.910000
3079.824270	245.170000
3081.025466	250.260000
3082.224972	244.420000
3083.424294	246.770000
3084.624940	243.990000
3085.823896	244.630000
3087.019658	245.960000
3088.218249	251.530000
3089.413646	249.650000
3090.610366	246.460000
3091.803894	242.370000
3093.000251	242.110000
3094.194920	247.900000
3095.386399	249.300000
3096.582209	245.320000
3097.773326	250.630000
3098.965765	251.250000
3100.155017	244.690000
3101.347095	241.800000
3102.537488	245.220000
3103.724696	244.130000
3104.913227	246.620000
3106.103080	250.180000
3107.289748	249.020000
3108.476237	243.410000
3109.662546	246.770000
3110.850177	242.210000
3112.034627	248.440000
3113.217396	244.790000
3114.402989	244.890000
3115.586901	241.960000
3116.769135	246.350000
3117.951190	244.540000
3119.133068	238.370000
3120.314767	244.400000
3121.494788	243.000000
3122.673133	240.070000
3123.854299	243.240000
3125.032289	247.330000
3126.210102	245.020000
3127.387738	243.450000
3128.563699	245.940000
3129.739483	247.020000
3130.916589	241.630000
3132.092020	242.820000
3133.265778	242.580000
3134.437864	239.690000
3135.611270	241.820000
3136.784501	239.350000
3137.956059	244.740000
3139.128939	241.440000
3140.298651	249.930000
3141.469684	244.200000
3142.639046	245.610000
3143.806739	239.850000
3144.977247	243.200000
3146.143096	240.210000
3147.313255	243.530000
3148.478756	241.540000
3149.644084	242.470000
3150.809238	247.850000
3151.974218	241.620000
3153.140519	238.930000
3154.302166	240.620000
3155.465134	238.900000
3156.627928	240.410000
3157.790550	243.360000
3158.951507	243.930000
3160.112291	241.780000
3161.272903	237.370000
3162.431852	235.990000
3163.590628	231.240000
3164.749233	238.280000
3165.907666	239.470000
3167.065927	236.880000
3168.222526	239.420000
3169.377464	238.440000
3170.533721	235.490000
3171.688318	240.940000
3172.842743	229.790000
3173.995509	234.000000
3175.148105	237.590000
3176.300530	237.840000
3177.452786	235.330000
3178.604872	235.060000
3179.753811	240.540000
3180.905557	233.200000
3182.055645	239.790000
3183.204077	232.960000
3184.352340	244.480000
3185.500433	238.990000
3186.648358	237.200000
3187.794628	239.620000
3188.940729	238.030000
3190.085175	242.630000
3191.229454	238.410000
3192.373565	242.220000
3193.518994	242.230000
3194.661283	239.450000
3195.803406	244.360000
3196.945361	242.760000
3198.087150	238.220000
3199.228771	243.090000
3200.367256	244.600000
3201.507059	234.870000
3202.648180	235.340000
3203.786166	236.690000
3204.922503	241.650000
3206.058674	241.130000
3207.196163	239.920000
3208.332002	236.820000
3209.469159	237.270000
3210.601703	235.860000
3211.738529	238.910000
3212.870743	234.700000
3214.004275	239.970000
3215.137641	234.010000
3216.267880	231.920000
3217.400917	242.390000
3218.530828	235.130000
3219.662056	234.800000
3220.790158	238.310000
3221.921057	231.710000
3223.050313	231.340000
3224.177924	234.270000
3225.302414	228.730000
3226.431179	237.510000
3227.556822	239.840000
3228.682302	232.030000
3229.806141	231.870000
3230.932774	233.930000
3232.054810	233.680000
3233.178162	233.970000
3234.301352	233.590000
3235.424380	233.380000
3236.545768	230.060000
3237.666995	229.470000
3238.786583	234.160000
3239.906010	227.780000
3241.023799	233.150000
3242.144381	236.420000
3243.261848	233.350000
3244.379156	235.500000
3245.496302	232.170000
3246.611813	237.440000
3247.728639	241.470000
3248.842354	236.600000
3249.958860	240.850000
3251.073730	235.450000
3252.185492	239.120000
3253.297095	237.400000
3254.410012	231.370000
3255.522771	237.970000
3256.632423	235.540000
3257.743390	236.020000
3258.854197	235.090000
3259.963374	241.340000
3261.070919	236.540000
3262.179779	236.180000
3263.288480	239.310000
3264.394079	240.060000
3265.500992	239.310000
3266.606277	233.780000
3267.712875	240.100000
3268.816373	247.710000
3269.921185	241.780000
3271.025840	242.930000
3272.127396	241.860000
3273.228797	238.650000
3274.331511	237.200000
3275.434068	237.580000
3276.533530	236.310000
3277.635774	235.970000
3278.734923	240.070000
3279.832448	242.970000
3280.929817	240.310000
3282.029969	244.510000
3283.127027	237.610000
3284.223930	236.760000
3285.320679	240.450000
3286.412868	238.950000
3287.509306	242.360000
3288.604123	238.460000
3289.698784	242.320000
3290.791824	237.210000
3291.884710	234.290000
3292.975975	234.280000
3294.068553	238.890000
3295.159510	240.990000
3296.248848	241.900000
3297.338033	237.390000
3298.428531	235.700000
3299.515944	239.140000
3300.603205	239.370000
3301.691778	240.690000
3302.780198	230.760000
3303.864071	238.260000
3304.952186	232.770000
3306.037220	232.600000
3307.120637	240.050000
3308.205367	235.890000
3309.288482	243.110000
3310.372908	235.120000
3311.454256	240.310000
3312.536916	232.590000
3313.617962	247.400000
3314.698857	241.790000
3315.778139	240.820000
3316.857270	242.200000
3317.937712	233.810000
3319.015081	239.820000
3320.093760	240.790000
3321.170829	240.120000
3322.247747	238.760000
3323.323054	236.760000
3324.398212	236.870000
3325.474681	240.410000
3326.548080	238.890000
3327.621330	242.730000
3328.695891	241.030000
3329.768842	246.480000
3330.840186	239.820000
3331.912840	237.560000
3332.982427	241.420000
3334.053325	235.370000
3335.122616	237.570000
3336.193218	238.500000
3337.262213	239.810000
3338.329602	240.720000
3339.395386	239.600000
3340.465396	238.720000
3341.532343	226.890000
3342.596228	236.720000
3343.662881	236.080000
3344.727929	233.410000
3345.791374	239.370000
3346.854673	238.370000
3347.917826	233.420000
3348.980832	239.470000
3350.043691	236.040000
3351.104949	237.940000
3352.163150	229.030000
3353.225572	241.870000
3354.284937	238.960000
3355.344157	235.810000
3356.404687	242.770000
3357.460707	232.170000
3358.519492	231.120000
3359.573769	237.320000
3360.630809	242.310000
3361.686252	234.370000
3362.743003	239.790000
3363.798157	235.350000
3364.851713	235.160000
3365.903672	238.800000
3366.958393	236.190000
3368.010065	237.240000
3369.061594	234.220000
3370.114432	241.210000
3371.164222	234.480000
3372.215320	232.860000
3373.263373	247.420000
3374.314186	240.660000
3375.361953	236.050000
3376.409578	231.050000
3377.457060	244.990000
3378.502950	238.560000
3379.550148	244.490000
3380.594304	239.110000
3381.641218	239.840000
3382.686540	243.430000
3383.728822	238.710000
3384.770962	237.870000
3385.814410	239.680000
3386.857718	238.160000
3387.899435	236.700000
3388.941011	236.970000
3389.982447	237.390000
3391.022293	237.860000
3392.060552	240.110000
3393.100118	235.940000
3394.139543	236.590000
3395.177381	237.000000
3396.213633	248.960000
3397.249744	238.720000
3398.287163	241.440000
3399.321549	242.570000
3400.357242	239.320000
3401.392796	240.390000
3402.425319	237.550000
3403.460595	236.540000
3404.492840	240.610000
3405.524947	236.480000
3406.555470	243.330000
3407.587301	239.970000
3408.618992	238.140000
3409.647657	238.590000
3410.676183	240.900000
3411.706017	243.830000
3412.735712	246.940000
3413.762382	241.880000
3414.790359	237.230000
3415.815311	237.730000
3416.843013	238.840000
3417.867692	238.290000
3418.893677	236.550000
3419.918082	241.210000
3420.942351	239.850000
3421.965041	237.810000
3422.987595	235.930000
3424.011455	243.110000
3425.032295	235.890000
3426.053000	235.120000
3427.075010	235.650000
3428.094002	240.390000
3429.112859	238.960000
3430.133021	243.320000
3431.150167	240.410000
