-118.106446	7.180000
-115.436846	11.910000
-112.770181	10.580000
-110.104268	15.300000
-107.441287	17.510000
-104.776877	10.830000
-102.115397	14.750000
-99.452487	10.320000
-96.794685	13.870000
-94.135452	6.380000
-91.476968	16.770000
-88.821409	12.840000
-86.164421	12.600000
-83.512530	16.720000
-80.859210	14.600000
-78.208810	12.630000
-75.556980	11.160000
-72.910241	16.840000
-70.262072	11.010000
-67.614647	13.840000
-64.970135	12.760000
-62.324195	9.780000
-59.683336	14.050000
-57.041048	16.620000
-54.401668	16.200000
-51.760860	16.160000
-49.120792	18.460000
-46.485796	18.730000
-43.849371	17.390000
-41.215850	22.310000
-38.580900	20.280000
-35.951015	22.630000
-33.317538	20.990000
-30.689123	31.290000
-28.061441	32.460000
-25.432332	39.010000
-22.808279	43.200000
-20.180637	55.470000
-17.558048	77.040000
-14.936191	117.120000
-12.315064	202.640000
-9.694667	527.100000
-7.077158	1745.040000
-4.458221	5189.130000
-1.842170	11792.990000
0.773153	12073.640000
3.387749	5538.720000
5.999462	556.970000
8.612604	111.460000
11.220712	63.830000
13.832402	47.030000
16.439061	35.110000
19.047148	32.550000
21.654511	40.220000
24.256849	37.320000
26.862765	31.970000
29.463659	27.850000
32.065981	22.140000
34.663286	30.070000
37.264166	25.930000
39.860032	22.190000
42.457325	16.660000
45.053899	26.030000
47.645464	22.000000
50.238457	25.700000
52.828589	27.610000
55.420149	22.090000
58.008849	28.080000
60.598976	21.570000
63.184105	21.640000
65.770660	23.900000
68.356502	19.690000
70.939490	26.520000
73.523905	25.150000
76.101190	24.760000
78.682042	27.910000
81.260045	27.310000
83.837338	26.740000
86.416057	29.950000
88.989795	31.820000
91.564959	31.220000
94.137280	28.780000
96.708893	35.110000
99.277666	39.950000
101.847866	38.580000
104.415228	46.270000
106.984015	50.040000
109.549966	61.960000
112.113082	77.090000
114.679754	93.120000
117.237205	118.100000
119.800341	164.750000
122.358518	230.500000
124.920248	337.760000
127.477023	502.800000
130.035223	746.090000
132.588471	1111.830000
135.141020	1608.590000
137.697120	2249.940000
140.248273	2955.620000
142.798727	3666.320000
145.348485	4186.270000
147.895423	4604.080000
150.441665	4814.930000
152.989333	4919.350000
155.536306	4995.830000
158.078342	4953.620000
160.619685	4908.480000
163.160335	4920.010000
165.702411	4870.140000
168.241676	4888.840000
170.778131	4847.800000
173.313896	4802.420000
175.851086	4800.660000
178.387584	4749.540000
180.921277	4750.320000
183.452167	4717.810000
185.982368	4691.990000
188.513994	4678.390000
191.042819	4683.210000
193.568845	4669.170000
196.094186	4655.230000
198.620951	4645.770000
201.144919	4641.790000
203.668203	4640.860000
206.190802	4639.490000
208.710608	4620.940000
211.229731	4590.470000
213.748171	4582.950000
216.268035	4593.650000
218.780898	4609.300000
221.297292	4627.420000
223.813004	4637.520000
226.323827	4620.070000
228.836074	4638.480000
231.345538	4643.420000
233.854324	4642.000000
236.362432	4678.480000
238.871963	4669.730000
241.376615	4671.530000
243.880590	4682.650000
246.385989	4703.840000
248.886513	4712.200000
251.390560	4716.420000
253.887637	4708.080000
256.388236	4723.020000
258.886064	4747.130000
261.383219	4710.660000
263.879701	4740.230000
266.371320	4732.490000
268.866459	4720.640000
271.358832	4729.610000
273.850534	4747.830000
276.339473	4743.770000
278.829835	4742.210000
281.317436	4706.910000
283.802277	4722.440000
286.290632	4725.860000
288.772048	4707.670000
291.256978	4712.240000
293.737063	4719.850000
296.220660	4724.430000
298.699414	4753.190000
301.179592	4743.530000
303.657017	4749.430000
306.133779	4726.250000
308.609878	4726.160000
311.083228	4733.240000
313.555916	4749.490000
316.027943	4749.220000
318.499309	4793.810000
320.967931	4811.600000
323.435893	4834.020000
325.905278	4771.020000
328.369840	4767.880000
330.837905	4768.670000
333.301151	4757.720000
335.763740	4757.340000
338.225671	4713.390000
340.686946	4723.850000
343.145487	4706.400000
345.605450	4667.680000
348.062680	4646.490000
350.519256	4618.420000
352.975178	4573.530000
355.428371	4504.600000
357.882985	4481.500000
360.332798	4447.240000
362.786108	4414.690000
365.234618	4333.410000
367.682478	4312.820000
370.131759	4268.860000
372.576247	4236.730000
375.022157	4175.750000
377.467418	4114.300000
379.909960	4103.290000
382.351854	4038.220000
384.793100	4038.470000
387.231631	3991.140000
389.671584	3923.820000
392.108823	3898.320000
394.543350	3849.690000
396.981365	3851.840000
399.414603	3807.810000
401.849263	3775.340000
404.279149	3754.380000
406.712521	3742.850000
409.141123	3726.030000
411.569084	3679.440000
413.998465	3668.270000
416.423081	3663.210000
418.849119	3634.030000
421.274516	3610.480000
423.699273	3602.450000
426.119272	3588.540000
428.540692	3600.570000
430.959415	3576.120000
433.379559	3572.980000
435.797008	3581.810000
438.215877	3569.210000
440.632053	3562.990000
443.043482	3555.800000
445.458387	3563.670000
447.870602	3545.490000
450.282183	3543.980000
452.693130	3555.750000
455.101391	3544.210000
457.509019	3515.140000
459.916016	3532.900000
462.322380	3498.070000
464.726062	3498.500000
467.129114	3483.460000
469.531536	3488.900000
471.933329	3475.570000
474.332443	3473.550000
476.732977	3468.800000
479.132882	3452.870000
481.528064	3431.790000
483.926713	3447.590000
486.320642	3399.140000
488.713945	3407.980000
491.106622	3380.250000
493.498674	3388.390000
495.892145	3349.890000
498.280903	3354.600000
500.666995	3342.480000
503.054507	3332.620000
505.441395	3316.340000
507.825620	3304.100000
510.211264	3311.980000
512.594245	3287.930000
514.974566	3273.680000
517.356306	3313.900000
519.735387	3281.140000
522.115887	3274.350000
524.493729	3262.450000
526.868916	3272.250000
529.243485	3254.220000
531.619473	3245.080000
533.992807	3219.520000
536.367559	3188.770000
538.737626	3168.070000
541.107077	3141.170000
543.477946	3105.660000
545.844135	3052.010000
548.211742	3024.630000
550.576703	2972.490000
552.941051	2942.690000
555.304787	2894.510000
557.669940	2873.540000
560.030420	2841.040000
562.392319	2788.960000
564.751578	2745.450000
567.108198	2693.160000
569.468263	2658.500000
571.821638	2606.690000
574.178457	2576.290000
576.532640	2531.370000
578.886216	2489.110000
581.239183	2445.130000
583.589519	2410.690000
585.941271	2375.030000
588.286347	2324.810000
590.636887	2297.410000
592.980754	2263.970000
595.330081	2233.130000
597.674761	2207.860000
600.016815	2179.760000
602.360287	2166.370000
604.701136	2148.460000
607.041383	2121.100000
609.379009	2120.510000
611.720070	2089.550000
614.056494	2095.630000
616.394334	2068.370000
618.729556	2060.540000
621.062163	2064.200000
623.396186	2073.340000
625.727596	2069.930000
628.058407	2062.010000
630.388620	2061.500000
632.718235	2056.340000
635.043228	2051.340000
637.373662	2059.680000
639.699474	2060.000000
642.022680	2060.660000
644.347301	2059.580000
646.669318	2054.440000
648.990740	2066.750000
651.309559	2081.490000
653.629794	2065.000000
655.949436	2094.420000
658.266477	2100.620000
660.582926	2114.520000
662.896778	2137.390000
665.212044	2154.590000
667.524714	2190.920000
669.838799	2190.490000
672.148284	2235.570000
674.459185	2252.070000
676.767493	2257.750000
679.075213	2299.910000
681.384348	2318.960000
683.688890	2350.970000
685.992845	2369.310000
688.296215	2391.040000
690.600999	2425.240000
692.901197	2427.780000
695.202809	2473.200000
697.503837	2483.720000
699.800282	2504.670000
702.098143	2538.170000
704.395420	2549.040000
706.692114	2590.410000
708.984232	2608.090000
711.279761	2629.980000
713.570717	2670.690000
715.863087	2676.790000
718.152881	2710.280000
720.442096	2718.360000
722.730730	2751.880000
725.016793	2772.450000
727.304269	2798.620000
729.589175	2815.720000
731.873502	2853.510000
734.155261	2865.360000
736.438434	2874.580000
738.721030	2915.840000
740.999071	2944.230000
743.278525	2963.490000
745.557404	2997.080000
747.835707	3030.520000
750.109461	3046.650000
752.384629	3066.270000
754.659223	3112.900000
756.931258	3115.920000
759.204705	3175.800000
761.475595	3185.140000
763.743929	3201.800000
766.013676	3222.900000
768.280869	3257.960000
770.547491	3284.430000
772.813544	3318.830000
775.077044	3330.550000
777.341958	3344.500000
779.606302	3368.720000
781.866117	3392.720000
784.127345	3412.040000
786.388005	3428.940000
788.646118	3457.110000
790.901687	3471.630000
793.160647	3487.470000
795.413108	3501.940000
797.670936	3520.990000
799.924244	3523.560000
802.175013	3549.470000
804.427194	3537.500000
806.676837	3571.930000
808.927891	3570.350000
811.174434	3581.700000
813.422389	3608.540000
815.667810	3635.960000
817.914642	3643.260000
820.160913	3661.650000
822.402680	3677.070000
824.647829	3702.190000
826.886506	3718.130000
829.128566	3733.590000
831.366127	3766.890000
833.605099	3811.980000
835.841545	3806.980000
838.079402	3832.250000
840.314735	3866.810000
842.547543	3943.210000
844.781763	3973.830000
847.013461	4018.140000
849.244604	4066.410000
851.475192	4127.330000
853.705226	4206.510000
855.934705	4256.210000
858.159703	4312.980000
860.388076	4403.660000
862.611970	4451.630000
864.837274	4539.850000
867.058103	4638.660000
869.282304	4704.150000
871.502032	4776.190000
873.723171	4866.690000
875.943759	4987.760000
878.161837	5071.740000
880.381326	5157.900000
882.596348	5229.830000
884.810822	5285.410000
887.024749	5362.400000
889.238128	5394.910000
891.450960	5429.010000
893.663246	5450.060000
895.873029	5497.190000
898.082267	5477.560000
900.290960	5475.720000
902.497154	5443.370000
904.704757	5410.040000
906.909863	5352.530000
909.114425	5304.090000
911.316491	5238.400000
913.519967	5131.590000
915.720949	5030.280000
917.921390	4911.720000
920.123239	4798.140000
922.318696	4667.570000
924.517513	4559.610000
926.711891	4429.470000
928.909627	4272.350000
931.102927	4174.650000
933.297636	4089.130000
935.489859	3974.680000
937.681544	3892.180000
939.872691	3815.240000
942.061355	3762.220000
944.249482	3726.260000
946.435129	3670.130000
948.624128	3666.380000
950.808704	3636.920000
952.992745	3624.880000
955.180136	3603.850000
957.359223	3617.800000
959.541661	3625.040000
961.723565	3607.940000
963.902995	3619.910000
966.079952	3630.480000
968.258316	3617.770000
970.438088	3615.310000
972.611511	3589.730000
974.788280	3567.990000
976.960643	3551.820000
979.134412	3496.080000
981.303778	3437.760000
983.476489	3423.130000
985.646733	3377.350000
987.816449	3291.850000
989.985636	3236.140000
992.150426	3182.380000
994.318557	3138.570000
996.482294	3082.340000
998.647437	3015.540000
1000.810122	2968.870000
1002.972280	2898.090000
1005.131982	2883.660000
1007.291160	2785.780000
1009.451744	2752.330000
1011.609873	2698.670000
1013.767478	2655.000000
1015.924560	2587.930000
1018.081119	2549.700000
1020.233298	2514.650000
1022.386883	2459.320000
1024.539947	2430.570000
1026.690563	2405.130000
1028.842584	2376.890000
1030.990232	2336.210000
1033.141212	2315.590000
1035.287821	2273.970000
1037.433912	2254.950000
1039.579483	2231.850000
1041.726460	2204.780000
1043.867149	2185.940000
1046.011166	2141.160000
1048.152743	2140.600000
1050.293804	2109.410000
1052.436269	2086.160000
1054.572455	2080.030000
1056.711967	2052.880000
1058.847123	2018.750000
1060.985604	2004.080000
1063.119731	1978.080000
1065.253345	1958.590000
1067.388364	1923.830000
1069.519033	1916.050000
1071.651107	1905.710000
1073.780752	1869.900000
1075.909885	1852.590000
1078.038506	1807.160000
1080.166616	1800.620000
1082.292300	1763.780000
1084.417474	1744.180000
1086.544052	1716.820000
1088.666293	1675.170000
1090.789937	1650.430000
1092.909248	1614.970000
1095.033787	1585.780000
1097.152081	1542.970000
1099.271780	1510.300000
1101.389060	1480.650000
1103.505834	1438.970000
1105.622101	1411.430000
1107.735953	1371.250000
1109.851208	1336.000000
1111.962141	1304.000000
1114.076385	1265.970000
1116.186309	1245.750000
1118.297637	1199.300000
1120.408460	1166.750000
1122.514968	1143.220000
1124.624784	1123.930000
1126.730286	1089.360000
1128.837191	1062.430000
1130.937881	1023.940000
1133.043783	1005.620000
1135.145376	977.770000
1137.248372	962.990000
1139.350867	923.870000
1141.447155	895.630000
1143.548651	873.860000
1145.645844	854.250000
1147.742538	824.950000
1149.838734	816.620000
1151.934433	792.670000
1154.029634	765.820000
1156.122438	747.910000
1158.216644	742.370000
1160.304659	710.120000
1162.397872	691.590000
1164.484897	671.880000
1166.575221	662.000000
1168.661258	646.390000
1170.750592	620.850000
1172.833745	611.990000
1174.918301	595.790000
1177.004257	581.990000
1179.085932	572.480000
1181.169009	558.140000
1183.249700	548.370000
1185.329899	533.790000
1187.409607	515.860000
1189.488824	508.410000
1191.565659	502.360000
1193.640113	482.820000
1195.717859	480.820000
1197.791334	467.940000
1199.866210	458.370000
1201.936819	460.350000
1204.008830	451.680000
1206.078464	445.240000
1208.149499	435.980000
1210.220046	436.190000
1212.286332	427.240000
1214.354019	424.820000
1216.419334	421.590000
1218.486049	416.230000
1220.548508	411.140000
1222.614252	404.340000
1224.675743	406.850000
1226.738633	404.070000
1228.799156	405.300000
1230.859195	390.030000
1232.918752	393.180000
1234.975943	382.540000
1237.032653	390.770000
1239.087000	384.980000
1241.144627	386.790000
1243.199892	380.440000
1245.250916	375.550000
1247.303340	384.690000
1249.355284	373.120000
1251.404870	376.390000
1253.453977	377.550000
1255.502606	376.070000
1257.550756	372.620000
1259.598428	373.240000
1261.641869	368.240000
1263.688585	367.430000
1265.732948	367.260000
1267.776835	368.490000
1269.818371	367.900000
1271.857557	355.430000
1273.900015	360.340000
1275.938251	358.260000
1277.977886	358.290000
1280.017046	361.260000
1282.051987	351.920000
1284.088328	354.020000
1286.122323	351.810000
1288.157717	352.810000
1290.188897	349.350000
1292.221476	348.500000
1294.253582	348.980000
1296.283348	353.680000
1298.314512	349.720000
1300.341468	353.590000
1302.369822	349.530000
1304.393972	351.590000
1306.421386	344.310000
1308.444598	342.330000
1310.469208	347.700000
1312.491484	351.830000
1314.515157	353.910000
1316.536497	349.110000
1318.557369	352.750000
1320.577775	347.240000
1322.593986	353.980000
1324.611596	349.600000
1326.626877	355.020000
1328.645416	351.690000
1330.659767	356.530000
1332.671792	360.210000
1334.687074	358.730000
1336.698171	358.090000
1338.710665	363.330000
1340.718976	358.330000
1342.730543	358.400000
1344.736070	355.210000
1346.744853	357.790000
1348.749458	351.890000
1350.757317	362.420000
1352.764714	357.760000
1354.766080	358.630000
1356.768843	357.500000
1358.771145	362.520000
1360.772988	355.410000
1362.774371	362.440000
1364.773441	360.690000
1366.772052	361.150000
1368.770205	364.090000
1370.767900	357.220000
1372.761431	355.190000
1374.756359	358.970000
1376.750830	356.810000
1378.744844	356.020000
1380.736551	353.600000
1382.727802	358.240000
1384.716748	353.340000
1386.707089	350.470000
1388.696975	345.400000
1390.684558	354.240000
1392.671686	344.110000
1394.656514	353.030000
1396.642735	344.310000
1398.626657	344.680000
1400.610126	353.360000
1402.593143	347.220000
1404.573861	339.680000
1406.555975	343.460000
1408.535791	346.550000
1410.515157	341.580000
1412.490383	340.310000
1414.468849	336.670000
1416.445020	337.520000
1418.420743	341.200000
1420.396016	337.570000
1422.368998	335.690000
1424.341532	332.930000
1426.313619	328.190000
1428.285257	323.180000
1430.252767	327.990000
1432.225352	324.900000
1434.190130	323.660000
1436.159981	327.960000
1438.125707	319.430000
1440.092826	321.270000
1442.057662	320.910000
1444.018379	314.550000
1445.984163	322.950000
1447.943992	312.160000
1449.905214	317.380000
1451.867829	309.850000
1453.826329	317.600000
1455.784387	310.010000
1457.742002	314.620000
1459.699176	305.200000
1461.654074	305.790000
1463.610364	306.700000
1465.564380	303.250000
1467.517956	302.850000
1469.469259	310.880000
1471.421954	303.390000
1473.372378	299.900000
1475.322363	295.070000
1477.271908	306.060000
1479.219185	295.150000
1481.164195	300.110000
1483.110596	297.230000
1485.056561	301.830000
1487.002087	291.360000
1488.945349	295.340000
1490.888174	299.310000
1492.828736	295.970000
1494.770689	295.140000
1496.710381	292.900000
1498.649637	284.590000
1500.588458	292.470000
1502.525020	294.300000
1504.462973	289.680000
1506.398668	289.860000
1508.333929	291.770000
1510.266933	288.940000
1512.199505	285.340000
1514.131645	289.040000
1516.063353	286.070000
1517.992807	294.510000
1519.923652	292.730000
1521.854066	290.630000
1523.780406	284.600000
1525.708138	280.090000
1527.633619	285.040000
1529.558671	284.250000
1531.483294	285.550000
1533.407488	281.140000
1535.329435	285.990000
1537.252771	278.760000
1539.173862	286.590000
1541.092708	281.520000
1543.012944	281.790000
1544.930936	275.400000
1546.848502	274.670000
1548.763826	275.930000
1550.680540	281.510000
1552.593199	276.940000
1554.509062	283.260000
1556.422685	269.910000
1558.334071	271.830000
1560.246845	271.190000
1562.155570	270.930000
1564.065685	267.860000
1565.975376	269.250000
1567.884643	274.300000
1569.791677	272.490000
1571.696478	264.570000
1573.602668	277.520000
1575.506626	274.920000
1577.410164	273.660000
1579.313280	271.030000
1581.214168	274.070000
1583.116443	270.410000
1585.016491	273.850000
1586.917926	265.890000
1588.815328	261.850000
1590.712311	268.600000
1592.608876	260.130000
1594.506829	267.570000
1596.398947	269.130000
1598.294258	264.580000
1600.189152	265.870000
1602.081824	260.770000
1603.974080	263.960000
1605.864115	263.090000
1607.753736	261.000000
1609.642940	261.490000
1611.531730	264.970000
1613.418303	260.720000
1615.306262	261.000000
1617.190205	256.470000
1619.075536	263.410000
1620.960452	263.390000
1622.843155	256.910000
1624.727245	256.490000
1626.607324	260.100000
1628.488789	260.500000
1630.368044	257.080000
1632.248685	254.310000
1634.123522	258.900000
1636.003341	253.440000
1637.879154	258.410000
1639.754557	250.210000
1641.631347	249.860000
1643.502339	254.420000
1645.376513	258.240000
1647.246689	249.240000
1649.120045	252.930000
1650.991198	248.970000
1652.860149	249.620000
1654.730486	245.160000
1656.596829	253.410000
1658.464558	249.760000
1660.330089	251.050000
1662.197004	241.050000
1664.059931	251.000000
1665.924243	248.340000
1667.786359	252.670000
1669.648071	240.550000
1671.511167	247.550000
1673.372069	251.730000
1675.230777	250.340000
1677.089082	243.100000
1678.948772	243.320000
1680.802695	242.570000
1682.659790	244.040000
1684.516483	242.650000
1686.369200	242.650000
1688.225087	242.720000
1690.077001	242.150000
1691.928514	240.870000
1693.779626	241.300000
1695.630338	244.690000
1697.480649	243.320000
1699.328776	242.260000
1701.178286	236.810000
1703.022048	239.420000
1704.870759	242.160000
1706.713725	241.210000
1708.559856	245.380000
1710.402026	239.670000
1712.247360	244.950000
1714.086954	239.360000
1715.927932	237.450000
1717.770293	238.130000
1719.608698	241.350000
1721.448486	236.490000
1723.286099	236.360000
1725.123316	231.550000
1726.958360	235.200000
1728.794787	237.880000
1730.629042	241.200000
1732.462902	235.500000
1734.296369	240.500000
1736.125889	235.680000
1737.958568	239.670000
1739.787303	234.620000
1741.619196	232.860000
1743.447146	233.380000
1745.274704	232.120000
1747.101870	232.380000
1748.928645	240.960000
1750.755029	225.830000
1752.577476	234.300000
1754.403077	233.060000
1756.224744	233.380000
1758.047793	235.120000
1759.868681	235.170000
1761.689179	227.580000
1763.511059	234.530000
1765.327239	234.320000
1767.146571	236.330000
1768.961976	232.500000
1770.780531	235.270000
1772.595161	235.140000
1774.409405	238.700000
1776.223261	229.560000
1778.036731	234.650000
1779.848048	231.020000
1781.660746	228.860000
1783.473057	233.650000
1785.281451	234.360000
1787.091226	229.480000
1788.897085	229.840000
1790.706090	235.810000
1792.511182	235.740000
1794.317655	223.040000
1796.123744	232.550000
1797.925923	227.440000
1799.731245	229.010000
1801.532659	231.920000
1803.335453	229.570000
1805.134341	235.330000
1806.934610	231.590000
1808.734497	227.090000
1810.532243	229.110000
1812.329607	228.570000
1814.126592	232.000000
1815.923196	227.790000
1817.717661	228.630000
1819.513505	226.400000
1821.303695	228.760000
1823.098781	224.040000
1824.888214	226.320000
1826.680784	227.040000
1828.471219	225.330000
1830.259520	226.970000
1832.050956	225.400000
1833.836746	228.340000
1835.623916	226.920000
1837.408954	222.420000
1839.197126	226.270000
1840.981412	224.130000
1842.763569	220.690000
1844.547104	218.260000
1846.328511	228.050000
1848.111297	222.320000
1849.890203	223.060000
1851.670487	220.420000
1853.448645	226.290000
1855.228182	220.520000
1857.005594	226.960000
1858.780882	227.160000
1860.557549	225.570000
1862.332092	218.810000
1864.108014	226.740000
1865.878316	220.960000
1867.651744	226.890000
1869.423053	225.490000
1871.193992	225.640000
1872.966307	222.670000
1874.733010	220.250000
1876.502837	224.960000
1878.268801	226.970000
1880.037889	221.230000
1881.803115	226.510000
1883.567972	228.830000
1885.334207	224.280000
1887.096583	223.650000
1888.858592	221.640000
1890.620233	225.150000
1892.381508	218.810000
1894.142415	217.660000
1895.902956	220.060000
1897.661387	219.970000
1899.419453	223.070000
1901.175410	211.690000
1902.932745	221.800000
1904.689713	214.990000
1906.444576	223.980000
1908.197333	217.670000
1909.949727	218.500000
1911.703496	216.620000
1913.455162	218.380000
1915.204726	211.960000
1916.955666	214.480000
1918.706242	220.620000
1920.452979	224.170000
1922.201093	222.020000
1923.947107	215.450000
1925.694497	211.160000
1927.439788	216.470000
1929.182982	213.130000
1930.927552	218.520000
1932.670025	212.800000
1934.412138	226.990000
1936.153891	213.760000
1937.895285	218.050000
1939.634585	214.410000
1941.373525	219.150000
1943.112108	215.640000
1944.848598	216.710000
1946.584731	218.570000
1948.322238	220.430000
1950.055923	221.040000
1951.790983	217.490000
1953.523955	213.240000
1955.256570	216.340000
1956.988828	219.080000
1958.720730	215.150000
1960.450546	215.460000
1962.178278	217.330000
1963.907383	217.810000
1965.636134	212.390000
1967.362801	222.640000
1969.089114	220.340000
1970.816800	223.410000
1972.538950	218.820000
1974.264201	217.920000
1975.985646	214.430000
1977.710190	222.720000
1979.432655	217.230000
1981.151316	217.570000
1982.873076	216.340000
1984.591034	221.100000
1986.310365	218.290000
1988.025897	220.510000
1989.746250	223.260000
1991.462803	212.390000
1993.175561	213.460000
1994.891414	219.990000
1996.605194	217.250000
1998.318625	216.900000
2000.029985	219.990000
2001.742718	215.340000
2003.451659	214.790000
2005.163694	226.630000
2006.870219	219.670000
2008.579837	217.320000
2010.287387	225.580000
2011.994590	218.920000
2013.699727	223.000000
2015.404517	216.280000
2017.110679	216.910000
2018.813059	219.500000
2020.516811	220.920000
2022.218499	222.170000
2023.919843	225.120000
2025.620841	219.030000
2027.319779	216.240000
2029.020087	221.180000
2030.716621	212.890000
2032.414526	225.630000
2034.110372	218.880000
2035.809304	215.740000
2037.502750	217.980000
2039.197568	215.890000
2040.892042	215.350000
2042.582748	220.440000
2044.276538	222.030000
2045.966561	220.930000
2047.657955	213.790000
2049.347296	220.930000
2051.038007	214.000000
2052.724956	207.740000
2054.411564	218.070000
2056.099543	214.360000
2057.783762	217.440000
2059.469351	212.820000
2061.154601	215.580000
2062.837803	213.130000
2064.522374	216.470000
2066.201483	206.580000
2067.885377	210.660000
2069.563811	210.310000
2071.245321	213.660000
2072.923081	216.050000
2074.600503	222.270000
2076.279296	209.890000
2077.956045	212.710000
2079.630753	208.960000
2081.306830	210.420000
2082.980867	214.180000
2084.654568	213.310000
2086.327934	214.300000
2087.999262	211.550000
2089.670255	209.390000
2091.340914	211.340000
2093.011238	203.860000
2094.681229	215.200000
2096.349184	210.090000
2098.016806	211.580000
2099.682393	208.170000
2101.349350	216.990000
2103.014272	212.120000
2104.678863	207.290000
2106.341422	212.100000
2108.005349	208.460000
2109.667246	210.990000
2111.328811	208.900000
2112.990045	214.550000
2114.649251	215.380000
2116.308126	204.730000
2117.966672	216.790000
2119.624888	214.850000
2121.279380	218.570000
2122.936937	217.880000
2124.594165	215.630000
2126.247671	214.240000
2127.902545	215.960000
2129.553701	208.350000
2131.207918	213.930000
2132.858419	205.090000
2134.510286	213.980000
2136.156745	218.090000
2137.807959	211.960000
2139.455459	211.100000
2141.104326	216.500000
2142.751175	211.970000
2144.397697	212.380000
2146.043894	209.920000
2147.686383	214.860000
2149.331930	208.630000
2150.973770	214.670000
2152.618667	214.350000
2154.259859	204.560000
2155.900727	205.930000
2157.541271	208.300000
2159.179803	208.150000
2160.819702	213.680000
2162.455900	209.410000
2164.093464	205.820000
2165.730705	205.420000
2167.365937	201.550000
2169.000848	210.110000
2170.635437	202.650000
2172.269704	204.840000
2173.900279	206.810000
2175.533904	205.040000
2177.163838	205.850000
2178.795137	205.170000
2180.424432	209.440000
2182.053406	204.520000
2183.682062	207.010000
2185.310398	206.850000
2186.936731	212.950000
2188.562746	202.790000
2190.186760	206.170000
2191.812138	203.960000
2193.435517	206.370000
2195.060259	206.050000
2196.681321	205.030000
2198.302066	201.990000
2199.924176	205.170000
2201.544288	199.560000
2203.162403	199.860000
2204.780203	200.310000
2206.397688	202.210000
2208.014857	203.750000
2209.631711	202.000000
2211.248250	204.370000
2212.862795	206.870000
2214.475348	203.320000
2216.089265	202.060000
2217.701191	199.990000
2219.314480	210.600000
2220.925779	206.670000
2222.535088	204.790000
2224.145761	204.940000
2225.754445	203.080000
2227.362817	203.910000
2228.969201	204.920000
2230.576949	207.760000
2232.182710	194.030000
2233.788160	201.620000
2235.391625	203.560000
2236.996454	193.630000
2238.599298	208.690000
2240.200159	196.760000
2241.802383	202.030000
2243.402624	204.630000
2245.004228	203.430000
2246.602180	195.840000
2248.201494	201.940000
2249.798828	200.840000
2251.395853	200.110000
2252.994241	203.960000
2254.588980	198.560000
2256.181742	196.130000
2257.775867	205.380000
2259.371353	201.400000
2260.963195	207.130000
2262.554730	193.220000
2264.147626	203.220000
2265.735213	203.560000
2267.327497	204.900000
2268.914473	202.360000
2270.504478	195.020000
2272.089178	201.260000
2273.678572	201.150000
2275.262663	195.020000
2276.848116	200.360000
2278.431599	196.700000
2280.018109	201.730000
2281.600985	199.610000
2283.183557	191.990000
2284.765826	197.450000
2286.344466	197.250000
2287.926129	193.460000
2289.504164	198.620000
2291.085222	194.660000
2292.662654	195.040000
2294.238121	195.420000
2295.816611	188.820000
2297.391477	197.780000
2298.966042	191.380000
2300.540307	195.210000
2302.114271	192.540000
2303.687935	193.640000
2305.261298	193.420000
2306.831043	192.040000
2308.400489	195.770000
2309.972954	193.800000
2311.540143	196.860000
2313.110351	193.010000
2314.676944	197.670000
2316.244897	187.770000
2317.810894	194.330000
2319.376594	189.280000
2320.941997	200.240000
2322.505445	197.430000
2324.070253	205.690000
2325.631453	204.270000
2327.195667	207.320000
2328.754620	208.740000
2330.316586	206.140000
2331.876602	202.100000
2333.436322	195.760000
2334.994093	200.850000
2336.551569	195.040000
2338.108751	199.240000
2339.663986	203.010000
2341.218926	194.540000
2342.773573	199.850000
2344.327926	205.160000
2345.881985	205.380000
2347.435750	200.260000
2348.987572	203.750000
2350.537450	196.670000
2352.090336	202.840000
2353.637980	206.290000
2355.188631	196.550000
2356.735692	199.620000
2358.284110	201.150000
2359.832236	196.550000
2361.376774	197.430000
2362.922671	202.870000
2364.466628	198.550000
2366.011943	191.620000
2367.553673	197.640000
2369.096760	201.090000
2370.637912	203.360000
2372.178774	199.200000
2373.719347	201.900000
2375.259631	208.440000
2376.799625	203.730000
2378.336042	200.790000
2379.875460	202.800000
2381.411301	202.130000
2382.948498	205.770000
2384.482120	207.550000
2386.018743	201.380000
2387.553434	210.740000
2389.086196	204.720000
2390.618671	194.320000
2392.149219	207.940000
2393.682764	203.060000
2395.211098	204.890000
2396.740788	209.120000
2398.270193	199.720000
2399.799312	202.170000
2401.328147	208.170000
2402.851776	200.820000
2404.380042	206.920000
2405.903104	205.960000
2407.430800	208.190000
2408.951657	204.640000
2410.477147	209.670000
2411.999076	203.590000
2413.522361	205.100000
2415.043725	205.940000
2416.563169	206.540000
2418.083968	208.270000
2419.602848	208.350000
2421.121446	209.270000
2422.638127	211.470000
2424.156162	207.280000
2425.673916	205.760000
2427.188119	204.880000
2428.702041	203.250000
2430.215683	202.000000
2431.730680	209.580000
2433.242128	201.880000
2434.754931	216.450000
2436.265821	205.060000
2437.776431	208.010000
2439.285130	202.310000
2440.796816	202.850000
2442.304957	198.760000
2443.812821	202.330000
2445.320407	204.920000
2446.824452	205.820000
2448.331483	203.630000
2449.836605	204.450000
2451.341450	203.470000
2452.844388	203.550000
2454.347049	195.810000
2455.849434	204.300000
2457.349914	194.350000
2458.851747	200.250000
2460.351676	201.390000
2461.851329	202.750000
2463.350706	199.880000
2464.848181	203.400000
2466.343755	200.090000
2467.842308	194.210000
2469.337332	199.540000
2470.833710	196.030000
2472.326561	190.040000
2473.820764	198.430000
2475.314694	194.110000
2476.805101	197.220000
2478.298484	199.530000
2479.789970	199.600000
2481.279559	195.040000
2482.768876	194.970000
2484.256298	196.670000
2485.746695	197.900000
2487.233573	194.680000
2488.721803	196.350000
2490.206517	197.940000
2491.690960	197.440000
2493.176755	193.490000
2494.660657	194.420000
2496.145911	197.910000
2497.626031	198.590000
2499.109123	195.300000
2500.590325	195.470000
2502.071258	196.740000
2503.550302	203.360000
2505.029077	192.950000
2506.507584	202.030000
2507.985823	200.140000
2509.463793	198.960000
2510.938259	197.240000
2512.415693	195.110000
2513.889624	196.480000
2515.364906	202.000000
2516.839920	195.570000
2518.311433	202.580000
2519.784296	201.770000
2521.255277	196.960000
2522.727608	195.180000
2524.194826	205.880000
2525.665009	195.820000
2527.133312	201.540000
2528.601350	199.470000
2530.069123	202.040000
2531.536631	191.800000
2533.003874	203.200000
2534.467625	202.410000
2535.932726	199.300000
2537.395950	201.840000
2538.860524	201.210000
2540.321608	198.540000
2541.784042	204.570000
2543.246213	197.790000
2544.704898	202.690000
2546.168155	202.080000
2547.626315	200.780000
2549.085824	203.700000
2550.540240	197.460000
2551.999225	198.550000
2553.456339	199.250000
2554.911582	198.120000
2556.366564	201.410000
2557.819676	203.760000
2559.274137	202.560000
2560.726729	197.470000
2562.179061	197.060000
2563.629525	203.240000
2565.082945	205.130000
2566.531283	200.230000
2567.982577	202.020000
2569.432004	202.440000
2570.877959	199.640000
2572.326870	204.620000
2573.772309	197.070000
2575.219097	199.320000
2576.664021	194.450000
2578.108688	199.230000
2579.554702	200.350000
2580.997249	197.850000
2582.441144	197.960000
2583.881574	195.770000
2585.323351	200.190000
2586.763269	194.500000
2588.204534	201.440000
2589.642338	195.470000
2591.083091	199.360000
2592.518781	192.040000
2593.957421	202.220000
2595.394204	197.920000
2596.829130	197.960000
2598.267005	195.050000
2599.699821	198.840000
2601.133985	197.570000
2602.566295	199.410000
2603.999951	202.280000
2605.431754	192.930000
2606.863304	195.120000
2608.294600	196.090000
2609.724044	199.900000
2611.153237	194.910000
2612.580578	202.840000
2614.009266	195.930000
2615.437701	199.560000
2616.862689	200.080000
2618.289024	195.400000
2619.713510	201.790000
2621.139342	196.860000
2622.561730	203.560000
2623.985464	196.720000
2625.407351	197.830000
2626.828989	194.940000
2628.248781	194.120000
2629.669919	195.530000
2631.090807	193.100000
2632.508257	191.470000
2633.928646	196.620000
2635.345598	200.440000
2636.762302	197.900000
2638.178757	196.810000
2639.594964	193.810000
2641.010922	195.050000
2642.425040	200.130000
2643.838911	200.630000
2645.250942	190.410000
2646.664318	192.290000
2648.074264	198.020000
2649.487145	194.790000
2650.896599	202.250000
2652.305806	199.560000
2653.713177	202.280000
2655.123482	189.830000
2656.531951	195.270000
2657.938585	194.240000
2659.344974	193.720000
2660.749529	191.500000
2662.155428	199.400000
2663.559494	199.530000
2664.963316	200.770000
2666.366893	191.560000
2667.768638	193.130000
2669.171727	201.730000
2670.571399	197.590000
2671.972413	194.310000
2673.370012	197.720000
2674.770541	193.900000
2676.167655	196.880000
2677.566112	198.520000
2678.962741	198.230000
2680.359128	194.520000
2681.755274	197.460000
2683.149593	193.560000
2684.545255	193.390000
2685.937507	195.160000
2687.331103	194.790000
2688.722874	196.420000
2690.115987	196.350000
2691.507277	194.330000
2692.896744	190.000000
2694.285971	195.370000
2695.674959	196.150000
2697.065289	191.700000
2698.450634	197.940000
2699.838903	186.560000
2701.225352	187.970000
2702.611562	195.060000
2703.997534	197.590000
2705.380106	192.490000
2706.764021	201.370000
2708.147698	194.560000
2709.531137	192.350000
2710.911180	191.840000
2712.292565	196.740000
2713.672134	196.250000
2715.053045	189.750000
2716.432141	193.000000
2717.809422	190.490000
2719.188045	198.750000
2720.564855	199.010000
2721.941429	194.500000
2723.317767	194.800000
2724.692293	199.960000
2726.068160	197.480000
2727.440640	194.240000
2728.816036	199.990000
2730.186472	195.010000
2731.558249	193.030000
2732.929791	192.420000
2734.299525	194.890000
2735.670600	195.640000
2737.039867	197.490000
2738.408900	192.290000
2739.776126	199.020000
2741.143120	191.870000
2742.509881	195.700000
2743.876409	196.520000
2745.241132	197.270000
2746.605624	195.120000
2747.969883	192.120000
2749.333910	195.700000
2750.697706	197.210000
2752.058128	198.730000
2753.421461	201.090000
2754.779851	194.770000
2756.141151	196.020000
2757.499080	193.160000
2758.859919	195.190000
2760.218957	189.890000
2761.574627	197.210000
2762.933205	194.330000
2764.288417	193.960000
2765.643399	191.350000
2766.996584	194.330000
2768.352676	187.120000
2769.705404	193.340000
2771.057903	192.840000
2772.410174	192.230000
2773.763784	191.000000
2775.114032	190.600000
2776.462487	190.800000
2777.813846	192.820000
2779.161846	188.370000
2780.511185	193.950000
2781.858731	185.350000
2783.206050	189.250000
2784.553143	185.260000
2785.898445	193.230000
2787.243521	187.750000
2788.588371	188.740000
2789.932994	189.330000
2791.274266	190.870000
2792.616876	191.200000
2793.959260	188.970000
2795.301420	191.480000
2796.640230	190.040000
2797.981939	187.700000
2799.320301	186.750000
2800.660000	193.430000
2801.997913	190.630000
2803.334042	185.400000
2804.669947	189.660000
2806.007190	193.190000
2807.342649	187.880000
2808.677885	188.530000
2810.011338	190.990000
2811.346129	188.050000
2812.677578	186.040000
2814.011923	192.550000
2815.341370	196.540000
2816.672154	195.520000
2818.002716	191.300000
2819.331499	192.840000
2820.661618	189.660000
2821.989959	188.240000
2823.318079	195.420000
2824.644422	183.850000
2825.972100	193.060000
2827.296446	188.590000
2828.622127	190.290000
2829.946033	189.570000
2831.269720	190.550000
2832.594742	187.690000
2833.916434	192.510000
2835.237908	192.640000
2836.559163	195.080000
2837.880199	188.410000
2839.199463	189.980000
2840.520062	190.810000
2841.838889	191.470000
2843.157498	191.660000
2844.474336	188.750000
2845.790958	188.720000
2847.107361	197.170000
2848.421996	185.940000
2849.737965	194.200000
2851.050614	184.660000
2852.364599	189.680000
2853.678366	187.370000
2854.991918	192.080000
2856.303702	187.290000
2857.613720	191.120000
2858.925073	190.470000
2860.233111	193.020000
2861.542484	192.740000
2862.851641	195.460000
2864.160583	189.690000
2865.467762	196.790000
2866.773177	187.940000
2868.079927	189.720000
2869.384914	196.470000
2870.689688	192.560000
2871.992700	192.420000
2873.298594	192.820000
2874.599632	186.390000
2875.902005	193.450000
2877.202618	190.990000
2878.504565	194.120000
2879.806299	196.270000
2881.104728	194.400000
2882.404492	186.890000
2883.702497	194.400000
2885.000291	196.270000
2886.296329	189.450000
2887.593700	186.530000
2888.889315	192.570000
2890.184719	198.460000
2891.479913	190.210000
2892.771808	190.310000
2894.066580	198.470000
2895.358055	196.700000
2896.650863	196.230000
2897.943461	190.800000
2899.232765	190.740000
2900.523401	187.700000
2901.812286	192.930000
2903.102504	192.870000
2904.389430	192.570000
2905.677688	188.170000
2906.964196	190.090000
2908.250497	193.140000
2909.536589	191.210000
2910.820933	194.510000
2912.108149	196.770000
2913.390537	190.390000
2914.674258	191.600000
2915.956233	191.270000
2917.238001	190.480000
2918.518023	190.950000
2919.800915	196.900000
2921.082062	193.680000
2922.359927	200.510000
2923.640661	190.030000
2924.918114	194.260000
2926.195361	187.630000
2927.470867	192.020000
2928.749240	194.290000
2930.022798	190.350000
2931.299224	183.530000
2932.573909	189.290000
2933.846854	192.840000
2935.121129	196.900000
2936.393665	190.910000
2937.665997	197.720000
2938.935055	190.780000
2940.206979	196.830000
2941.477165	188.920000
2942.747148	187.710000
2944.016927	183.720000
2945.284969	188.930000
2946.551276	185.170000
2947.817380	189.230000
2949.084814	190.520000
2950.350514	190.160000
2951.616011	193.510000
2952.881306	193.320000
2954.143336	191.420000
2955.406697	190.650000
2956.669855	189.590000
2957.931282	194.980000
2959.194038	185.770000
2960.455063	187.280000
2961.714356	197.070000
2962.973450	192.210000
2964.232343	190.140000
2965.491036	197.240000
2966.749529	188.840000
2968.006293	190.900000
2969.262857	189.460000
2970.517694	191.030000
2971.773860	191.290000
2973.026770	186.930000
2974.281010	188.000000
2975.535051	190.310000
2976.787366	188.790000
2978.039483	186.470000
2979.289875	187.260000
2980.543122	191.320000
2981.791592	191.220000
2983.042916	196.400000
2984.290992	192.290000
2985.538870	192.620000
2986.786551	185.440000
2988.034036	195.530000
2989.279799	192.290000
2990.525365	191.780000
2991.772259	184.180000
2993.015909	191.810000
2994.260887	189.690000
2995.502622	184.320000
2996.747208	192.700000
2997.990074	190.150000
2999.229700	190.410000
3000.472176	192.150000
3001.711413	193.910000
3002.951977	190.080000
3004.190824	192.180000
3005.429477	189.430000
3006.666414	191.350000
3007.904678	186.470000
3009.141228	184.990000
3010.377583	194.180000
3011.613745	186.850000
3012.848194	199.140000
3014.082449	191.140000
3015.316511	191.840000
3016.548861	193.750000
3017.779499	191.880000
3019.012983	189.230000
3020.244755	190.700000
3021.474817	198.150000
3022.704687	196.700000
3023.932847	186.430000
3025.162333	194.640000
3026.390111	195.370000
3027.617697	191.710000
3028.846609	191.340000
3030.070779	195.370000
3031.297792	189.090000
3032.521581	190.620000
3033.746697	194.290000
3034.970106	190.710000
3036.193326	190.100000
3037.414840	191.890000
3038.639195	183.060000
3039.858815	192.710000
3041.079760	192.040000
3042.300517	188.850000
3043.519570	194.110000
3044.739949	189.560000
3045.957111	186.510000
3047.175598	194.430000
3048.392384	193.910000
3049.608981	194.090000
3050.825390	193.190000
3052.038587	190.970000
3053.254621	189.610000
3054.467443	184.960000
3055.683102	196.700000
3056.894038	193.300000
3058.106299	196.440000
3059.318374	200.680000
3060.530262	189.740000
3061.740452	191.980000
3062.950456	192.400000
3064.160275	190.080000
3065.368397	188.330000
3066.576333	191.330000
3067.782575	196.630000
3068.990140	195.150000
3070.196012	194.665000
3071.401698	194.180000
3072.607199	191.080000
3073.811007	197.420000
3075.016139	187.090000
3076.219579	188.460000
3077.421326	195.320000
3078.622890	190.060000
3079.824270	192.360000
3081.025466	189.990000
3082.224972	192.290000
3083.424294	194.510000
3084.624940	191.900000
3085.823896	198.080000
3087.019658	188.020000
3088.218249	190.040000
3089.413646	189.260000
3090.610366	192.460000
3091.803894	193.350000
3093.000251	194.170000
3094.194920	190.550000
3095.386399	194.540000
3096.582209	195.910000
3097.773326	194.890000
3098.965765	195.150000
3100.155017	192.240000
3101.347095	185.150000
3102.537488	191.960000
3103.724696	192.420000
3104.913227	192.110000
3106.103080	189.100000
3107.289748	189.230000
3108.476237	194.550000
3109.662546	192.130000
3110.850177	190.170000
3112.034627	192.030000
3113.217396	193.070000
3114.402989	190.400000
3115.586901	199.580000
3116.769135	191.120000
3117.951190	188.590000
3119.133068	191.290000
3120.314767	194.970000
3121.494788	191.130000
3122.673133	188.260000
3123.854299	190.440000
3125.032289	195.430000
3126.210102	189.370000
3127.387738	184.300000
3128.563699	191.030000
3129.739483	189.960000
3130.916589	191.140000
3132.092020	193.920000
3133.265778	195.410000
3134.437864	190.340000
3135.611270	192.570000
3136.784501	188.360000
3137.956059	196.400000
3139.128939	191.360000
3140.298651	194.350000
3141.469684	199.550000
3142.639046	191.750000
3143.806739	188.690000
3144.977247	197.650000
3146.143096	199.130000
3147.313255	186.400000
3148.478756	188.310000
3149.644084	193.470000
3150.809238	191.340000
3151.974218	195.470000
3153.140519	193.420000
3154.302166	187.320000
3155.465134	187.990000
3156.627928	196.600000
3157.790550	194.230000
3158.951507	192.330000
3160.112291	189.600000
3161.272903	193.310000
3162.431852	186.270000
3163.590628	191.340000
3164.749233	188.770000
3165.907666	183.970000
3167.065927	185.370000
3168.222526	193.490000
3169.377464	195.840000
3170.533721	180.280000
3171.688318	187.300000
3172.842743	190.910000
3173.995509	180.660000
3175.148105	190.280000
3176.300530	186.760000
3177.452786	191.800000
3178.604872	185.170000
3179.753811	187.800000
3180.905557	194.380000
3182.055645	190.240000
3183.204077	186.710000
3184.352340	191.960000
3185.500433	195.480000
3186.648358	195.420000
3187.794628	194.440000
3188.940729	193.320000
3190.085175	193.560000
3191.229454	200.860000
3192.373565	195.430000
3193.518994	196.000000
3194.661283	193.430000
3195.803406	196.690000
3196.945361	198.030000
3198.087150	196.910000
3199.228771	193.900000
3200.367256	195.740000
3201.507059	194.210000
3202.648180	193.060000
3203.786166	197.390000
3204.922503	196.820000
3206.058674	197.940000
3207.196163	195.830000
3208.332002	192.430000
3209.469159	195.320000
3210.601703	191.620000
3211.738529	195.350000
3212.870743	188.680000
3214.004275	194.440000
3215.137641	189.000000
3216.267880	192.800000
3217.400917	197.030000
3218.530828	191.660000
3219.662056	190.750000
3220.790158	195.460000
3221.921057	188.890000
3223.050313	186.480000
3224.177924	185.790000
3225.302414	189.770000
3226.431179	191.700000
3227.556822	190.280000
3228.682302	188.410000
3229.806141	189.530000
3230.932774	192.700000
3232.054810	188.480000
3233.178162	192.890000
3234.301352	196.160000
3235.424380	186.030000
3236.545768	193.040000
3237.666995	194.580000
3238.786583	191.280000
3239.906010	192.470000
3241.023799	194.280000
3242.144381	192.610000
3243.261848	192.160000
3244.379156	188.670000
3245.496302	190.890000
3246.611813	189.070000
3247.728639	196.110000
3248.842354	194.470000
3249.958860	196.100000
3251.073730	195.100000
3252.185492	199.610000
3253.297095	192.220000
3254.410012	198.490000
3255.522771	191.100000
3256.632423	192.730000
3257.743390	195.680000
3258.854197	197.960000
3259.963374	197.010000
3261.070919	201.710000
3262.179779	198.740000
3263.288480	197.510000
3264.394079	190.670000
3265.500992	198.560000
3266.606277	195.070000
3267.712875	200.170000
3268.816373	196.750000
3269.921185	197.440000
3271.025840	197.010000
3272.127396	197.000000
3273.228797	199.540000
3274.331511	198.130000
3275.434068	195.490000
3276.533530	195.260000
3277.635774	205.620000
3278.734923	202.130000
3279.832448	197.210000
3280.929817	198.270000
3282.029969	197.790000
3283.127027	197.340000
3284.223930	199.500000
3285.320679	201.790000
3286.412868	195.820000
3287.509306	199.540000
3288.604123	190.980000
3289.698784	196.580000
3290.791824	195.060000
3291.884710	200.800000
3292.975975	199.490000
3294.068553	198.670000
3295.159510	197.660000
3296.248848	198.770000
3297.338033	195.480000
3298.428531	200.940000
3299.515944	195.010000
3300.603205	194.940000
3301.691778	197.130000
3302.780198	203.740000
3303.864071	193.590000
3304.952186	199.050000
3306.037220	196.360000
3307.120637	195.430000
3308.205367	199.650000
3309.288482	195.700000
3310.372908	197.300000
3311.454256	201.540000
3312.536916	201.010000
3313.617962	200.260000
3314.698857	197.960000
3315.778139	203.740000
3316.857270	207.510000
3317.937712	205.110000
3319.015081	204.300000
3320.093760	203.900000
3321.170829	197.950000
3322.247747	202.440000
3323.323054	198.020000
3324.398212	207.000000
3325.474681	202.890000
3326.548080	204.510000
3327.621330	203.510000
3328.695891	200.180000
3329.768842	203.900000
3330.840186	203.060000
3331.912840	201.220000
3332.982427	194.420000
3334.053325	197.370000
3335.122616	202.190000
3336.193218	192.730000
3337.262213	203.940000
3338.329602	199.780000
3339.395386	199.730000
3340.465396	198.410000
3341.532343	198.550000
3342.596228	196.480000
3343.662881	200.490000
3344.727929	199.860000
3345.791374	202.340000
3346.854673	198.820000
3347.917826	204.810000
3348.980832	199.050000
3350.043691	198.830000
3351.104949	200.630000
3352.163150	200.190000
3353.225572	203.090000
3354.284937	201.970000
3355.344157	202.460000
3356.404687	199.560000
3357.460707	201.510000
3358.519492	202.650000
3359.573769	202.090000
3360.630809	197.150000
3361.686252	205.450000
3362.743003	205.980000
3363.798157	207.870000
3364.851713	202.590000
3365.903672	205.550000
3366.958393	209.580000
3368.010065	200.890000
3369.061594	206.800000
3370.114432	204.730000
3371.164222	204.670000
3372.215320	204.030000
3373.263373	204.450000
3374.314186	204.400000
3375.361953	207.600000
3376.409578	207.220000
3377.457060	203.100000
3378.502950	198.830000
3379.550148	203.950000
3380.594304	200.880000
3381.641218	201.650000
3382.686540	203.250000
3383.728822	204.220000
3384.770962	203.000000
3385.814410	211.250000
3386.857718	203.880000
3387.899435	200.980000
3388.941011	197.370000
3389.982447	205.550000
3391.022293	205.280000
3392.060552	206.190000
3393.100118	205.690000
3394.139543	210.700000
3395.177381	207.250000
3396.213633	200.780000
3397.249744	213.970000
3398.287163	209.870000
3399.321549	202.770000
3400.357242	204.180000
3401.392796	202.290000
3402.425319	207.910000
3403.460595	202.740000
3404.492840	208.540000
3405.524947	212.600000
3406.555470	208.080000
3407.587301	208.570000
3408.618992	206.320000
3409.647657	201.820000
3410.676183	204.680000
3411.706017	205.780000
3412.735712	201.890000
3413.762382	206.220000
3414.790359	209.940000
3415.815311	204.340000
3416.843013	207.560000
3417.867692	206.660000
3418.893677	212.190000
3419.918082	210.830000
3420.942351	205.240000
3421.965041	206.910000
3422.987595	210.670000
3424.011455	211.400000
3425.032295	210.480000
3426.053000	202.620000
3427.075010	201.610000
3428.094002	202.050000
3429.112859	208.480000
3430.133021	202.490000
3431.150167	205.340000
