-118.106446	12.080000
-115.436846	6.580000
-112.770181	5.860000
-110.104268	11.840000
-107.441287	9.010000
-104.776877	11.660000
-102.115397	5.040000
-99.452487	7.420000
-96.794685	7.460000
-94.135452	8.640000
-91.476968	13.740000
-88.821409	4.940000
-86.164421	4.760000
-83.512530	2.420000
-80.859210	9.710000
-78.208810	9.290000
-75.556980	13.160000
-72.910241	4.730000
-70.262072	12.890000
-67.614647	11.220000
-64.970135	7.360000
-62.324195	9.400000
-59.683336	8.110000
-57.041048	6.490000
-54.401668	10.740000
-51.760860	12.240000
-49.120792	7.400000
-46.485796	9.940000
-43.849371	9.150000
-41.215850	9.950000
-38.580900	12.450000
-35.951015	16.520000
-33.317538	9.250000
-30.689123	11.700000
-28.061441	16.390000
-25.432332	11.020000
-22.808279	17.380000
-20.180637	17.490000
-17.558048	29.510000
-14.936191	33.740000
-12.315064	63.870000
-9.694667	139.160000
-7.077158	440.900000
-4.458221	1313.170000
-1.842170	3130.420000
0.773153	3283.630000
3.387749	1622.150000
5.999462	183.190000
8.612604	42.860000
11.220712	19.640000
13.832402	25.720000
16.439061	21.350000
19.047148	17.180000
21.654511	15.650000
24.256849	18.970000
26.862765	19.790000
29.463659	16.400000
32.065981	16.570000
34.663286	18.050000
37.264166	22.520000
39.860032	20.320000
42.457325	18.120000
45.053899	17.670000
47.645464	15.710000
50.238457	17.630000
52.828589	16.620000
55.420149	16.190000
58.008849	19.530000
60.598976	17.050000
63.184105	18.670000
65.770660	17.320000
68.356502	21.970000
70.939490	21.940000
73.523905	20.130000
76.101190	21.970000
78.682042	25.230000
81.260045	21.210000
83.837338	24.990000
86.416057	22.020000
88.989795	23.420000
91.564959	25.450000
94.137280	24.000000
96.708893	27.940000
99.277666	29.510000
101.847866	38.100000
104.415228	40.990000
106.984015	41.480000
109.549966	49.090000
112.113082	63.850000
114.679754	86.800000
117.237205	102.920000
119.800341	149.260000
122.358518	207.320000
124.920248	303.740000
127.477023	466.300000
130.035223	690.290000
132.588471	1032.950000
135.141020	1488.510000
137.697120	2083.790000
140.248273	2731.380000
142.798727	3386.320000
145.348485	3869.050000
147.895423	4259.170000
150.441665	4444.080000
152.989333	4561.910000
155.536306	4613.700000
158.078342	4578.750000
160.619685	4560.790000
163.160335	4559.220000
165.702411	4522.970000
168.241676	4530.570000
170.778131	4494.840000
173.313896	4467.220000
175.851086	4453.910000
178.387584	4416.210000
180.921277	4429.120000
183.452167	4386.550000
185.982368	4361.430000
188.513994	4357.880000
191.042819	4346.070000
193.568845	4350.450000
196.094186	4343.730000
198.620951	4345.660000
201.144919	4327.620000
203.668203	4327.840000
206.190802	4318.600000
208.710608	4314.370000
211.229731	4301.770000
213.748171	4288.820000
216.268035	4297.240000
218.780898	4309.730000
221.297292	4339.180000
223.813004	4345.070000
226.323827	4330.160000
228.836074	4353.440000
231.345538	4355.160000
233.854324	4328.200000
236.362432	4382.900000
238.871963	4374.510000
241.376615	4377.480000
243.880590	4369.750000
246.385989	4387.340000
248.886513	4415.950000
251.390560	4416.730000
253.887637	4410.860000
256.388236	4430.850000
258.886064	4441.380000
261.383219	4427.260000
263.879701	4436.500000
266.371320	4417.770000
268.866459	4442.030000
271.358832	4425.350000
273.850534	4442.490000
276.339473	4447.620000
278.829835	4438.900000
281.317436	4431.490000
283.802277	4441.230000
286.290632	4428.070000
288.772048	4421.350000
291.256978	4406.140000
293.737063	4432.940000
296.220660	4429.240000
298.699414	4466.560000
301.179592	4446.970000
303.657017	4455.920000
306.133779	4438.840000
308.609878	4463.230000
311.083228	4445.860000
313.555916	4454.860000
316.027943	4465.900000
318.499309	4502.080000
320.967931	4535.850000
323.435893	4553.840000
325.905278	4505.830000
328.369840	4505.970000
330.837905	4483.350000
333.301151	4475.800000
335.763740	4473.280000
338.225671	4442.900000
340.686946	4451.530000
343.145487	4424.130000
345.605450	4390.450000
348.062680	4363.660000
350.519256	4345.590000
352.975178	4316.430000
355.428371	4258.830000
357.882985	4249.770000
360.332798	4209.160000
362.786108	4182.930000
365.234618	4130.600000
367.682478	4095.610000
370.131759	4072.730000
372.576247	4049.850000
375.022157	3991.710000
377.467418	3932.970000
379.909960	3925.610000
382.351854	3870.290000
384.793100	3849.890000
387.231631	3814.080000
389.671584	3788.030000
392.108823	3751.640000
394.543350	3722.750000
396.981365	3699.940000
399.414603	3672.450000
401.849263	3634.640000
404.279149	3635.260000
406.712521	3616.170000
409.141123	3609.130000
411.569084	3557.750000
413.998465	3561.370000
416.423081	3562.530000
418.849119	3545.050000
421.274516	3518.040000
423.699273	3510.340000
426.119272	3496.740000
428.540692	3506.940000
430.959415	3504.690000
433.379559	3496.780000
435.797008	3502.210000
438.215877	3478.200000
440.632053	3492.160000
443.043482	3482.500000
445.458387	3478.500000
447.870602	3476.370000
450.282183	3495.720000
452.693130	3487.490000
455.101391	3480.640000
457.509019	3468.780000
459.916016	3470.790000
462.322380	3432.370000
464.726062	3445.140000
467.129114	3420.460000
469.531536	3430.610000
471.933329	3420.920000
474.332443	3427.060000
476.732977	3406.050000
479.132882	3405.060000
481.528064	3378.080000
483.926713	3398.580000
486.320642	3367.940000
488.713945	3358.260000
491.106622	3338.750000
493.498674	3351.470000
495.892145	3312.490000
498.280903	3319.370000
500.666995	3315.670000
503.054507	3285.670000
505.441395	3282.030000
507.825620	3267.940000
510.211264	3280.140000
512.594245	3255.370000
514.974566	3244.510000
517.356306	3289.210000
519.735387	3242.290000
522.115887	3259.730000
524.493729	3242.580000
526.868916	3266.930000
529.243485	3225.660000
531.619473	3219.330000
533.992807	3206.620000
536.367559	3183.940000
538.737626	3158.480000
541.107077	3134.090000
543.477946	3112.770000
545.844135	3051.480000
548.211742	3048.110000
550.576703	3004.910000
552.941051	2982.520000
555.304787	2926.710000
557.669940	2921.520000
560.030420	2885.560000
562.392319	2850.470000
564.751578	2798.130000
567.108198	2782.950000
569.468263	2753.740000
571.821638	2692.820000
574.178457	2672.810000
576.532640	2625.730000
578.886216	2582.250000
581.239183	2562.850000
583.589519	2525.060000
585.941271	2500.810000
588.286347	2469.610000
590.636887	2429.930000
592.980754	2402.100000
595.330081	2392.230000
597.674761	2355.050000
600.016815	2343.280000
602.360287	2313.570000
604.701136	2301.000000
607.041383	2287.230000
609.379009	2284.090000
611.720070	2260.110000
614.056494	2259.100000
616.394334	2238.700000
618.729556	2237.470000
621.062163	2233.660000
623.396186	2243.130000
625.727596	2247.370000
628.058407	2237.410000
630.388620	2225.340000
632.718235	2227.380000
635.043228	2228.440000
637.373662	2242.280000
639.699474	2247.790000
642.022680	2246.930000
644.347301	2243.040000
646.669318	2254.280000
648.990740	2250.110000
651.309559	2260.200000
653.629794	2264.150000
655.949436	2278.150000
658.266477	2283.960000
660.582926	2310.400000
662.896778	2308.280000
665.212044	2335.390000
667.524714	2361.000000
669.838799	2362.060000
672.148284	2404.130000
674.459185	2427.850000
676.767493	2421.190000
679.075213	2474.030000
681.384348	2486.360000
683.688890	2510.070000
685.992845	2516.180000
688.296215	2555.700000
690.600999	2574.500000
692.901197	2569.330000
695.202809	2625.090000
697.503837	2618.290000
699.800282	2636.450000
702.098143	2663.120000
704.395420	2690.480000
706.692114	2685.740000
708.984232	2717.590000
711.279761	2733.010000
713.570717	2780.820000
715.863087	2778.750000
718.152881	2806.010000
720.442096	2820.400000
722.730730	2866.350000
725.016793	2874.810000
727.304269	2904.920000
729.589175	2899.400000
731.873502	2943.260000
734.155261	2967.280000
736.438434	2960.720000
738.721030	2998.920000
740.999071	3012.360000
743.278525	3047.770000
745.557404	3079.560000
747.835707	3097.670000
750.109461	3120.170000
752.384629	3131.150000
754.659223	3169.700000
756.931258	3176.770000
759.204705	3217.920000
761.475595	3252.050000
763.743929	3253.290000
766.013676	3294.200000
768.280869	3294.150000
770.547491	3338.680000
772.813544	3360.970000
775.077044	3370.140000
777.341958	3393.190000
779.606302	3425.810000
781.866117	3430.260000
784.127345	3451.440000
786.388005	3463.550000
788.646118	3491.800000
790.901687	3503.390000
793.160647	3532.170000
795.413108	3527.310000
797.670936	3541.010000
799.924244	3549.750000
802.175013	3567.130000
804.427194	3562.880000
806.676837	3599.960000
808.927891	3601.440000
811.174434	3614.050000
813.422389	3613.750000
815.667810	3641.040000
817.914642	3634.370000
820.160913	3669.130000
822.402680	3678.500000
824.647829	3708.790000
826.886506	3719.880000
829.128566	3735.460000
831.366127	3761.410000
833.605099	3791.430000
835.841545	3798.250000
838.079402	3834.900000
840.314735	3855.360000
842.547543	3926.640000
844.781763	3948.900000
847.013461	3986.520000
849.244604	4030.870000
851.475192	4075.320000
853.705226	4142.640000
855.934705	4183.210000
858.159703	4252.280000
860.388076	4324.610000
862.611970	4361.860000
864.837274	4433.580000
867.058103	4523.390000
869.282304	4570.880000
871.502032	4638.670000
873.723171	4734.920000
875.943759	4831.800000
878.161837	4909.520000
880.381326	4975.130000
882.596348	5023.410000
884.810822	5081.040000
887.024749	5146.170000
889.238128	5165.320000
891.450960	5184.110000
893.663246	5216.810000
895.873029	5263.580000
898.082267	5222.480000
900.290960	5254.640000
902.497154	5239.290000
904.704757	5187.960000
906.909863	5114.290000
909.114425	5101.050000
911.316491	5047.860000
913.519967	4932.160000
915.720949	4863.170000
917.921390	4760.420000
920.123239	4682.440000
922.318696	4545.190000
924.517513	4470.210000
926.711891	4352.050000
928.909627	4217.260000
931.102927	4139.270000
933.297636	4061.750000
935.489859	3939.760000
937.681544	3883.300000
939.872691	3820.090000
942.061355	3774.010000
944.249482	3752.760000
946.435129	3678.200000
948.624128	3688.050000
950.808704	3670.240000
952.992745	3665.700000
955.180136	3649.340000
957.359223	3676.800000
959.541661	3654.130000
961.723565	3647.470000
963.902995	3656.150000
966.079952	3658.880000
968.258316	3671.150000
970.438088	3661.260000
972.611511	3631.760000
974.788280	3616.730000
976.960643	3616.140000
979.134412	3562.680000
981.303778	3498.730000
983.476489	3502.540000
985.646733	3457.900000
987.816449	3398.400000
989.985636	3333.700000
992.150426	3298.440000
994.318557	3263.260000
996.482294	3199.380000
998.647437	3147.990000
1000.810122	3125.460000
1002.972280	3058.880000
1005.131982	3036.000000
1007.291160	2976.380000
1009.451744	2933.750000
1011.609873	2876.040000
1013.767478	2842.050000
1015.924560	2790.510000
1018.081119	2757.810000
1020.233298	2733.490000
1022.386883	2684.360000
1024.539947	2658.630000
1026.690563	2636.620000
1028.842584	2615.910000
1030.990232	2585.840000
1033.141212	2552.150000
1035.287821	2523.290000
1037.433912	2506.130000
1039.579483	2493.980000
1041.726460	2462.130000
1043.867149	2452.120000
1046.011166	2420.440000
1048.152743	2398.960000
1050.293804	2389.470000
1052.436269	2368.830000
1054.572455	2352.770000
1056.711967	2335.250000
1058.847123	2317.710000
1060.985604	2292.910000
1063.119731	2266.990000
1065.253345	2258.850000
1067.388364	2225.470000
1069.519033	2212.850000
1071.651107	2211.490000
1073.780752	2177.190000
1075.909885	2166.040000
1078.038506	2141.490000
1080.166616	2114.800000
1082.292300	2091.800000
1084.417474	2089.020000
1086.544052	2036.970000
1088.666293	2026.570000
1090.789937	2002.410000
1092.909248	1973.690000
1095.033787	1934.430000
1097.152081	1903.880000
1099.271780	1876.430000
1101.389060	1854.380000
1103.505834	1822.720000
1105.622101	1805.570000
1107.735953	1771.600000
1109.851208	1731.910000
1111.962141	1706.120000
1114.076385	1685.710000
1116.186309	1657.860000
1118.297637	1621.870000
1120.408460	1605.200000
1122.514968	1566.280000
1124.624784	1555.820000
1126.730286	1529.540000
1128.837191	1487.600000
1130.937881	1471.060000
1133.043783	1453.970000
1135.145376	1432.580000
1137.248372	1413.750000
1139.350867	1385.490000
1141.447155	1357.000000
1143.548651	1338.380000
1145.645844	1325.720000
1147.742538	1304.540000
1149.838734	1282.920000
1151.934433	1268.710000
1154.029634	1254.800000
1156.122438	1240.300000
1158.216644	1218.690000
1160.304659	1203.000000
1162.397872	1183.730000
1164.484897	1168.180000
1166.575221	1152.810000
1168.661258	1145.930000
1170.750592	1137.230000
1172.833745	1118.490000
1174.918301	1105.780000
1177.004257	1099.290000
1179.085932	1083.450000
1181.169009	1068.550000
1183.249700	1056.510000
1185.329899	1050.310000
1187.409607	1034.740000
1189.488824	1031.240000
1191.565659	1015.930000
1193.640113	1022.110000
1195.717859	1015.180000
1197.791334	1004.240000
1199.866210	1001.580000
1201.936819	986.450000
1204.008830	977.440000
1206.078464	982.870000
1208.149499	971.290000
1210.220046	982.480000
1212.286332	963.910000
1214.354019	969.270000
1216.419334	960.230000
1218.486049	961.090000
1220.548508	950.850000
1222.614252	951.470000
1224.675743	963.120000
1226.738633	956.540000
1228.799156	947.260000
1230.859195	942.770000
1232.918752	947.390000
1234.975943	947.560000
1237.032653	947.460000
1239.087000	945.320000
1241.144627	945.600000
1243.199892	941.780000
1245.250916	941.190000
1247.303340	946.580000
1249.355284	931.820000
1251.404870	936.260000
1253.453977	935.380000
1255.502606	939.950000
1257.550756	928.040000
1259.598428	933.530000
1261.641869	928.570000
1263.688585	930.530000
1265.732948	928.780000
1267.776835	930.930000
1269.818371	931.650000
1271.857557	927.200000
1273.900015	922.530000
1275.938251	926.080000
1277.977886	922.190000
1280.017046	925.610000
1282.051987	918.830000
1284.088328	915.080000
1286.122323	926.920000
1288.157717	911.250000
1290.188897	916.170000
1292.221476	917.650000
1294.253582	924.480000
1296.283348	916.860000
1298.314512	909.860000
1300.341468	924.500000
1302.369822	917.580000
1304.393972	919.260000
1306.421386	906.520000
1308.444598	905.620000
1310.469208	917.790000
1312.491484	920.970000
1314.515157	921.640000
1316.536497	916.990000
1318.557369	918.540000
1320.577775	912.140000
1322.593986	925.670000
1324.611596	901.050000
1326.626877	910.910000
1328.645416	914.640000
1330.659767	913.390000
1332.671792	913.950000
1334.687074	914.970000
1336.698171	912.560000
1338.710665	904.250000
1340.718976	915.460000
1342.730543	905.710000
1344.736070	917.390000
1346.744853	902.900000
1348.749458	908.970000
1350.757317	918.300000
1352.764714	916.290000
1354.766080	914.910000
1356.768843	917.160000
1358.771145	917.000000
1360.772988	910.150000
1362.774371	917.930000
1364.773441	919.870000
1366.772052	913.620000
1368.770205	915.680000
1370.767900	904.790000
1372.761431	909.920000
1374.756359	913.160000
1376.750830	917.190000
1378.744844	910.010000
1380.736551	923.780000
1382.727802	912.300000
1384.716748	911.520000
1386.707089	905.890000
1388.696975	908.830000
1390.684558	914.180000
1392.671686	909.050000
1394.656514	907.990000
1396.642735	913.900000
1398.626657	903.640000
1400.610126	910.370000
1402.593143	905.810000
1404.573861	906.590000
1406.555975	902.490000
1408.535791	892.540000
1410.515157	893.390000
1412.490383	900.280000
1414.468849	890.480000
1416.445020	894.350000
1418.420743	897.580000
1420.396016	891.190000
1422.368998	891.590000
1424.341532	889.310000
1426.313619	883.350000
1428.285257	882.900000
1430.252767	882.930000
1432.225352	889.240000
1434.190130	875.280000
1436.159981	886.610000
1438.125707	881.180000
1440.092826	887.050000
1442.057662	874.430000
1444.018379	872.690000
1445.984163	878.070000
1447.943992	879.700000
1449.905214	882.980000
1451.867829	869.500000
1453.826329	878.760000
1455.784387	874.900000
1457.742002	875.680000
1459.699176	867.570000
1461.654074	876.120000
1463.610364	875.140000
1465.564380	867.380000
1467.517956	872.720000
1469.469259	858.460000
1471.421954	867.080000
1473.372378	863.280000
1475.322363	865.020000
1477.271908	862.180000
1479.219185	863.490000
1481.164195	862.400000
1483.110596	871.940000
1485.056561	864.400000
1487.002087	863.580000
1488.945349	862.100000
1490.888174	867.200000
1492.828736	863.330000
1494.770689	865.600000
1496.710381	855.800000
1498.649637	850.470000
1500.588458	863.760000
1502.525020	856.960000
1504.462973	859.700000
1506.398668	863.250000
1508.333929	852.270000
1510.266933	850.330000
1512.199505	855.380000
1514.131645	859.210000
1516.063353	851.640000
1517.992807	849.770000
1519.923652	848.640000
1521.854066	842.120000
1523.780406	850.860000
1525.708138	851.750000
1527.633619	844.090000
1529.558671	845.330000
1531.483294	847.700000
1533.407488	846.170000
1535.329435	846.730000
1537.252771	847.590000
1539.173862	846.120000
1541.092708	855.190000
1543.012944	845.440000
1544.930936	845.630000
1546.848502	838.490000
1548.763826	852.460000
1550.680540	847.770000
1552.593199	849.520000
1554.509062	842.450000
1556.422685	847.830000
1558.334071	838.590000
1560.246845	836.960000
1562.155570	833.090000
1564.065685	838.570000
1565.975376	828.830000
1567.884643	832.600000
1569.791677	838.970000
1571.696478	825.360000
1573.602668	825.510000
1575.506626	835.810000
1577.410164	820.220000
1579.313280	825.900000
1581.214168	832.870000
1583.116443	821.050000
1585.016491	822.350000
1586.917926	821.780000
1588.815328	820.560000
1590.712311	830.090000
1592.608876	815.200000
1594.506829	814.400000
1596.398947	815.970000
1598.294258	807.550000
1600.189152	819.250000
1602.081824	809.100000
1603.974080	812.480000
1605.864115	806.230000
1607.753736	811.170000
1609.642940	808.940000
1611.531730	814.300000
1613.418303	809.080000
1615.306262	815.790000
1617.190205	805.870000
1619.075536	813.960000
1620.960452	813.280000
1622.843155	809.120000
1624.727245	812.480000
1626.607324	811.870000
1628.488789	809.340000
1630.368044	807.190000
1632.248685	805.970000
1634.123522	809.940000
1636.003341	810.390000
1637.879154	806.800000
1639.754557	808.320000
1641.631347	801.350000
1643.502339	811.880000
1645.376513	800.150000
1647.246689	804.310000
1649.120045	807.990000
1650.991198	798.630000
1652.860149	800.190000
1654.730486	803.540000
1656.596829	796.510000
1658.464558	798.640000
1660.330089	793.580000
1662.197004	797.720000
1664.059931	788.350000
1665.924243	785.590000
1667.786359	787.690000
1669.648071	787.610000
1671.511167	789.930000
1673.372069	795.570000
1675.230777	788.700000
1677.089082	789.350000
1678.948772	788.330000
1680.802695	793.350000
1682.659790	777.020000
1684.516483	791.550000
1686.369200	790.750000
1688.225087	780.690000
1690.077001	784.810000
1691.928514	778.530000
1693.779626	776.780000
1695.630338	775.800000
1697.480649	779.760000
1699.328776	773.860000
1701.178286	784.980000
1703.022048	773.640000
1704.870759	771.990000
1706.713725	772.320000
1708.559856	768.930000
1710.402026	764.030000
1712.247360	773.300000
1714.086954	770.590000
1715.927932	769.070000
1717.770293	777.150000
1719.608698	763.540000
1721.448486	772.100000
1723.286099	775.250000
1725.123316	763.870000
1726.958360	770.020000
1728.794787	776.080000
1730.629042	761.420000
1732.462902	758.230000
1734.296369	767.150000
1736.125889	759.260000
1737.958568	754.670000
1739.787303	759.990000
1741.619196	754.980000
1743.447146	768.730000
1745.274704	756.450000
1747.101870	749.230000
1748.928645	754.950000
1750.755029	751.990000
1752.577476	752.460000
1754.403077	753.590000
1756.224744	754.680000
1758.047793	749.560000
1759.868681	746.370000
1761.689179	750.700000
1763.511059	749.740000
1765.327239	754.100000
1767.146571	746.320000
1768.961976	746.640000
1770.780531	748.450000
1772.595161	759.600000
1774.409405	757.410000
1776.223261	753.430000
1778.036731	752.400000
1779.848048	752.390000
1781.660746	749.340000
1783.473057	746.450000
1785.281451	752.160000
1787.091226	752.360000
1788.897085	744.980000
1790.706090	742.670000
1792.511182	748.110000
1794.317655	744.910000
1796.123744	741.030000
1797.925923	743.630000
1799.731245	749.000000
1801.532659	741.890000
1803.335453	744.380000
1805.134341	735.120000
1806.934610	743.480000
1808.734497	747.130000
1810.532243	745.030000
1812.329607	742.430000
1814.126592	741.590000
1815.923196	742.090000
1817.717661	741.280000
1819.513505	736.990000
1821.303695	731.730000
1823.098781	744.260000
1824.888214	733.890000
1826.680784	738.990000
1828.471219	725.850000
1830.259520	728.740000
1832.050956	732.010000
1833.836746	725.600000
1835.623916	736.240000
1837.408954	733.010000
1839.197126	726.450000
1840.981412	724.510000
1842.763569	732.250000
1844.547104	733.210000
1846.328511	718.630000
1848.111297	731.980000
1849.890203	730.850000
1851.670487	725.320000
1853.448645	727.700000
1855.228182	721.570000
1857.005594	732.210000
1858.780882	725.970000
1860.557549	732.940000
1862.332092	722.930000
1864.108014	723.060000
1865.878316	728.770000
1867.651744	725.630000
1869.423053	726.760000
1871.193992	727.440000
1872.966307	722.500000
1874.733010	731.420000
1876.502837	721.150000
1878.268801	727.150000
1880.037889	728.680000
1881.803115	719.620000
1883.567972	716.070000
1885.334207	720.800000
1887.096583	714.060000
1888.858592	717.020000
1890.620233	710.500000
1892.381508	717.100000
1894.142415	715.250000
1895.902956	716.070000
1897.661387	720.180000
1899.419453	710.830000
1901.175410	709.830000
1902.932745	714.650000
1904.689713	715.560000
1906.444576	703.440000
1908.197333	709.630000
1909.949727	702.950000
1911.703496	702.600000
1913.455162	721.000000
1915.204726	703.020000
1916.955666	703.790000
1918.706242	705.350000
1920.452979	702.050000
1922.201093	705.430000
1923.947107	701.760000
1925.694497	705.270000
1927.439788	705.390000
1929.182982	704.790000
1930.927552	706.800000
1932.670025	704.440000
1934.412138	705.230000
1936.153891	700.830000
1937.895285	709.740000
1939.634585	709.590000
1941.373525	706.710000
1943.112108	697.940000
1944.848598	709.910000
1946.584731	708.060000
1948.322238	706.210000
1950.055923	714.450000
1951.790983	707.750000
1953.523955	706.340000
1955.256570	708.750000
1956.988828	709.500000
1958.720730	708.430000
1960.450546	716.890000
1962.178278	703.850000
1963.907383	706.750000
1965.636134	705.940000
1967.362801	706.880000
1969.089114	710.010000
1970.816800	704.340000
1972.538950	702.460000
1974.264201	704.380000
1975.985646	716.420000
1977.710190	705.430000
1979.432655	710.760000
1981.151316	706.090000
1982.873076	706.600000
1984.591034	705.450000
1986.310365	697.170000
1988.025897	709.430000
1989.746250	703.240000
1991.462803	704.760000
1993.175561	706.520000
1994.891414	706.020000
1996.605194	705.350000
1998.318625	704.310000
2000.029985	703.930000
2001.742718	705.370000
2003.451659	693.890000
2005.163694	713.120000
2006.870219	707.120000
2008.579837	704.470000
2010.287387	697.660000
2011.994590	707.860000
2013.699727	704.080000
2015.404517	693.380000
2017.110679	701.380000
2018.813059	703.320000
2020.516811	703.730000
2022.218499	698.240000
2023.919843	702.900000
2025.620841	696.700000
2027.319779	701.290000
2029.020087	701.600000
2030.716621	694.130000
2032.414526	697.250000
2034.110372	698.590000
2035.809304	695.600000
2037.502750	701.110000
2039.197568	701.430000
2040.892042	698.960000
2042.582748	698.500000
2044.276538	702.150000
2045.966561	696.610000
2047.657955	695.400000
2049.347296	694.070000
2051.038007	693.310000
2052.724956	693.330000
2054.411564	692.800000
2056.099543	684.470000
2057.783762	679.830000
2059.469351	680.670000
2061.154601	688.100000
2062.837803	677.260000
2064.522374	679.310000
2066.201483	673.870000
2067.885377	678.310000
2069.563811	670.130000
2071.245321	676.290000
2072.923081	682.960000
2074.600503	668.640000
2076.279296	671.750000
2077.956045	675.300000
2079.630753	676.380000
2081.306830	673.040000
2082.980867	669.460000
2084.654568	665.480000
2086.327934	673.570000
2087.999262	662.860000
2089.670255	663.660000
2091.340914	675.070000
2093.011238	666.910000
2094.681229	670.880000
2096.349184	665.740000
2098.016806	661.170000
2099.682393	661.320000
2101.349350	669.520000
2103.014272	674.160000
2104.678863	672.490000
2106.341422	669.170000
2108.005349	672.320000
2109.667246	667.020000
2111.328811	672.990000
2112.990045	670.890000
2114.649251	665.660000
2116.308126	675.710000
2117.966672	669.310000
2119.624888	676.890000
2121.279380	669.240000
2122.936937	671.460000
2124.594165	679.340000
2126.247671	673.870000
2127.902545	663.280000
2129.553701	672.560000
2131.207918	678.160000
2132.858419	673.480000
2134.510286	668.200000
2136.156745	663.270000
2137.807959	670.520000
2139.455459	669.360000
2141.104326	663.570000
2142.751175	663.300000
2144.397697	665.080000
2146.043894	660.440000
2147.686383	662.280000
2149.331930	663.780000
2150.973770	655.720000
2152.618667	660.670000
2154.259859	652.320000
2155.900727	665.680000
2157.541271	652.790000
2159.179803	658.820000
2160.819702	658.610000
2162.455900	655.300000
2164.093464	653.000000
2165.730705	653.770000
2167.365937	642.870000
2169.000848	654.770000
2170.635437	652.140000
2172.269704	651.520000
2173.900279	648.980000
2175.533904	655.950000
2177.163838	656.060000
2178.795137	646.730000
2180.424432	653.540000
2182.053406	657.740000
2183.682062	651.580000
2185.310398	642.790000
2186.936731	651.860000
2188.562746	638.500000
2190.186760	639.480000
2191.812138	654.250000
2193.435517	639.980000
2195.060259	641.370000
2196.681321	641.610000
2198.302066	641.240000
2199.924176	639.900000
2201.544288	636.470000
2203.162403	630.630000
2204.780203	633.620000
2206.397688	634.070000
2208.014857	635.860000
2209.631711	635.690000
2211.248250	635.000000
2212.862795	636.500000
2214.475348	636.600000
2216.089265	629.130000
2217.701191	634.570000
2219.314480	628.130000
2220.925779	638.960000
2222.535088	626.200000
2224.145761	630.730000
2225.754445	628.850000
2227.362817	622.200000
2228.969201	630.860000
2230.576949	633.120000
2232.182710	623.700000
2233.788160	629.070000
2235.391625	629.110000
2236.996454	620.250000
2238.599298	629.210000
2240.200159	634.130000
2241.802383	618.680000
2243.402624	632.700000
2245.004228	627.770000
2246.602180	628.020000
2248.201494	619.760000
2249.798828	624.000000
2251.395853	618.610000
2252.994241	619.620000
2254.588980	625.070000
2256.181742	618.340000
2257.775867	619.570000
2259.371353	627.790000
2260.963195	616.490000
2262.554730	614.450000
2264.147626	619.890000
2265.735213	616.400000
2267.327497	606.280000
2268.914473	611.160000
2270.504478	616.950000
2272.089178	614.420000
2273.678572	609.300000
2275.262663	606.750000
2276.848116	610.730000
2278.431599	611.180000
2280.018109	605.000000
2281.600985	596.930000
2283.183557	599.260000
2284.765826	596.080000
2286.344466	606.370000
2287.926129	606.630000
2289.504164	596.430000
2291.085222	597.600000
2292.662654	597.075000
2294.238121	596.550000
2295.816611	590.310000
2297.391477	587.950000
2298.966042	585.020000
2300.540307	590.880000
2302.114271	591.090000
2303.687935	588.000000
2305.261298	586.430000
2306.831043	591.630000
2308.400489	589.980000
2309.972954	590.890000
2311.540143	587.950000
2313.110351	594.190000
2314.676944	589.370000
2316.244897	588.310000
2317.810894	583.440000
2319.376594	582.010000
2320.941997	599.940000
2322.505445	592.920000
2324.070253	593.870000
2325.631453	604.960000
2327.195667	598.840000
2328.754620	607.130000
2330.316586	605.010000
2331.876602	595.570000
2333.436322	587.330000
2334.994093	600.080000
2336.551569	593.820000
2338.108751	598.170000
2339.663986	592.170000
2341.218926	591.310000
2342.773573	589.200000
2344.327926	600.610000
2345.881985	590.180000
2347.435750	593.180000
2348.987572	587.640000
2350.537450	590.430000
2352.090336	594.110000
2353.637980	588.510000
2355.188631	592.450000
2356.735692	590.490000
2358.284110	586.720000
2359.832236	588.250000
2361.376774	593.020000
2362.922671	588.530000
2364.466628	591.710000
2366.011943	578.380000
2367.553673	580.560000
2369.096760	585.260000
2370.637912	581.930000
2372.178774	579.490000
2373.719347	581.450000
2375.259631	583.600000
2376.799625	582.250000
2378.336042	584.490000
2379.875460	580.750000
2381.411301	584.450000
2382.948498	582.870000
2384.482120	589.380000
2386.018743	585.790000
2387.553434	581.260000
2389.086196	582.900000
2390.618671	580.550000
2392.149219	576.390000
2393.682764	579.590000
2395.211098	573.530000
2396.740788	580.380000
2398.270193	580.060000
2399.799312	577.210000
2401.328147	588.850000
2402.851776	583.520000
2404.380042	583.850000
2405.903104	579.000000
2407.430800	580.610000
2408.951657	580.820000
2410.477147	582.440000
2411.999076	582.510000
2413.522361	583.710000
2415.043725	583.610000
2416.563169	578.440000
2418.083968	579.840000
2419.602848	580.680000
2421.121446	573.960000
2422.638127	574.780000
2424.156162	578.790000
2425.673916	580.150000
2427.188119	584.080000
2428.702041	577.160000
2430.215683	579.420000
2431.730680	571.950000
2433.242128	573.370000
2434.754931	570.850000
2436.265821	574.690000
2437.776431	572.500000
2439.285130	567.580000
2440.796816	573.150000
2442.304957	574.160000
2443.812821	566.960000
2445.320407	568.110000
2446.824452	562.910000
2448.331483	561.940000
2449.836605	563.030000
2451.341450	565.300000
2452.844388	559.250000
2454.347049	555.110000
2455.849434	555.500000
2457.349914	557.800000
2458.851747	549.050000
2460.351676	551.070000
2461.851329	547.290000
2463.350706	549.260000
2464.848181	553.030000
2466.343755	542.320000
2467.842308	548.250000
2469.337332	544.950000
2470.833710	543.570000
2472.326561	542.640000
2473.820764	542.200000
2475.314694	541.930000
2476.805101	543.460000
2478.298484	546.370000
2479.789970	543.550000
2481.279559	544.390000
2482.768876	536.580000
2484.256298	543.300000
2485.746695	542.310000
2487.233573	541.630000
2488.721803	540.340000
2490.206517	550.880000
2491.690960	543.140000
2493.176755	533.800000
2494.660657	533.810000
2496.145911	542.400000
2497.626031	541.600000
2499.109123	543.180000
2500.590325	539.490000
2502.071258	540.930000
2503.550302	542.750000
2505.029077	535.340000
2506.507584	538.390000
2507.985823	538.850000
2509.463793	538.200000
2510.938259	540.560000
2512.415693	532.000000
2513.889624	541.920000
2515.364906	541.430000
2516.839920	539.380000
2518.311433	540.740000
2519.784296	538.500000
2521.255277	542.140000
2522.727608	538.640000
2524.194826	537.150000
2525.665009	532.950000
2527.133312	541.230000
2528.601350	542.310000
2530.069123	541.060000
2531.536631	539.020000
2533.003874	538.310000
2534.467625	539.720000
2535.932726	545.350000
2537.395950	542.820000
2538.860524	535.280000
2540.321608	541.370000
2541.784042	544.000000
2543.246213	535.540000
2544.704898	547.210000
2546.168155	540.130000
2547.626315	542.850000
2549.085824	540.670000
2550.540240	543.820000
2551.999225	537.520000
2553.456339	538.000000
2554.911582	541.570000
2556.366564	533.850000
2557.819676	542.080000
2559.274137	533.830000
2560.726729	536.270000
2562.179061	532.010000
2563.629525	538.020000
2565.082945	527.500000
2566.531283	531.450000
2567.982577	531.750000
2569.432004	532.160000
2570.877959	534.660000
2572.326870	536.370000
2573.772309	532.860000
2575.219097	531.190000
2576.664021	529.540000
2578.108688	526.640000
2579.554702	530.870000
2580.997249	525.550000
2582.441144	522.770000
2583.881574	521.200000
2585.323351	516.770000
2586.763269	526.180000
2588.204534	516.830000
2589.642338	518.170000
2591.083091	520.560000
2592.518781	517.690000
2593.957421	528.150000
2595.394204	519.280000
2596.829130	521.110000
2598.267005	520.770000
2599.699821	523.250000
2601.133985	518.130000
2602.566295	528.930000
2603.999951	525.990000
2605.431754	508.860000
2606.863304	514.920000
2608.294600	514.170000
2609.724044	519.210000
2611.153237	515.820000
2612.580578	510.340000
2614.009266	514.690000
2615.437701	518.120000
2616.862689	518.900000
2618.289024	513.920000
2619.713510	509.990000
2621.139342	517.530000
2622.561730	519.220000
2623.985464	508.530000
2625.407351	511.200000
2626.828989	512.990000
2628.248781	507.760000
2629.669919	504.510000
2631.090807	508.210000
2632.508257	508.130000
2633.928646	508.120000
2635.345598	505.590000
2636.762302	504.630000
2638.178757	512.160000
2639.594964	510.680000
2641.010922	508.760000
2642.425040	499.160000
2643.838911	499.900000
2645.250942	500.860000
2646.664318	502.870000
2648.074264	503.720000
2649.487145	499.120000
2650.896599	504.150000
2652.305806	509.960000
2653.713177	502.320000
2655.123482	510.370000
2656.531951	503.230000
2657.938585	507.960000
2659.344974	496.490000
2660.749529	502.040000
2662.155428	503.380000
2663.559494	498.820000
2664.963316	500.970000
2666.366893	492.470000
2667.768638	500.860000
2669.171727	500.350000
2670.571399	501.230000
2671.972413	496.140000
2673.370012	506.800000
2674.770541	497.450000
2676.167655	497.260000
2677.566112	492.580000
2678.962741	499.440000
2680.359128	502.590000
2681.755274	496.800000
2683.149593	495.050000
2684.545255	487.080000
2685.937507	488.130000
2687.331103	487.910000
2688.722874	494.750000
2690.115987	496.020000
2691.507277	491.500000
2692.896744	487.620000
2694.285971	484.460000
2695.674959	483.530000
2697.065289	486.480000
2698.450634	487.540000
2699.838903	493.570000
2701.225352	482.900000
2702.611562	487.270000
2703.997534	483.350000
2705.380106	480.290000
2706.764021	481.540000
2708.147698	486.850000
2709.531137	484.570000
2710.911180	481.780000
2712.292565	487.140000
2713.672134	485.480000
2715.053045	481.550000
2716.432141	484.680000
2717.809422	482.620000
2719.188045	491.160000
2720.564855	480.130000
2721.941429	490.780000
2723.317767	483.670000
2724.692293	478.970000
2726.068160	483.870000
2727.440640	486.050000
2728.816036	489.220000
2730.186472	480.410000
2731.558249	482.960000
2732.929791	476.740000
2734.299525	480.900000
2735.670600	485.220000
2737.039867	481.210000
2738.408900	482.790000
2739.776126	491.440000
2741.143120	482.810000
2742.509881	480.270000
2743.876409	473.060000
2745.241132	483.850000
2746.605624	481.070000
2747.969883	475.560000
2749.333910	481.760000
2750.697706	477.430000
2752.058128	478.250000
2753.421461	479.970000
2754.779851	474.450000
2756.141151	467.770000
2757.499080	478.810000
2758.859919	471.590000
2760.218957	463.510000
2761.574627	477.190000
2762.933205	464.770000
2764.288417	466.850000
2765.643399	469.110000
2766.996584	465.310000
2768.352676	462.960000
2769.705404	461.020000
2771.057903	465.210000
2772.410174	469.320000
2773.763784	461.690000
2775.114032	462.520000
2776.462487	463.070000
2777.813846	457.600000
2779.161846	454.560000
2780.511185	460.120000
2781.858731	457.900000
2783.206050	461.890000
2784.553143	459.090000
2785.898445	454.660000
2787.243521	455.630000
2788.588371	454.440000
2789.932994	453.510000
2791.274266	452.940000
2792.616876	450.870000
2793.959260	452.380000
2795.301420	452.910000
2796.640230	456.620000
2797.981939	458.820000
2799.320301	458.770000
2800.660000	453.510000
2801.997913	452.480000
2803.334042	449.180000
2804.669947	452.990000
2806.007190	446.200000
2807.342649	450.790000
2808.677885	452.630000
2810.011338	446.730000
2811.346129	456.610000
2812.677578	452.590000
2814.011923	457.420000
2815.341370	454.680000
2816.672154	457.310000
2818.002716	442.390000
2819.331499	441.960000
2820.661618	446.370000
2821.989959	449.620000
2823.318079	445.310000
2824.644422	445.460000
2825.972100	438.730000
2827.296446	445.450000
2828.622127	440.000000
2829.946033	440.540000
2831.269720	436.720000
2832.594742	433.520000
2833.916434	435.700000
2835.237908	439.050000
2836.559163	434.530000
2837.880199	441.970000
2839.199463	435.430000
2840.520062	442.650000
2841.838889	429.440000
2843.157498	442.000000
2844.474336	433.790000
2845.790958	437.370000
2847.107361	431.190000
2848.421996	428.970000
2849.737965	435.840000
2851.050614	427.180000
2852.364599	424.030000
2853.678366	431.840000
2854.991918	433.450000
2856.303702	427.810000
2857.613720	433.760000
2858.925073	440.160000
2860.233111	432.250000
2861.542484	430.490000
2862.851641	432.860000
2864.160583	438.740000
2865.467762	428.870000
2866.773177	438.800000
2868.079927	438.580000
2869.384914	435.870000
2870.689688	435.170000
2871.992700	434.340000
2873.298594	434.200000
2874.599632	436.420000
2875.902005	433.190000
2877.202618	436.250000
2878.504565	432.830000
2879.806299	437.460000
2881.104728	433.920000
2882.404492	431.690000
2883.702497	433.110000
2885.000291	435.970000
2886.296329	431.120000
2887.593700	427.000000
2888.889315	420.360000
2890.184719	432.680000
2891.479913	432.060000
2892.771808	428.980000
2894.066580	422.780000
2895.358055	425.930000
2896.650863	424.080000
2897.943461	432.130000
2899.232765	428.230000
2900.523401	426.530000
2901.812286	434.170000
2903.102504	421.300000
2904.389430	424.350000
2905.677688	430.860000
2906.964196	425.690000
2908.250497	419.500000
2909.536589	423.470000
2910.820933	423.330000
2912.108149	425.850000
2913.390537	425.020000
2914.674258	420.530000
2915.956233	421.680000
2917.238001	420.310000
2918.518023	423.970000
2919.800915	415.640000
2921.082062	429.310000
2922.359927	417.020000
2923.640661	419.700000
2924.918114	413.940000
2926.195361	418.680000
2927.470867	417.660000
2928.749240	420.340000
2930.022798	414.680000
2931.299224	416.080000
2932.573909	419.860000
2933.846854	409.980000
2935.121129	415.330000
2936.393665	417.720000
2937.665997	413.630000
2938.935055	411.410000
2940.206979	416.390000
2941.477165	413.800000
2942.747148	411.100000
2944.016927	417.440000
2945.284969	402.710000
2946.551276	413.210000
2947.817380	407.920000
2949.084814	412.850000
2950.350514	407.110000
2951.616011	406.350000
2952.881306	406.090000
2954.143336	407.710000
2955.406697	399.080000
2956.669855	404.350000
2957.931282	405.980000
2959.194038	404.170000
2960.455063	406.800000
2961.714356	401.730000
2962.973450	406.030000
2964.232343	410.630000
2965.491036	405.090000
2966.749529	410.550000
2968.006293	406.970000
2969.262857	403.520000
2970.517694	404.370000
2971.773860	407.300000
2973.026770	401.910000
2974.281010	409.980000
2975.535051	403.600000
2976.787366	403.510000
2978.039483	403.960000
2979.289875	405.100000
2980.543122	402.740000
2981.791592	403.450000
2983.042916	405.510000
2984.290992	404.390000
2985.538870	403.250000
2986.786551	400.180000
2988.034036	402.230000
2989.279799	402.300000
2990.525365	400.880000
2991.772259	396.100000
2993.015909	397.940000
2994.260887	399.270000
2995.502622	398.120000
2996.747208	388.300000
2997.990074	395.080000
2999.229700	391.940000
3000.472176	397.230000
3001.711413	395.220000
3002.951977	399.100000
3004.190824	398.230000
3005.429477	399.640000
3006.666414	397.150000
3007.904678	397.750000
3009.141228	399.480000
3010.377583	394.310000
3011.613745	394.240000
3012.848194	400.360000
3014.082449	390.380000
3015.316511	389.960000
3016.548861	392.940000
3017.779499	393.660000
3019.012983	395.260000
3020.244755	394.700000
3021.474817	393.840000
3022.704687	398.200000
3023.932847	387.130000
3025.162333	389.070000
3026.390111	393.730000
3027.617697	400.350000
3028.846609	394.290000
3030.070779	390.560000
3031.297792	394.870000
3032.521581	387.980000
3033.746697	392.040000
3034.970106	391.240000
3036.193326	389.450000
3037.414840	391.440000
3038.639195	390.620000
3039.858815	382.020000
3041.079760	394.300000
3042.300517	382.880000
3043.519570	387.590000
3044.739949	388.600000
3045.957111	389.210000
3047.175598	391.280000
3048.392384	391.010000
3049.608981	383.160000
3050.825390	389.080000
3052.038587	383.970000
3053.254621	381.800000
3054.467443	385.280000
3055.683102	385.650000
3056.894038	386.830000
3058.106299	383.910000
3059.318374	378.910000
3060.530262	382.990000
3061.740452	371.990000
3062.950456	387.800000
3064.160275	379.380000
3065.368397	382.670000
3066.576333	378.710000
3067.782575	386.090000
3068.990140	382.420000
3070.196012	380.480000
3071.401698	378.540000
3072.607199	379.020000
3073.811007	381.930000
3075.016139	378.720000
3076.219579	387.510000
3077.421326	382.930000
3078.622890	382.080000
3079.824270	381.770000
3081.025466	376.000000
3082.224972	379.130000
3083.424294	377.770000
3084.624940	381.960000
3085.823896	376.960000
3087.019658	381.150000
3088.218249	377.300000
3089.413646	375.780000
3090.610366	378.750000
3091.803894	379.570000
3093.000251	380.790000
3094.194920	380.280000
3095.386399	373.110000
3096.582209	379.080000
3097.773326	377.790000
3098.965765	371.150000
3100.155017	372.430000
3101.347095	371.530000
3102.537488	372.150000
3103.724696	373.090000
3104.913227	370.800000
3106.103080	374.070000
3107.289748	381.050000
3108.476237	366.120000
3109.662546	372.640000
3110.850177	374.190000
3112.034627	364.430000
3113.217396	367.710000
3114.402989	367.300000
3115.586901	367.630000
3116.769135	368.800000
3117.951190	366.160000
3119.133068	366.670000
3120.314767	367.240000
3121.494788	362.260000
3122.673133	365.140000
3123.854299	362.890000
3125.032289	366.910000
3126.210102	363.350000
3127.387738	367.470000
3128.563699	370.400000
3129.739483	363.650000
3130.916589	365.490000
3132.092020	357.610000
3133.265778	365.340000
3134.437864	363.430000
3135.611270	361.190000
3136.784501	365.090000
3137.956059	362.690000
3139.128939	367.460000
3140.298651	368.630000
3141.469684	365.210000
3142.639046	363.410000
3143.806739	362.930000
3144.977247	364.000000
3146.143096	364.450000
3147.313255	369.200000
3148.478756	360.960000
3149.644084	361.570000
3150.809238	362.060000
3151.974218	363.690000
3153.140519	365.150000
3154.302166	362.530000
3155.465134	360.610000
3156.627928	355.700000
3157.790550	357.600000
3158.951507	350.450000
3160.112291	359.250000
3161.272903	352.460000
3162.431852	350.960000
3163.590628	349.660000
3164.749233	353.300000
3165.907666	345.920000
3167.065927	350.370000
3168.222526	353.110000
3169.377464	351.130000
3170.533721	343.630000
3171.688318	355.330000
3172.842743	349.650000
3173.995509	348.470000
3175.148105	346.620000
3176.300530	343.770000
3177.452786	350.070000
3178.604872	343.010000
3179.753811	345.630000
3180.905557	352.930000
3182.055645	345.330000
3183.204077	349.600000
3184.352340	345.140000
3185.500433	355.980000
3186.648358	349.800000
3187.794628	356.600000
3188.940729	354.450000
3190.085175	352.390000
3191.229454	353.420000
3192.373565	360.900000
3193.518994	354.690000
3194.661283	352.420000
3195.803406	351.440000
3196.945361	353.130000
3198.087150	348.100000
3199.228771	353.430000
3200.367256	348.570000
3201.507059	349.230000
3202.648180	347.580000
3203.786166	350.320000
3204.922503	348.680000
3206.058674	352.790000
3207.196163	353.460000
3208.332002	346.480000
3209.469159	345.390000
3210.601703	344.540000
3211.738529	349.200000
3212.870743	344.730000
3214.004275	350.510000
3215.137641	343.180000
3216.267880	344.000000
3217.400917	343.900000
3218.530828	341.060000
3219.662056	334.070000
3220.790158	337.220000
3221.921057	340.070000
3223.050313	334.160000
3224.177924	339.860000
3225.302414	334.700000
3226.431179	335.560000
3227.556822	333.990000
3228.682302	331.780000
3229.806141	338.010000
3230.932774	336.560000
3232.054810	335.740000
3233.178162	334.370000
3234.301352	333.900000
3235.424380	345.230000
3236.545768	325.500000
3237.666995	335.910000
3238.786583	335.150000
3239.906010	339.130000
3241.023799	333.310000
3242.144381	342.660000
3243.261848	332.800000
3244.379156	340.000000
3245.496302	336.480000
3246.611813	346.360000
3247.728639	337.430000
3248.842354	341.370000
3249.958860	343.490000
3251.073730	345.530000
3252.185492	343.670000
3253.297095	341.910000
3254.410012	336.690000
3255.522771	347.680000
3256.632423	339.960000
3257.743390	339.990000
3258.854197	342.320000
3259.963374	334.260000
3261.070919	336.990000
3262.179779	337.860000
3263.288480	339.960000
3264.394079	334.600000
3265.500992	335.960000
3266.606277	332.560000
3267.712875	341.150000
3268.816373	337.200000
3269.921185	338.040000
3271.025840	337.630000
3272.127396	339.510000
3273.228797	337.120000
3274.331511	340.190000
3275.434068	336.990000
3276.533530	340.180000
3277.635774	333.830000
3278.734923	334.580000
3279.832448	330.360000
3280.929817	338.250000
3282.029969	337.510000
3283.127027	335.560000
3284.223930	335.650000
3285.320679	333.720000
3286.412868	334.750000
3287.509306	332.580000
3288.604123	334.980000
3289.698784	336.840000
3290.791824	327.690000
3291.884710	337.190000
3292.975975	335.650000
3294.068553	334.960000
3295.159510	331.770000
3296.248848	331.850000
3297.338033	330.150000
3298.428531	336.460000
3299.515944	332.310000
3300.603205	326.420000
3301.691778	336.290000
3302.780198	328.550000
3303.864071	334.990000
3304.952186	329.040000
3306.037220	330.580000
3307.120637	327.860000
3308.205367	326.490000
3309.288482	325.910000
3310.372908	331.100000
3311.454256	324.170000
3312.536916	331.470000
3313.617962	325.710000
3314.698857	328.780000
3315.778139	323.970000
3316.857270	325.160000
3317.937712	325.130000
3319.015081	335.130000
3320.093760	329.060000
3321.170829	322.180000
3322.247747	329.370000
3323.323054	327.670000
3324.398212	327.730000
3325.474681	326.500000
3326.548080	329.520000
3327.621330	326.620000
3328.695891	327.850000
3329.768842	327.240000
3330.840186	328.250000
3331.912840	326.540000
3332.982427	325.110000
3334.053325	321.130000
3335.122616	324.860000
3336.193218	323.130000
3337.262213	326.150000
3338.329602	324.100000
3339.395386	322.520000
3340.465396	324.100000
3341.532343	322.550000
3342.596228	318.030000
3343.662881	323.340000
3344.727929	322.860000
3345.791374	318.580000
3346.854673	321.440000
3347.917826	327.610000
3348.980832	318.280000
3350.043691	316.730000
3351.104949	320.320000
3352.163150	316.770000
3353.225572	313.310000
3354.284937	323.750000
3355.344157	314.960000
3356.404687	319.370000
3357.460707	316.690000
3358.519492	316.640000
3359.573769	314.890000
3360.630809	324.460000
3361.686252	322.270000
3362.743003	314.550000
3363.798157	318.720000
3364.851713	318.070000
3365.903672	320.040000
3366.958393	315.680000
3368.010065	322.740000
3369.061594	309.650000
3370.114432	318.250000
3371.164222	323.470000
3372.215320	320.850000
3373.263373	321.290000
3374.314186	319.960000
3375.361953	318.050000
3376.409578	317.370000
3377.457060	319.230000
3378.502950	323.380000
3379.550148	319.680000
3380.594304	317.010000
3381.641218	325.580000
3382.686540	316.790000
3383.728822	313.370000
3384.770962	312.680000
3385.814410	315.420000
3386.857718	310.730000
3387.899435	318.720000
3388.941011	316.100000
3389.982447	312.340000
3391.022293	320.460000
3392.060552	314.250000
3393.100118	321.120000
3394.139543	318.130000
3395.177381	321.090000
3396.213633	317.300000
3397.249744	315.020000
3398.287163	317.480000
3399.321549	314.110000
3400.357242	310.130000
3401.392796	312.360000
3402.425319	312.930000
3403.460595	317.270000
3404.492840	310.000000
3405.524947	315.780000
3406.555470	316.180000
3407.587301	312.950000
3408.618992	313.930000
3409.647657	310.590000
3410.676183	316.560000
3411.706017	313.290000
3412.735712	316.450000
3413.762382	317.870000
3414.790359	306.870000
3415.815311	316.350000
3416.843013	314.390000
3417.867692	313.490000
3418.893677	312.960000
3419.918082	318.480000
3420.942351	309.170000
3421.965041	317.800000
3422.987595	307.770000
3424.011455	317.470000
3425.032295	312.520000
3426.053000	305.910000
3427.075010	309.940000
3428.094002	308.680000
3429.112859	304.310000
3430.133021	309.440000
3431.150167	304.550000
