-118.106446	10.550000
-115.436846	10.190000
-112.770181	17.430000
-110.104268	5.110000
-107.441287	17.140000
-104.776877	3.160000
-102.115397	11.910000
-99.452487	2.540000
-96.794685	8.940000
-94.135452	8.420000
-91.476968	10.210000
-88.821409	12.590000
-86.164421	16.030000
-83.512530	3.140000
-80.859210	15.640000
-78.208810	12.450000
-75.556980	12.290000
-72.910241	8.240000
-70.262072	11.490000
-67.614647	6.540000
-64.970135	11.650000
-62.324195	14.550000
-59.683336	13.970000
-57.041048	5.370000
-54.401668	13.330000
-51.760860	14.690000
-49.120792	11.460000
-46.485796	13.980000
-43.849371	19.070000
-41.215850	8.630000
-38.580900	16.350000
-35.951015	10.300000
-33.317538	15.540000
-30.689123	11.020000
-28.061441	18.640000
-25.432332	17.640000
-22.808279	19.840000
-20.180637	20.810000
-17.558048	28.080000
-14.936191	32.190000
-12.315064	48.830000
-9.694667	108.700000
-7.077158	336.440000
-4.458221	995.110000
-1.842170	2233.440000
0.773153	2471.450000
3.387749	1219.270000
5.999462	127.470000
8.612604	41.160000
11.220712	22.440000
13.832402	24.430000
16.439061	17.420000
19.047148	20.660000
21.654511	17.120000
24.256849	25.340000
26.862765	14.620000
29.463659	18.350000
32.065981	13.810000
34.663286	21.530000
37.264166	16.960000
39.860032	16.610000
42.457325	12.900000
45.053899	20.570000
47.645464	14.250000
50.238457	22.240000
52.828589	17.850000
55.420149	24.230000
58.008849	21.100000
60.598976	22.150000
63.184105	23.160000
65.770660	25.220000
68.356502	19.180000
70.939490	26.290000
73.523905	25.050000
76.101190	24.510000
78.682042	22.680000
81.260045	21.930000
83.837338	27.110000
86.416057	32.400000
88.989795	30.780000
91.564959	33.100000
94.137280	24.940000
96.708893	30.730000
99.277666	36.700000
101.847866	40.760000
104.415228	41.870000
106.984015	49.770000
109.549966	56.610000
112.113082	73.810000
114.679754	86.270000
117.237205	119.690000
119.800341	164.800000
122.358518	237.750000
124.920248	333.240000
127.477023	501.680000
130.035223	740.000000
132.588471	1111.020000
135.141020	1613.260000
137.697120	2252.010000
140.248273	2978.230000
142.798727	3706.370000
145.348485	4229.820000
147.895423	4671.660000
150.441665	4876.970000
152.989333	5013.180000
155.536306	5061.310000
158.078342	5005.510000
160.619685	4982.250000
163.160335	4984.920000
165.702411	4942.700000
168.241676	4963.230000
170.778131	4899.030000
173.313896	4873.950000
175.851086	4860.960000
178.387584	4835.050000
180.921277	4817.240000
183.452167	4781.550000
185.982368	4768.720000
188.513994	4767.730000
191.042819	4757.850000
193.568845	4738.280000
196.094186	4723.600000
198.620951	4717.520000
201.144919	4724.000000
203.668203	4711.040000
206.190802	4706.710000
208.710608	4709.010000
211.229731	4680.780000
213.748171	4665.010000
216.268035	4676.380000
218.780898	4704.060000
221.297292	4703.260000
223.813004	4725.070000
226.323827	4696.260000
228.836074	4722.360000
231.345538	4715.740000
233.854324	4716.490000
236.362432	4746.940000
238.871963	4763.160000
241.376615	4776.520000
243.880590	4753.040000
246.385989	4768.530000
248.886513	4795.750000
251.390560	4791.100000
253.887637	4792.740000
256.388236	4818.470000
258.886064	4811.770000
261.383219	4794.800000
263.879701	4825.180000
266.371320	4811.690000
268.866459	4821.310000
271.358832	4803.760000
273.850534	4817.410000
276.339473	4816.020000
278.829835	4821.280000
281.317436	4781.950000
283.802277	4804.590000
286.290632	4797.380000
288.772048	4788.560000
291.256978	4793.570000
293.737063	4810.150000
296.220660	4795.680000
298.699414	4815.730000
301.179592	4831.620000
303.657017	4841.380000
306.133779	4796.250000
308.609878	4824.280000
311.083228	4800.410000
313.555916	4814.060000
316.027943	4819.470000
318.499309	4880.600000
320.967931	4895.510000
323.435893	4919.600000
325.905278	4861.730000
328.369840	4867.090000
330.837905	4855.780000
333.301151	4827.910000
335.763740	4841.810000
338.225671	4816.460000
340.686946	4802.890000
343.145487	4783.620000
345.605450	4746.330000
348.062680	4718.080000
350.519256	4700.450000
352.975178	4655.510000
355.428371	4589.180000
357.882985	4564.430000
360.332798	4538.150000
362.786108	4495.530000
365.234618	4449.100000
367.682478	4385.940000
370.131759	4350.100000
372.576247	4320.000000
375.022157	4254.100000
377.467418	4219.620000
379.909960	4200.160000
382.351854	4148.630000
384.793100	4095.270000
387.231631	4078.610000
389.671584	4012.410000
392.108823	3995.770000
394.543350	3947.330000
396.981365	3954.960000
399.414603	3900.100000
401.849263	3878.800000
404.279149	3861.440000
406.712521	3856.530000
409.141123	3838.770000
411.569084	3779.290000
413.998465	3758.850000
416.423081	3767.800000
418.849119	3751.820000
421.274516	3741.940000
423.699273	3724.780000
426.119272	3690.210000
428.540692	3717.370000
430.959415	3689.890000
433.379559	3683.930000
435.797008	3688.120000
438.215877	3661.220000
440.632053	3678.520000
443.043482	3671.630000
445.458387	3652.790000
447.870602	3653.310000
450.282183	3682.720000
452.693130	3663.840000
455.101391	3658.720000
457.509019	3634.830000
459.916016	3651.240000
462.322380	3613.020000
464.726062	3602.260000
467.129114	3596.010000
469.531536	3602.040000
471.933329	3586.300000
474.332443	3578.640000
476.732977	3568.970000
479.132882	3578.140000
481.528064	3544.780000
483.926713	3555.900000
486.320642	3535.470000
488.713945	3531.340000
491.106622	3509.640000
493.498674	3519.680000
495.892145	3464.660000
498.280903	3472.440000
500.666995	3450.600000
503.054507	3437.040000
505.441395	3422.080000
507.825620	3423.320000
510.211264	3416.480000
512.594245	3401.430000
514.974566	3394.350000
517.356306	3431.200000
519.735387	3399.380000
522.115887	3399.710000
524.493729	3369.990000
526.868916	3391.900000
529.243485	3360.960000
531.619473	3373.290000
533.992807	3332.770000
536.367559	3303.920000
538.737626	3288.680000
541.107077	3260.490000
543.477946	3212.750000
545.844135	3166.320000
548.211742	3153.530000
550.576703	3093.710000
552.941051	3065.050000
555.304787	3010.930000
557.669940	2999.250000
560.030420	2955.210000
562.392319	2917.310000
564.751578	2871.480000
567.108198	2806.940000
569.468263	2814.650000
571.821638	2745.420000
574.178457	2720.150000
576.532640	2660.320000
578.886216	2630.490000
581.239183	2575.900000
583.589519	2536.730000
585.941271	2496.380000
588.286347	2465.990000
590.636887	2426.160000
592.980754	2395.450000
595.330081	2379.860000
597.674761	2346.670000
600.016815	2323.310000
602.360287	2303.670000
604.701136	2272.760000
607.041383	2265.470000
609.379009	2249.350000
611.720070	2228.910000
614.056494	2218.830000
616.394334	2211.980000
618.729556	2200.700000
621.062163	2187.670000
623.396186	2213.330000
625.727596	2205.900000
628.058407	2196.960000
630.388620	2189.360000
632.718235	2202.540000
635.043228	2201.500000
637.373662	2196.300000
639.699474	2187.340000
642.022680	2201.080000
644.347301	2199.260000
646.669318	2183.920000
648.990740	2201.600000
651.309559	2204.790000
653.629794	2212.400000
655.949436	2231.960000
658.266477	2243.570000
660.582926	2264.790000
662.896778	2279.020000
665.212044	2294.430000
667.524714	2336.180000
669.838799	2318.940000
672.148284	2359.930000
674.459185	2392.400000
676.767493	2406.650000
679.075213	2435.640000
681.384348	2464.200000
683.688890	2500.030000
685.992845	2495.490000
688.296215	2530.370000
690.600999	2564.270000
692.901197	2575.470000
695.202809	2612.670000
697.503837	2613.350000
699.800282	2645.330000
702.098143	2674.100000
704.395420	2700.670000
706.692114	2706.690000
708.984232	2730.970000
711.279761	2761.880000
713.570717	2806.410000
715.863087	2827.250000
718.152881	2833.220000
720.442096	2851.730000
722.730730	2893.710000
725.016793	2895.310000
727.304269	2934.220000
729.589175	2932.140000
731.873502	2988.910000
734.155261	3015.510000
736.438434	3008.240000
738.721030	3038.660000
740.999071	3072.170000
743.278525	3088.210000
745.557404	3132.610000
747.835707	3163.710000
750.109461	3189.230000
752.384629	3197.620000
754.659223	3250.090000
756.931258	3246.510000
759.204705	3282.960000
761.475595	3317.860000
763.743929	3337.410000
766.013676	3368.030000
768.280869	3388.450000
770.547491	3421.710000
772.813544	3451.430000
775.077044	3450.460000
777.341958	3476.900000
779.606302	3504.400000
781.866117	3522.530000
784.127345	3521.660000
786.388005	3568.310000
788.646118	3588.880000
790.901687	3598.350000
793.160647	3631.160000
795.413108	3648.860000
797.670936	3650.490000
799.924244	3670.490000
802.175013	3680.560000
804.427194	3664.790000
806.676837	3708.390000
808.927891	3716.790000
811.174434	3704.020000
813.422389	3729.650000
815.667810	3769.120000
817.914642	3746.040000
820.160913	3802.710000
822.402680	3810.770000
824.647829	3850.860000
826.886506	3855.720000
829.128566	3870.500000
831.366127	3900.340000
833.605099	3923.130000
835.841545	3943.940000
838.079402	3974.240000
840.314735	3998.140000
842.547543	4068.140000
844.781763	4114.050000
847.013461	4144.390000
849.244604	4217.560000
851.475192	4249.490000
853.705226	4340.270000
855.934705	4366.470000
858.159703	4450.760000
860.388076	4496.500000
862.611970	4584.690000
864.837274	4668.220000
867.058103	4773.050000
869.282304	4822.930000
871.502032	4912.740000
873.723171	4997.270000
875.943759	5105.420000
878.161837	5179.600000
880.381326	5263.670000
882.596348	5346.900000
884.810822	5413.250000
887.024749	5486.550000
889.238128	5508.580000
891.450960	5524.130000
893.663246	5570.900000
895.873029	5619.060000
898.082267	5590.390000
900.290960	5595.090000
902.497154	5563.770000
904.704757	5526.040000
906.909863	5472.860000
909.114425	5403.960000
911.316491	5343.110000
913.519967	5233.490000
915.720949	5142.320000
917.921390	5019.030000
920.123239	4926.670000
922.318696	4778.830000
924.517513	4678.380000
926.711891	4541.990000
928.909627	4417.130000
931.102927	4302.470000
933.297636	4203.100000
935.489859	4088.170000
937.681544	4015.210000
939.872691	3934.770000
942.061355	3884.820000
944.249482	3840.610000
946.435129	3778.670000
948.624128	3768.640000
950.808704	3748.360000
952.992745	3750.200000
955.180136	3715.880000
957.359223	3718.400000
959.541661	3721.800000
961.723565	3716.660000
963.902995	3738.630000
966.079952	3733.410000
968.258316	3738.650000
970.438088	3728.080000
972.611511	3699.660000
974.788280	3682.450000
976.960643	3668.270000
979.134412	3624.340000
981.303778	3558.180000
983.476489	3531.930000
985.646733	3483.690000
987.816449	3421.220000
989.985636	3370.300000
992.150426	3326.230000
994.318557	3283.070000
996.482294	3220.030000
998.647437	3160.140000
1000.810122	3107.760000
1002.972280	3043.310000
1005.131982	3020.130000
1007.291160	2941.610000
1009.451744	2896.330000
1011.609873	2846.920000
1013.767478	2800.100000
1015.924560	2747.300000
1018.081119	2692.160000
1020.233298	2675.900000
1022.386883	2615.170000
1024.539947	2597.440000
1026.690563	2567.030000
1028.842584	2522.100000
1030.990232	2494.850000
1033.141212	2478.740000
1035.287821	2447.470000
1037.433912	2413.400000
1039.579483	2387.890000
1041.726460	2362.500000
1043.867149	2345.960000
1046.011166	2308.080000
1048.152743	2288.220000
1050.293804	2274.950000
1052.436269	2246.240000
1054.572455	2241.720000
1056.711967	2221.850000
1058.847123	2199.900000
1060.985604	2169.980000
1063.119731	2148.720000
1065.253345	2132.350000
1067.388364	2102.450000
1069.519033	2083.980000
1071.651107	2067.890000
1073.780752	2042.700000
1075.909885	2026.480000
1078.038506	1992.220000
1080.166616	1972.480000
1082.292300	1917.300000
1084.417474	1918.880000
1086.544052	1878.820000
1088.666293	1861.480000
1090.789937	1824.590000
1092.909248	1784.060000
1095.033787	1740.130000
1097.152081	1706.020000
1099.271780	1686.690000
1101.389060	1657.690000
1103.505834	1610.270000
1105.622101	1590.990000
1107.735953	1549.630000
1109.851208	1508.560000
1111.962141	1487.820000
1114.076385	1445.060000
1116.186309	1408.090000
1118.297637	1383.990000
1120.408460	1349.280000
1122.514968	1319.790000
1124.624784	1305.060000
1126.730286	1278.950000
1128.837191	1242.530000
1130.937881	1211.830000
1133.043783	1183.370000
1135.145376	1155.710000
1137.248372	1136.600000
1139.350867	1103.810000
1141.447155	1086.440000
1143.548651	1060.280000
1145.645844	1039.860000
1147.742538	1016.250000
1149.838734	992.840000
1151.934433	980.490000
1154.029634	952.990000
1156.122438	938.820000
1158.216644	923.740000
1160.304659	900.280000
1162.397872	877.780000
1164.484897	864.780000
1166.575221	839.170000
1168.661258	828.730000
1170.750592	807.560000
1172.833745	797.760000
1174.918301	787.690000
1177.004257	774.500000
1179.085932	752.790000
1181.169009	740.330000
1183.249700	729.000000
1185.329899	727.050000
1187.409607	708.660000
1189.488824	700.690000
1191.565659	688.380000
1193.640113	690.140000
1195.717859	672.090000
1197.791334	671.340000
1199.866210	652.410000
1201.936819	648.010000
1204.008830	642.080000
1206.078464	639.840000
1208.149499	633.010000
1210.220046	630.170000
1212.286332	616.640000
1214.354019	611.640000
1216.419334	609.110000
1218.486049	611.420000
1220.548508	606.010000
1222.614252	603.570000
1224.675743	600.000000
1226.738633	596.670000
1228.799156	587.650000
1230.859195	594.130000
1232.918752	580.880000
1234.975943	592.780000
1237.032653	582.640000
1239.087000	586.970000
1241.144627	584.930000
1243.199892	580.250000
1245.250916	577.240000
1247.303340	574.130000
1249.355284	576.790000
1251.404870	574.020000
1253.453977	569.270000
1255.502606	570.760000
1257.550756	571.010000
1259.598428	574.040000
1261.641869	571.410000
1263.688585	563.030000
1265.732948	561.860000
1267.776835	565.050000
1269.818371	562.410000
1271.857557	559.530000
1273.900015	554.490000
1275.938251	561.520000
1277.977886	549.640000
1280.017046	558.160000
1282.051987	558.160000
1284.088328	553.860000
1286.122323	559.620000
1288.157717	560.200000
1290.188897	549.260000
1292.221476	559.650000
1294.253582	552.610000
1296.283348	555.090000
1298.314512	552.890000
1300.341468	559.080000
1302.369822	542.040000
1304.393972	553.700000
1306.421386	554.080000
1308.444598	553.870000
1310.469208	551.350000
1312.491484	559.350000
1314.515157	548.710000
1316.536497	553.180000
1318.557369	552.090000
1320.577775	556.600000
1322.593986	552.340000
1324.611596	556.700000
1326.626877	556.870000
1328.645416	559.830000
1330.659767	554.510000
1332.671792	549.610000
1334.687074	553.410000
1336.698171	556.800000
1338.710665	545.980000
1340.718976	560.020000
1342.730543	551.870000
1344.736070	561.280000
1346.744853	558.780000
1348.749458	556.900000
1350.757317	557.850000
1352.764714	570.240000
1354.766080	560.240000
1356.768843	559.700000
1358.771145	560.210000
1360.772988	559.640000
1362.774371	554.910000
1364.773441	569.460000
1366.772052	559.410000
1368.770205	560.000000
1370.767900	556.100000
1372.761431	559.960000
1374.756359	553.440000
1376.750830	558.170000
1378.744844	554.810000
1380.736551	559.280000
1382.727802	560.940000
1384.716748	554.660000
1386.707089	553.440000
1388.696975	552.450000
1390.684558	556.930000
1392.671686	549.660000
1394.656514	555.360000
1396.642735	561.250000
1398.626657	542.390000
1400.610126	552.860000
1402.593143	551.820000
1404.573861	548.770000
1406.555975	540.340000
1408.535791	545.920000
1410.515157	532.860000
1412.490383	550.580000
1414.468849	539.490000
1416.445020	544.380000
1418.420743	538.790000
1420.396016	543.980000
1422.368998	529.320000
1424.341532	540.530000
1426.313619	528.340000
1428.285257	538.960000
1430.252767	530.790000
1432.225352	531.460000
1434.190130	522.240000
1436.159981	531.250000
1438.125707	525.900000
1440.092826	528.950000
1442.057662	524.200000
1444.018379	528.650000
1445.984163	525.740000
1447.943992	521.090000
1449.905214	518.830000
1451.867829	520.630000
1453.826329	514.060000
1455.784387	522.130000
1457.742002	518.220000
1459.699176	516.910000
1461.654074	514.680000
1463.610364	518.520000
1465.564380	516.810000
1467.517956	510.830000
1469.469259	510.890000
1471.421954	508.650000
1473.372378	506.810000
1475.322363	509.610000
1477.271908	505.750000
1479.219185	508.550000
1481.164195	496.410000
1483.110596	501.900000
1485.056561	504.340000
1487.002087	513.440000
1488.945349	500.700000
1490.888174	506.000000
1492.828736	496.370000
1494.770689	506.280000
1496.710381	494.920000
1498.649637	498.670000
1500.588458	492.280000
1502.525020	504.620000
1504.462973	501.920000
1506.398668	502.510000
1508.333929	502.350000
1510.266933	496.480000
1512.199505	490.620000
1514.131645	499.870000
1516.063353	491.730000
1517.992807	498.450000
1519.923652	495.110000
1521.854066	500.950000
1523.780406	491.870000
1525.708138	494.420000
1527.633619	489.960000
1529.558671	491.480000
1531.483294	489.430000
1533.407488	492.530000
1535.329435	489.360000
1537.252771	489.950000
1539.173862	484.690000
1541.092708	497.110000
1543.012944	488.890000
1544.930936	492.830000
1546.848502	481.120000
1548.763826	481.460000
1550.680540	480.320000
1552.593199	482.230000
1554.509062	478.940000
1556.422685	478.830000
1558.334071	479.680000
1560.246845	484.100000
1562.155570	482.850000
1564.065685	483.970000
1565.975376	478.150000
1567.884643	485.140000
1569.791677	479.080000
1571.696478	479.460000
1573.602668	480.000000
1575.506626	477.760000
1577.410164	465.930000
1579.313280	470.710000
1581.214168	470.090000
1583.116443	474.840000
1585.016491	470.550000
1586.917926	479.810000
1588.815328	462.320000
1590.712311	473.620000
1592.608876	473.680000
1594.506829	470.400000
1596.398947	469.410000
1598.294258	462.860000
1600.189152	466.180000
1602.081824	470.450000
1603.974080	461.230000
1605.864115	463.740000
1607.753736	464.040000
1609.642940	465.300000
1611.531730	460.400000
1613.418303	464.360000
1615.306262	460.290000
1617.190205	463.990000
1619.075536	462.560000
1620.960452	464.280000
1622.843155	457.520000
1624.727245	460.740000
1626.607324	458.190000
1628.488789	459.610000
1630.368044	464.630000
1632.248685	462.140000
1634.123522	462.560000
1636.003341	459.950000
1637.879154	450.960000
1639.754557	456.410000
1641.631347	455.110000
1643.502339	458.030000
1645.376513	456.400000
1647.246689	455.930000
1649.120045	460.740000
1650.991198	452.420000
1652.860149	451.710000
1654.730486	448.610000
1656.596829	454.320000
1658.464558	452.620000
1660.330089	450.550000
1662.197004	456.580000
1664.059931	449.600000
1665.924243	447.430000
1667.786359	445.500000
1669.648071	446.320000
1671.511167	443.400000
1673.372069	453.460000
1675.230777	439.540000
1677.089082	448.350000
1678.948772	443.810000
1680.802695	441.240000
1682.659790	446.090000
1684.516483	448.000000
1686.369200	444.660000
1688.225087	447.610000
1690.077001	441.660000
1691.928514	443.870000
1693.779626	443.370000
1695.630338	447.360000
1697.480649	442.230000
1699.328776	447.200000
1701.178286	434.650000
1703.022048	434.750000
1704.870759	436.670000
1706.713725	439.330000
1708.559856	437.970000
1710.402026	441.070000
1712.247360	439.180000
1714.086954	442.690000
1715.927932	439.330000
1717.770293	442.500000
1719.608698	433.520000
1721.448486	437.870000
1723.286099	440.690000
1725.123316	438.780000
1726.958360	436.870000
1728.794787	440.550000
1730.629042	432.130000
1732.462902	435.880000
1734.296369	437.150000
1736.125889	434.450000
1737.958568	432.170000
1739.787303	436.360000
1741.619196	424.880000
1743.447146	438.930000
1745.274704	429.700000
1747.101870	435.210000
1748.928645	429.510000
1750.755029	429.910000
1752.577476	434.340000
1754.403077	429.570000
1756.224744	429.570000
1758.047793	430.070000
1759.868681	429.720000
1761.689179	431.290000
1763.511059	426.900000
1765.327239	432.570000
1767.146571	425.250000
1768.961976	436.070000
1770.780531	421.180000
1772.595161	428.540000
1774.409405	427.110000
1776.223261	431.090000
1778.036731	417.780000
1779.848048	426.600000
1781.660746	421.800000
1783.473057	435.270000
1785.281451	417.410000
1787.091226	427.780000
1788.897085	420.570000
1790.706090	428.360000
1792.511182	420.980000
1794.317655	428.650000
1796.123744	424.910000
1797.925923	428.180000
1799.731245	423.900000
1801.532659	419.410000
1803.335453	425.920000
1805.134341	425.780000
1806.934610	424.670000
1808.734497	423.120000
1810.532243	417.840000
1812.329607	426.360000
1814.126592	423.370000
1815.923196	420.500000
1817.717661	422.110000
1819.513505	425.020000
1821.303695	414.520000
1823.098781	424.100000
1824.888214	425.080000
1826.680784	413.510000
1828.471219	414.690000
1830.259520	416.820000
1832.050956	411.930000
1833.836746	419.090000
1835.623916	415.120000
1837.408954	417.330000
1839.197126	413.220000
1840.981412	420.430000
1842.763569	419.670000
1844.547104	416.470000
1846.328511	403.930000
1848.111297	420.070000
1849.890203	412.850000
1851.670487	410.080000
1853.448645	409.000000
1855.228182	415.490000
1857.005594	413.820000
1858.780882	413.940000
1860.557549	410.610000
1862.332092	412.560000
1864.108014	407.370000
1865.878316	413.280000
1867.651744	414.120000
1869.423053	413.190000
1871.193992	417.110000
1872.966307	415.230000
1874.733010	419.370000
1876.502837	417.510000
1878.268801	410.400000
1880.037889	414.980000
1881.803115	406.630000
1883.567972	416.080000
1885.334207	405.450000
1887.096583	418.630000
1888.858592	411.010000
1890.620233	412.060000
1892.381508	407.760000
1894.142415	416.350000
1895.902956	406.350000
1897.661387	410.690000
1899.419453	409.350000
1901.175410	407.450000
1902.932745	406.420000
1904.689713	406.080000
1906.444576	405.590000
1908.197333	409.650000
1909.949727	408.400000
1911.703496	410.600000
1913.455162	405.790000
1915.204726	407.970000
1916.955666	398.140000
1918.706242	402.000000
1920.452979	401.750000
1922.201093	400.710000
1923.947107	405.340000
1925.694497	402.670000
1927.439788	389.240000
1929.182982	404.360000
1930.927552	411.320000
1932.670025	409.790000
1934.412138	402.840000
1936.153891	404.520000
1937.895285	404.590000
1939.634585	414.650000
1941.373525	407.960000
1943.112108	401.920000
1944.848598	410.050000
1946.584731	407.140000
1948.322238	404.230000
1950.055923	413.660000
1951.790983	411.570000
1953.523955	409.340000
1955.256570	402.210000
1956.988828	406.940000
1958.720730	403.930000
1960.450546	417.620000
1962.178278	413.790000
1963.907383	417.310000
1965.636134	414.700000
1967.362801	412.190000
1969.089114	409.840000
1970.816800	413.400000
1972.538950	410.150000
1974.264201	411.070000
1975.985646	415.370000
1977.710190	414.080000
1979.432655	407.010000
1981.151316	415.940000
1982.873076	410.630000
1984.591034	413.590000
1986.310365	407.900000
1988.025897	410.540000
1989.746250	405.480000
1991.462803	401.600000
1993.175561	406.720000
1994.891414	413.960000
1996.605194	409.800000
1998.318625	413.580000
2000.029985	410.020000
2001.742718	412.250000
2003.451659	407.590000
2005.163694	415.850000
2006.870219	408.040000
2008.579837	414.450000
2010.287387	410.370000
2011.994590	415.080000
2013.699727	418.100000
2015.404517	409.300000
2017.110679	400.470000
2018.813059	417.740000
2020.516811	409.800000
2022.218499	408.810000
2023.919843	410.530000
2025.620841	417.400000
2027.319779	411.340000
2029.020087	409.790000
2030.716621	405.430000
2032.414526	412.230000
2034.110372	414.490000
2035.809304	410.510000
2037.502750	411.610000
2039.197568	419.660000
2040.892042	412.220000
2042.582748	416.480000
2044.276538	409.000000
2045.966561	413.670000
2047.657955	411.170000
2049.347296	419.450000
2051.038007	405.660000
2052.724956	408.000000
2054.411564	409.420000
2056.099543	411.470000
2057.783762	408.190000
2059.469351	409.490000
2061.154601	396.800000
2062.837803	399.150000
2064.522374	396.380000
2066.201483	394.350000
2067.885377	400.300000
2069.563811	398.680000
2071.245321	400.570000
2072.923081	401.230000
2074.600503	398.750000
2076.279296	399.000000
2077.956045	401.600000
2079.630753	399.180000
2081.306830	392.990000
2082.980867	401.360000
2084.654568	395.820000
2086.327934	401.240000
2087.999262	395.020000
2089.670255	399.800000
2091.340914	394.820000
2093.011238	398.740000
2094.681229	399.400000
2096.349184	397.440000
2098.016806	392.820000
2099.682393	403.410000
2101.349350	391.860000
2103.014272	401.220000
2104.678863	395.160000
2106.341422	396.650000
2108.005349	402.550000
2109.667246	400.780000
2111.328811	401.200000
2112.990045	398.220000
2114.649251	400.520000
2116.308126	402.040000
2117.966672	411.140000
2119.624888	407.090000
2121.279380	401.090000
2122.936937	401.440000
2124.594165	398.430000
2126.247671	403.510000
2127.902545	395.610000
2129.553701	404.590000
2131.207918	404.290000
2132.858419	403.330000
2134.510286	397.850000
2136.156745	401.940000
2137.807959	397.110000
2139.455459	406.590000
2141.104326	400.040000
2142.751175	410.740000
2144.397697	396.660000
2146.043894	404.550000
2147.686383	393.940000
2149.331930	405.840000
2150.973770	404.490000
2152.618667	401.290000
2154.259859	393.970000
2155.900727	398.440000
2157.541271	395.760000
2159.179803	398.830000
2160.819702	395.630000
2162.455900	398.530000
2164.093464	392.640000
2165.730705	397.410000
2167.365937	390.050000
2169.000848	396.930000
2170.635437	389.550000
2172.269704	393.020000
2173.900279	390.650000
2175.533904	389.790000
2177.163838	388.570000
2178.795137	392.460000
2180.424432	389.420000
2182.053406	396.160000
2183.682062	386.730000
2185.310398	391.670000
2186.936731	389.630000
2188.562746	387.360000
2190.186760	383.920000
2191.812138	382.820000
2193.435517	381.600000
2195.060259	386.310000
2196.681321	382.980000
2198.302066	385.480000
2199.924176	383.640000
2201.544288	385.970000
2203.162403	380.690000
2204.780203	386.960000
2206.397688	374.250000
2208.014857	389.720000
2209.631711	384.190000
2211.248250	382.750000
2212.862795	386.560000
2214.475348	387.320000
2216.089265	381.700000
2217.701191	379.960000
2219.314480	373.040000
2220.925779	385.840000
2222.535088	381.120000
2224.145761	389.280000
2225.754445	379.940000
2227.362817	386.240000
2228.969201	375.390000
2230.576949	380.160000
2232.182710	381.950000
2233.788160	385.590000
2235.391625	382.880000
2236.996454	382.340000
2238.599298	381.100000
2240.200159	383.530000
2241.802383	379.850000
2243.402624	385.260000
2245.004228	378.780000
2246.602180	381.390000
2248.201494	388.230000
2249.798828	382.780000
2251.395853	378.460000
2252.994241	380.250000
2254.588980	377.370000
2256.181742	384.350000
2257.775867	380.110000
2259.371353	384.930000
2260.963195	372.330000
2262.554730	388.710000
2264.147626	377.700000
2265.735213	384.690000
2267.327497	372.960000
2268.914473	374.190000
2270.504478	381.010000
2272.089178	372.380000
2273.678572	376.320000
2275.262663	378.360000
2276.848116	376.320000
2278.431599	382.570000
2280.018109	362.440000
2281.600985	377.890000
2283.183557	371.480000
2284.765826	365.550000
2286.344466	370.100000
2287.926129	371.530000
2289.504164	367.840000
2291.085222	370.680000
2292.662654	370.875000
2294.238121	371.070000
2295.816611	365.270000
2297.391477	368.690000
2298.966042	360.060000
2300.540307	368.650000
2302.114271	369.980000
2303.687935	371.680000
2305.261298	364.730000
2306.831043	365.010000
2308.400489	365.980000
2309.972954	368.080000
2311.540143	364.710000
2313.110351	369.560000
2314.676944	368.190000
2316.244897	369.780000
2317.810894	365.600000
2319.376594	369.700000
2320.941997	368.480000
2322.505445	375.480000
2324.070253	371.280000
2325.631453	380.690000
2327.195667	378.330000
2328.754620	380.320000
2330.316586	377.080000
2331.876602	375.470000
2333.436322	367.740000
2334.994093	375.630000
2336.551569	369.640000
2338.108751	380.030000
2339.663986	376.850000
2341.218926	370.320000
2342.773573	373.130000
2344.327926	369.240000
2345.881985	372.890000
2347.435750	376.670000
2348.987572	368.980000
2350.537450	373.220000
2352.090336	368.550000
2353.637980	372.800000
2355.188631	368.070000
2356.735692	375.210000
2358.284110	369.910000
2359.832236	376.940000
2361.376774	371.040000
2362.922671	374.670000
2364.466628	369.900000
2366.011943	373.450000
2367.553673	378.590000
2369.096760	373.820000
2370.637912	367.380000
2372.178774	371.420000
2373.719347	372.970000
2375.259631	376.050000
2376.799625	367.530000
2378.336042	375.700000
2379.875460	372.080000
2381.411301	368.210000
2382.948498	370.030000
2384.482120	373.600000
2386.018743	374.330000
2387.553434	369.810000
2389.086196	363.180000
2390.618671	373.670000
2392.149219	374.740000
2393.682764	378.620000
2395.211098	371.740000
2396.740788	375.810000
2398.270193	371.170000
2399.799312	369.200000
2401.328147	369.570000
2402.851776	375.690000
2404.380042	369.240000
2405.903104	375.600000
2407.430800	375.920000
2408.951657	376.700000
2410.477147	371.860000
2411.999076	373.240000
2413.522361	372.200000
2415.043725	376.030000
2416.563169	369.300000
2418.083968	376.530000
2419.602848	363.610000
2421.121446	376.710000
2422.638127	368.810000
2424.156162	369.910000
2425.673916	367.780000
2427.188119	371.750000
2428.702041	369.380000
2430.215683	371.140000
2431.730680	360.320000
2433.242128	370.630000
2434.754931	364.090000
2436.265821	372.390000
2437.776431	369.930000
2439.285130	370.100000
2440.796816	365.720000
2442.304957	375.590000
2443.812821	364.810000
2445.320407	366.970000
2446.824452	363.530000
2448.331483	371.600000
2449.836605	362.010000
2451.341450	364.080000
2452.844388	359.630000
2454.347049	359.940000
2455.849434	359.430000
2457.349914	364.890000
2458.851747	359.660000
2460.351676	359.090000
2461.851329	354.740000
2463.350706	357.350000
2464.848181	356.840000
2466.343755	355.140000
2467.842308	350.840000
2469.337332	357.400000
2470.833710	355.190000
2472.326561	356.260000
2473.820764	355.420000
2475.314694	355.050000
2476.805101	348.400000
2478.298484	358.600000
2479.789970	351.790000
2481.279559	358.640000
2482.768876	345.050000
2484.256298	358.320000
2485.746695	349.600000
2487.233573	360.380000
2488.721803	350.200000
2490.206517	349.390000
2491.690960	350.070000
2493.176755	353.770000
2494.660657	346.420000
2496.145911	356.540000
2497.626031	350.120000
2499.109123	356.390000
2500.590325	354.220000
2502.071258	351.510000
2503.550302	355.280000
2505.029077	350.710000
2506.507584	348.930000
2507.985823	357.130000
2509.463793	355.590000
2510.938259	358.070000
2512.415693	344.950000
2513.889624	356.910000
2515.364906	357.240000
2516.839920	358.900000
2518.311433	350.750000
2519.784296	358.800000
2521.255277	353.210000
2522.727608	354.840000
2524.194826	354.040000
2525.665009	352.980000
2527.133312	355.820000
2528.601350	357.040000
2530.069123	353.440000
2531.536631	352.280000
2533.003874	355.590000
2534.467625	353.020000
2535.932726	351.000000
2537.395950	353.540000
2538.860524	354.330000
2540.321608	358.480000
2541.784042	354.950000
2543.246213	359.910000
2544.704898	352.430000
2546.168155	353.850000
2547.626315	357.560000
2549.085824	360.660000
2550.540240	349.530000
2551.999225	352.330000
2553.456339	353.640000
2554.911582	358.860000
2556.366564	348.910000
2557.819676	352.400000
2559.274137	345.470000
2560.726729	352.950000
2562.179061	354.010000
2563.629525	357.590000
2565.082945	347.120000
2566.531283	351.550000
2567.982577	348.150000
2569.432004	346.180000
2570.877959	343.820000
2572.326870	349.250000
2573.772309	342.080000
2575.219097	354.770000
2576.664021	344.980000
2578.108688	356.470000
2579.554702	351.160000
2580.997249	349.720000
2582.441144	345.410000
2583.881574	349.220000
2585.323351	339.750000
2586.763269	348.120000
2588.204534	343.910000
2589.642338	341.450000
2591.083091	348.660000
2592.518781	352.130000
2593.957421	340.480000
2595.394204	350.850000
2596.829130	344.380000
2598.267005	346.830000
2599.699821	342.590000
2601.133985	341.930000
2602.566295	341.160000
2603.999951	353.190000
2605.431754	337.410000
2606.863304	343.120000
2608.294600	333.580000
2609.724044	344.700000
2611.153237	343.020000
2612.580578	341.570000
2614.009266	343.250000
2615.437701	342.350000
2616.862689	337.460000
2618.289024	341.940000
2619.713510	343.760000
2621.139342	347.270000
2622.561730	350.450000
2623.985464	338.950000
2625.407351	341.840000
2626.828989	340.360000
2628.248781	336.620000
2629.669919	341.240000
2631.090807	338.450000
2632.508257	346.960000
2633.928646	343.920000
2635.345598	343.970000
2636.762302	343.690000
2638.178757	338.570000
2639.594964	339.360000
2641.010922	338.560000
2642.425040	337.190000
2643.838911	350.040000
2645.250942	337.620000
2646.664318	335.560000
2648.074264	335.640000
2649.487145	343.900000
2650.896599	336.520000
2652.305806	338.400000
2653.713177	340.300000
2655.123482	343.440000
2656.531951	334.600000
2657.938585	347.720000
2659.344974	341.960000
2660.749529	338.510000
2662.155428	338.180000
2663.559494	347.730000
2664.963316	339.770000
2666.366893	342.010000
2667.768638	336.140000
2669.171727	346.940000
2670.571399	336.540000
2671.972413	348.960000
2673.370012	336.170000
2674.770541	342.150000
2676.167655	338.530000
2677.566112	340.560000
2678.962741	336.210000
2680.359128	340.090000
2681.755274	337.910000
2683.149593	339.330000
2684.545255	333.750000
2685.937507	338.510000
2687.331103	341.670000
2688.722874	331.990000
2690.115987	328.430000
2691.507277	339.560000
2692.896744	332.890000
2694.285971	338.380000
2695.674959	330.310000
2697.065289	336.900000
2698.450634	334.640000
2699.838903	331.820000
2701.225352	339.000000
2702.611562	341.190000
2703.997534	333.900000
2705.380106	340.560000
2706.764021	327.540000
2708.147698	335.700000
2709.531137	325.110000
2710.911180	332.450000
2712.292565	331.360000
2713.672134	333.790000
2715.053045	331.450000
2716.432141	336.890000
2717.809422	330.770000
2719.188045	332.390000
2720.564855	331.390000
2721.941429	335.820000
2723.317767	328.230000
2724.692293	331.360000
2726.068160	333.220000
2727.440640	336.760000
2728.816036	331.050000
2730.186472	333.780000
2731.558249	327.550000
2732.929791	333.840000
2734.299525	331.070000
2735.670600	333.730000
2737.039867	325.420000
2738.408900	336.210000
2739.776126	330.220000
2741.143120	337.600000
2742.509881	328.770000
2743.876409	326.510000
2745.241132	332.290000
2746.605624	333.620000
2747.969883	334.110000
2749.333910	333.950000
2750.697706	330.730000
2752.058128	334.100000
2753.421461	330.310000
2754.779851	331.700000
2756.141151	323.310000
2757.499080	327.200000
2758.859919	321.700000
2760.218957	325.610000
2761.574627	322.120000
2762.933205	325.080000
2764.288417	321.720000
2765.643399	327.410000
2766.996584	321.930000
2768.352676	322.370000
2769.705404	318.680000
2771.057903	323.590000
2772.410174	317.610000
2773.763784	326.040000
2775.114032	317.240000
2776.462487	326.280000
2777.813846	324.450000
2779.161846	322.670000
2780.511185	320.200000
2781.858731	326.520000
2783.206050	315.110000
2784.553143	322.820000
2785.898445	315.140000
2787.243521	323.740000
2788.588371	315.410000
2789.932994	325.570000
2791.274266	318.070000
2792.616876	320.810000
2793.959260	319.720000
2795.301420	326.320000
2796.640230	318.180000
2797.981939	323.840000
2799.320301	313.960000
2800.660000	316.690000
2801.997913	322.110000
2803.334042	317.350000
2804.669947	315.640000
2806.007190	317.900000
2807.342649	315.500000
2808.677885	327.660000
2810.011338	317.130000
2811.346129	322.900000
2812.677578	318.510000
2814.011923	325.370000
2815.341370	311.470000
2816.672154	323.860000
2818.002716	316.900000
2819.331499	318.680000
2820.661618	317.040000
2821.989959	320.050000
2823.318079	320.120000
2824.644422	314.680000
2825.972100	313.700000
2827.296446	319.770000
2828.622127	307.310000
2829.946033	318.800000
2831.269720	313.480000
2832.594742	314.720000
2833.916434	312.580000
2835.237908	316.080000
2836.559163	305.440000
2837.880199	317.230000
2839.199463	307.160000
2840.520062	315.830000
2841.838889	304.440000
2843.157498	317.270000
2844.474336	306.140000
2845.790958	309.380000
2847.107361	306.980000
2848.421996	314.420000
2849.737965	307.950000
2851.050614	316.160000
2852.364599	309.810000
2853.678366	318.590000
2854.991918	306.900000
2856.303702	316.420000
2857.613720	305.240000
2858.925073	315.510000
2860.233111	309.720000
2861.542484	310.920000
2862.851641	311.390000
2864.160583	316.890000
2865.467762	309.190000
2866.773177	311.880000
2868.079927	312.330000
2869.384914	313.960000
2870.689688	307.320000
2871.992700	315.220000
2873.298594	309.920000
2874.599632	315.610000
2875.902005	312.900000
2877.202618	317.610000
2878.504565	305.740000
2879.806299	302.270000
2881.104728	313.140000
2882.404492	316.010000
2883.702497	309.970000
2885.000291	313.000000
2886.296329	304.560000
2887.593700	308.940000
2888.889315	302.890000
2890.184719	311.890000
2891.479913	308.730000
2892.771808	311.700000
2894.066580	302.660000
2895.358055	309.740000
2896.650863	304.810000
2897.943461	310.480000
2899.232765	302.950000
2900.523401	307.580000
2901.812286	311.050000
2903.102504	307.640000
2904.389430	307.150000
2905.677688	314.640000
2906.964196	299.340000
2908.250497	308.720000
2909.536589	304.580000
2910.820933	304.560000
2912.108149	298.970000
2913.390537	306.270000
2914.674258	298.860000
2915.956233	300.120000
2917.238001	299.540000
2918.518023	309.800000
2919.800915	299.040000
2921.082062	309.660000
2922.359927	305.060000
2923.640661	303.180000
2924.918114	302.320000
2926.195361	300.650000
2927.470867	296.960000
2928.749240	305.440000
2930.022798	299.040000
2931.299224	309.560000
2932.573909	299.540000
2933.846854	306.940000
2935.121129	292.630000
2936.393665	300.960000
2937.665997	298.070000
2938.935055	302.530000
2940.206979	293.020000
2941.477165	301.880000
2942.747148	294.230000
2944.016927	301.940000
2945.284969	303.200000
2946.551276	297.510000
2947.817380	292.250000
2949.084814	301.650000
2950.350514	300.510000
2951.616011	301.210000
2952.881306	301.590000
2954.143336	299.760000
2955.406697	297.390000
2956.669855	295.890000
2957.931282	296.880000
2959.194038	298.070000
2960.455063	298.390000
2961.714356	298.870000
2962.973450	296.420000
2964.232343	297.430000
2965.491036	292.960000
2966.749529	291.910000
2968.006293	293.950000
2969.262857	298.280000
2970.517694	289.290000
2971.773860	291.470000
2973.026770	294.150000
2974.281010	296.850000
2975.535051	295.020000
2976.787366	297.740000
2978.039483	290.170000
2979.289875	294.370000
2980.543122	301.090000
2981.791592	293.240000
2983.042916	300.370000
2984.290992	294.050000
2985.538870	292.950000
2986.786551	303.530000
2988.034036	296.210000
2989.279799	295.440000
2990.525365	297.220000
2991.772259	297.030000
2993.015909	293.140000
2994.260887	297.840000
2995.502622	294.810000
2996.747208	297.590000
2997.990074	289.450000
2999.229700	299.530000
3000.472176	288.860000
3001.711413	298.110000
3002.951977	292.960000
3004.190824	293.920000
3005.429477	291.250000
3006.666414	297.380000
3007.904678	289.680000
3009.141228	290.300000
3010.377583	290.390000
3011.613745	293.650000
3012.848194	289.360000
3014.082449	297.090000
3015.316511	296.050000
3016.548861	292.580000
3017.779499	285.660000
3019.012983	293.110000
3020.244755	291.070000
3021.474817	288.810000
3022.704687	291.890000
3023.932847	296.580000
3025.162333	292.640000
3026.390111	293.190000
3027.617697	293.800000
3028.846609	296.230000
3030.070779	292.500000
3031.297792	297.430000
3032.521581	295.310000
3033.746697	293.270000
3034.970106	291.170000
3036.193326	289.460000
3037.414840	293.520000
3038.639195	297.420000
3039.858815	286.870000
3041.079760	296.810000
3042.300517	293.110000
3043.519570	294.570000
3044.739949	290.320000
3045.957111	292.170000
3047.175598	288.240000
3048.392384	299.180000
3049.608981	291.650000
3050.825390	286.860000
3052.038587	286.740000
3053.254621	287.670000
3054.467443	286.090000
3055.683102	288.800000
3056.894038	293.680000
3058.106299	293.240000
3059.318374	285.450000
3060.530262	290.800000
3061.740452	286.290000
3062.950456	289.200000
3064.160275	290.060000
3065.368397	294.980000
3066.576333	288.480000
3067.782575	292.980000
3068.990140	283.320000
3070.196012	285.980000
3071.401698	288.640000
3072.607199	297.810000
3073.811007	289.760000
3075.016139	292.530000
3076.219579	292.330000
3077.421326	289.470000
3078.622890	286.210000
3079.824270	292.530000
3081.025466	286.380000
3082.224972	298.070000
3083.424294	287.920000
3084.624940	289.780000
3085.823896	284.480000
3087.019658	292.670000
3088.218249	286.580000
3089.413646	292.000000
3090.610366	285.730000
3091.803894	285.240000
3093.000251	279.390000
3094.194920	285.230000
3095.386399	283.750000
3096.582209	287.760000
3097.773326	284.050000
3098.965765	286.380000
3100.155017	288.120000
3101.347095	291.020000
3102.537488	285.970000
3103.724696	287.400000
3104.913227	285.030000
3106.103080	282.630000
3107.289748	285.360000
3108.476237	288.590000
3109.662546	279.520000
3110.850177	290.910000
3112.034627	282.660000
3113.217396	285.700000
3114.402989	278.370000
3115.586901	278.970000
3116.769135	285.730000
3117.951190	286.610000
3119.133068	283.600000
3120.314767	288.090000
3121.494788	280.240000
3122.673133	287.480000
3123.854299	285.810000
3125.032289	280.820000
3126.210102	278.750000
3127.387738	285.540000
3128.563699	275.880000
3129.739483	289.370000
3130.916589	278.960000
3132.092020	283.430000
3133.265778	275.690000
3134.437864	282.330000
3135.611270	284.020000
3136.784501	284.800000
3137.956059	275.760000
3139.128939	290.810000
3140.298651	281.650000
3141.469684	286.560000
3142.639046	281.180000
3143.806739	293.430000
3144.977247	290.780000
3146.143096	290.870000
3147.313255	279.660000
3148.478756	275.310000
3149.644084	284.230000
3150.809238	287.130000
3151.974218	281.640000
3153.140519	281.540000
3154.302166	277.270000
3155.465134	281.910000
3156.627928	276.090000
3157.790550	283.680000
3158.951507	269.290000
3160.112291	284.240000
3161.272903	275.920000
3162.431852	275.180000
3163.590628	273.460000
3164.749233	275.760000
3165.907666	274.000000
3167.065927	277.650000
3168.222526	274.520000
3169.377464	275.270000
3170.533721	264.250000
3171.688318	276.660000
3172.842743	272.780000
3173.995509	273.260000
3175.148105	268.750000
3176.300530	278.100000
3177.452786	272.640000
3178.604872	275.420000
3179.753811	268.870000
3180.905557	277.640000
3182.055645	272.780000
3183.204077	275.120000
3184.352340	271.830000
3185.500433	283.920000
3186.648358	272.930000
3187.794628	284.840000
3188.940729	274.490000
3190.085175	274.130000
3191.229454	276.550000
3192.373565	286.920000
3193.518994	276.250000
3194.661283	277.020000
3195.803406	274.690000
3196.945361	276.230000
3198.087150	270.340000
3199.228771	279.800000
3200.367256	276.780000
3201.507059	276.290000
3202.648180	274.810000
3203.786166	278.720000
3204.922503	269.580000
3206.058674	274.810000
3207.196163	270.170000
3208.332002	273.500000
3209.469159	272.820000
3210.601703	274.530000
3211.738529	267.320000
3212.870743	276.180000
3214.004275	269.380000
3215.137641	269.910000
3216.267880	262.660000
3217.400917	272.740000
3218.530828	268.850000
3219.662056	268.040000
3220.790158	264.780000
3221.921057	267.630000
3223.050313	262.650000
3224.177924	268.120000
3225.302414	266.340000
3226.431179	270.940000
3227.556822	264.240000
3228.682302	257.630000
3229.806141	265.360000
3230.932774	264.650000
3232.054810	259.040000
3233.178162	268.130000
3234.301352	260.200000
3235.424380	268.230000
3236.545768	257.870000
3237.666995	269.130000
3238.786583	263.000000
3239.906010	273.740000
3241.023799	264.150000
3242.144381	271.290000
3243.261848	267.990000
3244.379156	275.910000
3245.496302	267.550000
3246.611813	269.490000
3247.728639	274.460000
3248.842354	268.270000
3249.958860	266.540000
3251.073730	273.360000
3252.185492	268.250000
3253.297095	274.400000
3254.410012	267.630000
3255.522771	273.340000
3256.632423	260.840000
3257.743390	273.280000
3258.854197	264.440000
3259.963374	269.300000
3261.070919	267.870000
3262.179779	267.640000
3263.288480	272.640000
3264.394079	277.420000
3265.500992	267.130000
3266.606277	266.340000
3267.712875	269.880000
3268.816373	274.770000
3269.921185	268.710000
3271.025840	268.950000
3272.127396	268.500000
3273.228797	276.830000
3274.331511	272.000000
3275.434068	272.450000
3276.533530	269.730000
3277.635774	273.850000
3278.734923	270.480000
3279.832448	275.200000
3280.929817	271.290000
3282.029969	277.140000
3283.127027	267.770000
3284.223930	274.170000
3285.320679	267.500000
3286.412868	274.470000
3287.509306	260.990000
3288.604123	269.800000
3289.698784	275.080000
3290.791824	266.930000
3291.884710	259.530000
3292.975975	273.810000
3294.068553	265.580000
3295.159510	273.080000
3296.248848	266.820000
3297.338033	265.710000
3298.428531	262.200000
3299.515944	277.440000
3300.603205	265.890000
3301.691778	268.520000
3302.780198	266.580000
3303.864071	269.760000
3304.952186	265.750000
3306.037220	274.230000
3307.120637	271.400000
3308.205367	271.590000
3309.288482	268.510000
3310.372908	271.930000
3311.454256	268.190000
3312.536916	270.330000
3313.617962	271.140000
3314.698857	273.470000
3315.778139	267.140000
3316.857270	270.580000
3317.937712	261.060000
3319.015081	264.860000
3320.093760	273.880000
3321.170829	269.140000
3322.247747	266.310000
3323.323054	268.470000
3324.398212	271.290000
3325.474681	279.950000
3326.548080	265.690000
3327.621330	275.940000
3328.695891	263.180000
3329.768842	271.040000
3330.840186	273.250000
3331.912840	267.570000
3332.982427	266.370000
3334.053325	268.360000
3335.122616	266.650000
3336.193218	270.330000
3337.262213	264.420000
3338.329602	262.690000
3339.395386	263.920000
3340.465396	269.450000
3341.532343	260.480000
3342.596228	271.050000
3343.662881	261.610000
3344.727929	265.270000
3345.791374	261.880000
3346.854673	268.460000
3347.917826	263.680000
3348.980832	266.310000
3350.043691	259.430000
3351.104949	264.580000
3352.163150	264.140000
3353.225572	266.600000
3354.284937	263.320000
3355.344157	268.280000
3356.404687	256.960000
3357.460707	273.700000
3358.519492	266.670000
3359.573769	262.990000
3360.630809	262.750000
3361.686252	270.970000
3362.743003	263.060000
3363.798157	271.160000
3364.851713	263.500000
3365.903672	270.740000
3366.958393	258.750000
3368.010065	273.900000
3369.061594	264.800000
3370.114432	262.580000
3371.164222	261.580000
3372.215320	270.500000
3373.263373	266.000000
3374.314186	264.930000
3375.361953	268.920000
3376.409578	267.920000
3377.457060	268.710000
3378.502950	269.750000
3379.550148	271.210000
3380.594304	267.870000
3381.641218	265.320000
3382.686540	278.000000
3383.728822	260.160000
3384.770962	271.470000
3385.814410	261.840000
3386.857718	262.100000
3387.899435	256.400000
3388.941011	266.950000
3389.982447	265.220000
3391.022293	268.550000
3392.060552	259.630000
3393.100118	269.820000
3394.139543	266.070000
3395.177381	263.550000
3396.213633	263.770000
3397.249744	268.260000
3398.287163	264.550000
3399.321549	267.870000
3400.357242	265.250000
3401.392796	265.500000
3402.425319	266.740000
3403.460595	269.290000
3404.492840	261.620000
3405.524947	264.600000
3406.555470	261.020000
3407.587301	272.780000
3408.618992	264.470000
3409.647657	266.650000
3410.676183	263.560000
3411.706017	259.940000
3412.735712	260.930000
3413.762382	260.380000
3414.790359	266.670000
3415.815311	269.150000
3416.843013	262.970000
3417.867692	270.850000
3418.893677	271.120000
3419.918082	271.740000
3420.942351	260.850000
3421.965041	267.130000
3422.987595	261.780000
3424.011455	267.740000
3425.032295	260.160000
3426.053000	269.430000
3427.075010	258.970000
3428.094002	257.790000
3429.112859	262.160000
3430.133021	262.510000
3431.150167	263.740000
