-116.521679	30.600000
-113.852079	2.200000
-111.185414	21.000000
-108.519501	11.000000
-105.856521	21.800000
-103.192110	13.800000
-100.530630	-4.400000
-97.867721	14.400000
-95.209918	2.200000
-92.550686	12.800000
-89.892202	-1.000000
-87.236643	21.200000
-84.579654	36.200000
-81.927764	9.800000
-79.274444	31.400000
-76.624043	0.400000
-73.972214	-2.000000
-71.325474	18.400000
-68.677306	49.600000
-66.029880	7.000000
-63.385369	21.400000
-60.739428	11.000000
-58.098569	-4.200000
-55.456281	14.200000
-52.816902	2.400000
-50.176093	12.000000
-47.536025	33.800000
-44.901030	7.200000
-42.264605	14.800000
-39.631083	5.000000
-36.996133	15.800000
-34.366248	24.400000
-31.732771	6.000000
-29.104356	21.000000
-26.476675	18.400000
-23.847565	17.200000
-21.223512	19.200000
-18.595870	38.600000
-15.973281	16.000000
-13.351424	-7.400000
-10.730297	39.800000
-8.109901	23.800000
-5.492392	45.200000
-2.873455	92.200000
-0.257403	195.800000
2.357920	186.000000
4.972515	134.000000
7.584229	9.000000
10.197371	5.800000
12.805479	5.600000
15.417169	21.000000
18.023828	-2.800000
20.631915	17.600000
23.239278	2.800000
25.841616	-7.600000
28.447532	4.000000
31.048426	15.000000
33.650748	23.600000
36.248053	25.600000
38.848933	25.400000
41.444798	42.600000
44.042092	26.200000
46.638666	5.400000
49.230231	8.600000
51.823224	10.800000
54.413356	-5.600000
57.004915	11.800000
59.593616	12.800000
62.183743	11.600000
64.768871	32.400000
67.355427	26.000000
69.941269	-0.400000
72.524257	11.000000
75.108671	-7.800000
77.685957	12.600000
80.266809	29.000000
82.844812	16.200000
85.422105	0.800000
88.000824	3.600000
90.574561	-1.200000
93.149726	15.000000
95.722047	12.000000
98.293660	22.000000
100.862433	16.200000
103.432633	11.000000
105.999994	0.000000
108.568782	26.000000
111.134733	45.000000
113.697849	35.800000
116.264521	18.400000
118.821972	38.600000
121.385108	26.200000
123.943284	38.600000
126.505015	56.000000
129.061789	54.400000
131.619989	88.600000
134.173237	141.600000
136.725787	178.800000
139.281887	251.400000
141.833039	331.400000
144.383494	424.000000
146.933251	449.000000
149.480189	483.200000
152.026432	516.800000
154.574100	560.200000
157.121072	583.200000
159.663109	576.400000
162.204452	543.600000
164.745102	586.800000
167.287178	567.200000
169.826442	529.600000
172.362898	570.400000
174.898662	583.400000
177.435852	563.600000
179.972351	562.400000
182.506044	586.200000
185.036933	574.800000
187.567134	566.800000
190.098761	570.200000
192.627586	553.200000
195.153612	583.000000
197.678952	574.600000
200.205717	563.000000
202.729686	546.800000
205.252970	538.000000
207.775569	564.000000
210.295375	578.200000
212.814497	568.000000
215.332938	570.200000
217.852802	573.000000
220.365665	598.600000
222.882059	538.400000
225.397771	615.800000
227.908593	594.400000
230.420840	571.600000
232.930305	544.000000
235.439090	568.200000
237.947198	587.600000
240.456730	547.800000
242.961381	573.600000
245.465356	595.800000
247.970755	550.400000
250.471279	564.400000
252.975326	549.600000
255.472403	594.800000
257.973003	575.400000
260.470831	590.800000
262.967986	547.000000
265.464468	594.000000
267.956087	535.200000
270.451226	587.200000
272.943598	556.800000
275.435300	591.200000
277.924239	589.400000
280.414601	542.200000
282.902202	587.800000
285.387043	585.400000
287.875399	549.400000
290.356815	545.200000
292.841745	532.000000
295.321830	564.400000
297.805427	555.800000
300.284181	560.000000
302.764358	573.800000
305.241784	584.600000
307.718546	542.200000
310.194644	601.400000
312.667995	563.000000
315.140683	577.400000
317.612710	556.200000
320.084076	556.000000
322.552697	550.800000
325.020660	577.600000
327.490044	541.600000
329.954606	568.200000
332.422672	587.400000
334.885918	540.800000
337.348506	553.800000
339.810438	577.400000
342.271713	559.600000
344.730254	600.000000
347.190217	538.200000
349.647447	552.400000
352.104023	534.200000
354.559945	568.600000
357.013137	549.000000
359.467752	574.600000
361.917565	589.800000
364.370874	580.600000
366.819384	553.600000
369.267244	539.000000
371.716526	523.200000
374.161014	535.200000
376.606924	519.800000
379.052184	554.400000
381.494726	569.600000
383.936620	559.600000
386.377867	554.200000
388.816398	559.400000
391.256350	566.800000
393.693590	566.600000
396.128117	568.400000
398.566132	588.400000
400.999370	516.400000
403.434029	569.000000
405.863916	573.000000
408.297288	554.600000
410.725890	568.200000
413.153850	544.200000
415.583232	568.400000
418.007848	564.200000
420.433886	561.800000
422.859283	539.800000
425.284040	553.400000
427.704039	535.000000
430.125458	546.800000
432.544182	543.400000
434.964326	586.000000
437.381775	560.400000
439.800644	552.200000
442.216820	601.200000
444.628248	527.200000
447.043153	577.400000
449.455369	549.400000
451.866950	547.000000
454.277897	536.600000
456.686158	570.400000
459.093786	539.400000
461.500782	564.800000
463.907147	565.200000
466.310829	543.000000
468.713881	560.200000
471.116303	537.000000
473.518095	582.000000
475.917209	532.400000
478.317743	540.400000
480.717648	552.200000
483.112831	552.600000
485.511480	547.400000
487.905408	538.600000
490.298711	550.200000
492.691389	529.200000
495.083441	569.800000
497.476911	509.600000
499.865669	530.600000
502.251761	540.200000
504.639273	500.400000
507.026162	553.200000
509.410387	577.200000
511.796030	542.000000
514.179012	532.000000
516.559333	532.800000
518.941073	550.200000
521.320154	548.200000
523.700654	562.000000
526.078496	563.400000
528.453682	542.800000
530.828252	546.200000
533.204239	559.200000
535.577574	503.800000
537.952326	537.600000
540.322393	534.000000
542.691844	530.600000
545.062713	534.200000
547.428901	513.800000
549.796508	535.400000
552.161470	544.800000
554.525818	555.600000
556.889553	569.000000
559.254706	521.800000
561.615187	573.200000
563.977086	553.600000
566.336344	540.600000
568.692964	505.200000
571.053030	582.400000
573.406404	513.400000
575.763223	574.200000
578.117407	536.000000
580.470982	553.600000
582.823950	537.000000
585.174285	548.800000
587.526038	550.600000
589.871114	529.200000
592.221653	537.200000
594.565520	498.600000
596.914848	528.600000
599.259527	538.800000
601.601582	536.800000
603.945054	502.400000
606.285903	504.600000
608.626149	546.200000
610.963776	521.400000
613.304837	530.200000
615.641260	523.800000
617.979100	551.000000
620.314323	526.400000
622.646930	516.200000
624.980953	541.200000
627.312362	525.200000
629.643173	566.800000
631.973387	542.000000
634.303002	502.800000
636.627994	516.200000
638.958428	519.800000
641.284241	511.600000
643.607446	536.800000
645.932068	539.400000
648.254084	509.000000
650.575506	543.800000
652.894326	513.000000
655.214561	556.400000
657.534203	539.400000
659.851244	555.200000
662.167693	554.200000
664.481544	543.400000
666.796811	530.000000
669.109481	537.000000
671.423566	545.400000
673.733051	534.600000
676.043952	561.800000
678.352260	520.600000
680.659980	544.200000
682.969114	533.800000
685.273656	507.600000
687.577612	547.600000
689.880982	510.600000
692.185766	508.600000
694.485963	538.600000
696.787576	543.400000
699.088603	467.800000
701.385049	534.800000
703.682910	517.200000
705.980187	514.000000
708.276881	498.800000
710.568999	499.200000
712.864528	498.600000
715.155483	532.200000
717.447853	500.000000
719.737648	519.000000
722.026862	496.000000
724.315497	534.800000
726.601559	522.800000
728.889036	539.800000
731.173941	528.800000
733.458269	565.000000
735.740028	522.600000
738.023201	537.200000
740.305797	522.000000
742.583837	525.200000
744.863292	548.200000
747.142170	534.600000
749.420474	514.800000
751.694228	505.600000
753.969395	561.400000
756.243989	548.000000
758.516024	488.000000
760.789472	561.400000
763.060362	541.000000
765.328696	553.200000
767.598443	525.200000
769.865636	560.600000
772.132258	516.600000
774.398310	540.600000
776.661811	513.000000
778.926725	529.200000
781.191069	528.000000
783.450884	557.600000
785.712111	506.400000
787.972771	534.200000
790.230885	570.200000
792.486454	547.600000
794.745414	515.400000
796.997874	546.400000
799.255702	538.000000
801.509011	524.000000
803.759780	525.200000
806.011961	543.800000
808.261603	548.000000
810.512658	542.600000
812.759201	515.400000
815.007156	533.800000
817.252577	499.400000
819.499409	531.400000
821.745680	538.200000
823.987446	524.800000
826.232596	523.200000
828.471273	565.600000
830.713332	515.000000
832.950893	542.400000
835.189866	534.800000
837.426312	542.000000
839.664169	517.800000
841.899501	535.800000
844.132310	531.200000
846.366530	604.800000
848.598227	520.800000
850.829370	517.200000
853.059958	522.800000
855.289992	562.400000
857.519472	543.600000
859.744470	542.000000
861.972843	518.000000
864.196736	539.200000
866.422041	546.400000
868.642870	532.200000
870.867071	534.000000
873.086799	532.000000
875.307937	518.200000
877.528525	512.800000
879.746604	513.800000
881.966092	556.600000
884.181114	541.600000
886.395588	571.600000
888.609515	531.000000
890.822895	569.200000
893.035727	537.600000
895.248013	520.000000
897.457796	507.400000
899.667034	548.200000
901.875727	521.600000
904.081920	534.600000
906.289524	532.000000
908.494629	527.400000
910.699191	517.600000
912.901258	520.600000
915.104734	541.200000
917.305716	549.200000
919.506156	516.400000
921.708005	595.800000
923.903463	556.800000
926.102280	517.400000
928.296658	539.000000
930.494394	536.200000
932.687694	540.000000
934.882403	571.600000
937.074626	512.400000
939.266310	536.600000
941.457457	543.200000
943.646121	564.000000
945.834249	515.000000
948.019896	542.400000
950.208895	550.400000
952.393471	576.200000
954.577512	543.400000
956.764903	583.200000
958.943990	535.400000
961.126428	514.400000
963.308332	529.800000
965.487761	541.800000
967.664718	547.800000
969.843083	533.200000
972.022855	545.600000
974.196278	587.200000
976.373047	565.600000
978.545409	585.600000
980.719179	548.600000
982.888545	564.000000
985.061255	555.800000
987.231500	587.200000
989.401215	550.800000
991.570403	573.800000
993.735193	585.600000
995.903324	580.600000
998.067060	545.200000
1000.232204	603.800000
1002.394888	550.600000
1004.557047	601.400000
1006.716749	560.800000
1008.875926	577.600000
1011.036510	582.600000
1013.194639	598.200000
1015.352245	583.000000
1017.509327	565.600000
1019.665885	611.800000
1021.818064	592.800000
1023.971650	554.000000
1026.124714	607.400000
1028.275329	559.400000
1030.427351	570.200000
1032.574999	555.800000
1034.725979	572.400000
1036.872588	593.600000
1039.018678	572.200000
1041.164250	563.600000
1043.311227	564.000000
1045.451915	589.400000
1047.595933	587.600000
1049.737510	570.800000
1051.878571	582.400000
1054.021036	590.200000
1056.157221	585.200000
1058.296733	602.400000
1060.431890	620.000000
1062.570371	593.000000
1064.704498	608.800000
1066.838112	585.600000
1068.973130	586.400000
1071.103800	551.200000
1073.235874	580.600000
1075.365519	558.200000
1077.494652	605.200000
1079.623273	594.800000
1081.751383	590.800000
1083.877067	593.800000
1086.002241	575.800000
1088.128819	582.800000
1090.251059	593.800000
1092.374704	601.200000
1094.494014	587.000000
1096.618553	576.800000
1098.736848	569.200000
1100.856547	551.800000
1102.973827	592.200000
1105.090600	584.400000
1107.206868	592.000000
1109.320719	586.200000
1111.435975	564.600000
1113.546907	596.000000
1115.661152	593.200000
1117.771076	580.800000
1119.882404	587.200000
1121.993227	599.400000
1124.099734	573.800000
1126.209550	570.600000
1128.315053	555.600000
1130.421958	583.400000
1132.522648	586.000000
1134.628550	590.400000
1136.730143	578.600000
1138.833139	593.000000
1140.935634	586.400000
1143.031922	565.800000
1145.133417	543.800000
1147.230610	580.000000
1149.327305	589.600000
1151.423501	574.400000
1153.519199	586.800000
1155.614400	581.600000
1157.707204	588.400000
1159.801410	579.600000
1161.889425	587.600000
1163.982639	545.000000
1166.069664	557.000000
1168.159988	566.600000
1170.246024	576.800000
1172.335359	553.000000
1174.418512	556.800000
1176.503067	584.800000
1178.589024	575.200000
1180.670699	560.000000
1182.753775	592.200000
1184.834466	575.800000
1186.914666	591.000000
1188.994374	558.400000
1191.073591	583.400000
1193.150426	588.000000
1195.224879	614.000000
1197.302625	588.200000
1199.376101	603.800000
1201.450977	576.000000
1203.521586	613.000000
1205.593596	593.200000
1207.663231	615.800000
1209.734265	583.000000
1211.804813	596.000000
1213.871099	589.000000
1215.938786	614.000000
1218.004101	618.400000
1220.070816	570.000000
1222.133275	622.800000
1224.199019	576.400000
1226.260509	579.600000
1228.323400	610.800000
1230.383923	581.000000
1232.443962	609.600000
1234.503518	589.400000
1236.560710	627.800000
1238.617420	609.000000
1240.671766	585.400000
1242.729394	610.400000
1244.784659	632.400000
1246.835683	600.000000
1248.888107	642.600000
1250.940051	617.800000
1252.989637	634.000000
1255.038744	635.600000
1257.087372	650.600000
1259.135522	644.800000
1261.183194	676.400000
1263.226635	623.200000
1265.273352	605.600000
1267.317715	623.600000
1269.361602	629.000000
1271.403137	638.800000
1273.442323	669.400000
1275.484782	640.200000
1277.523018	682.200000
1279.562653	631.400000
1281.601813	666.200000
1283.636754	678.600000
1285.673094	685.000000
1287.707090	711.000000
1289.742483	690.800000
1291.773664	737.400000
1293.806242	733.200000
1295.838349	765.400000
1297.868115	794.200000
1299.899278	762.200000
1301.926235	823.400000
1303.954589	854.000000
1305.978738	892.200000
1308.006153	920.200000
1310.029365	976.600000
1312.053975	1039.600000
1314.076251	1148.000000
1316.099924	1234.400000
1318.121263	1470.000000
1320.142136	1815.600000
1322.162541	2366.800000
1324.178753	3504.800000
1326.196362	5970.600000
1328.211643	12522.000000
1330.230183	28980.600000
1332.244534	52358.800000
1334.256558	56737.200000
1336.271841	38670.400000
1338.282938	14844.400000
1340.295432	5675.800000
1342.303743	3093.000000
1344.315309	2037.000000
1346.320837	1496.600000
1348.329620	1264.600000
1350.334225	1100.200000
1352.342084	998.800000
1354.349481	925.200000
1356.350847	841.400000
1358.353609	814.000000
1360.355912	769.400000
1362.357755	786.200000
1364.359138	772.800000
1366.358208	726.600000
1368.356819	712.000000
1370.354971	693.600000
1372.352666	712.000000
1374.346198	726.000000
1376.341125	707.400000
1378.335596	717.000000
1380.329610	665.800000
1382.321317	703.400000
1384.312568	661.800000
1386.301514	686.400000
1388.291856	657.400000
1390.281742	666.200000
1392.269324	674.800000
1394.256453	668.200000
1396.241280	683.800000
1398.227502	695.200000
1400.211423	669.200000
1402.194892	683.000000
1404.177909	657.400000
1406.158628	647.800000
1408.140741	677.600000
1410.120558	667.400000
1412.099923	668.600000
1414.075150	686.200000
1416.053615	670.200000
1418.029787	697.800000
1420.005509	709.000000
1421.980783	703.600000
1423.953765	670.200000
1425.926299	688.200000
1427.898385	706.800000
1429.870024	735.200000
1431.837534	678.400000
1433.810118	707.800000
1435.774896	689.200000
1437.744747	725.000000
1439.710474	730.000000
1441.677593	734.600000
1443.642429	728.200000
1445.603145	721.400000
1447.568929	693.000000
1449.528758	727.600000
1451.489981	728.200000
1453.452595	728.600000
1455.411095	687.200000
1457.369153	719.600000
1459.326769	704.000000
1461.283942	711.000000
1463.238840	706.800000
1465.195131	703.600000
1467.149147	718.000000
1469.102722	721.800000
1471.054025	686.000000
1473.006721	676.000000
1474.957144	683.800000
1476.907129	712.800000
1478.856675	692.000000
1480.803952	702.000000
1482.748961	711.000000
1484.695363	699.200000
1486.641327	703.600000
1488.586854	690.400000
1490.530115	683.600000
1492.472941	712.400000
1494.413502	693.200000
1496.355456	718.600000
1498.295147	702.000000
1500.234403	726.400000
1502.173225	697.400000
1504.109787	715.600000
1506.047740	700.000000
1507.983434	707.400000
1509.918695	683.400000
1511.851699	688.000000
1513.784272	694.000000
1515.716412	713.800000
1517.648120	717.600000
1519.577574	729.400000
1521.508419	730.800000
1523.438832	718.000000
1525.365173	734.600000
1527.292904	741.400000
1529.218386	723.200000
1531.143438	719.200000
1533.068061	716.800000
1534.992254	725.800000
1536.914201	744.400000
1538.837538	755.200000
1540.758628	728.400000
1542.677474	733.800000
1544.597710	722.000000
1546.515703	728.200000
1548.433269	732.400000
1550.348593	729.000000
1552.265307	711.800000
1554.177966	717.000000
1556.093829	690.200000
1558.007452	712.200000
1559.918837	713.200000
1561.831612	714.800000
1563.740337	682.600000
1565.650451	712.600000
1567.560142	690.800000
1569.469410	727.600000
1571.376444	718.000000
1573.281245	722.800000
1575.187435	699.400000
1577.091393	764.800000
1578.994930	716.800000
1580.898047	749.400000
1582.798934	741.800000
1584.701210	738.400000
1586.601258	719.600000
1588.502693	708.400000
1590.400095	710.200000
1592.297078	711.200000
1594.193643	725.600000
1596.091595	694.400000
1597.983713	717.200000
1599.879025	698.600000
1601.773919	727.000000
1603.666591	717.600000
1605.558846	706.400000
1607.448882	726.400000
1609.338502	696.800000
1611.227707	715.200000
1613.116497	697.400000
1615.003069	739.000000
1616.891029	727.800000
1618.774972	721.800000
1620.660302	691.600000
1622.545219	733.400000
1624.427922	730.600000
1626.312012	729.400000
1628.192090	758.200000
1630.073556	716.800000
1631.952811	716.600000
1633.833452	725.800000
1635.708289	740.400000
1637.588107	738.400000
1639.463921	709.200000
1641.339324	762.800000
1643.216113	737.800000
1645.087106	745.800000
1646.961280	735.000000
1648.831455	754.000000
1650.704811	745.200000
1652.575964	731.000000
1654.444916	725.800000
1656.315252	694.000000
1658.181596	741.000000
1660.049325	747.400000
1661.914855	716.600000
1663.781771	754.200000
1665.644698	719.200000
1667.509010	741.600000
1669.371126	721.600000
1671.232837	743.200000
1673.095934	744.000000
1674.956835	784.200000
1676.815544	749.200000
1678.673849	726.000000
1680.533538	719.000000
1682.387461	729.400000
1684.244557	751.000000
1686.101249	746.400000
1687.953966	736.200000
1689.809854	747.600000
1691.661768	742.600000
1693.513281	756.200000
1695.364393	784.200000
1697.215105	732.200000
1699.065415	763.200000
1700.913542	763.400000
1702.763053	746.200000
1704.606814	785.400000
1706.455526	735.000000
1708.298491	744.000000
1710.144623	748.200000
1711.986792	726.200000
1713.832127	713.200000
1715.671721	735.200000
1717.512699	720.400000
1719.355060	747.400000
1721.193465	743.600000
1723.033253	759.600000
1724.870865	752.200000
1726.708083	751.200000
1728.543127	759.200000
1730.379554	757.200000
1732.213809	732.200000
1734.047669	735.400000
1735.881135	765.000000
1737.710656	742.600000
1739.543335	735.800000
1741.372070	767.400000
1743.203962	740.800000
1745.031912	752.000000
1746.859471	737.600000
1748.686637	748.400000
1750.513412	749.200000
1752.339795	747.800000
1754.162242	767.200000
1755.987844	730.400000
1757.809511	742.200000
1759.632560	762.800000
1761.453447	768.400000
1763.273946	748.200000
1765.095825	766.800000
1766.912006	764.200000
1768.731338	714.800000
1770.546742	758.000000
1772.365298	747.400000
1774.179928	755.200000
1775.994171	735.000000
1777.808028	729.400000
1779.621498	763.200000
1781.432815	779.000000
1783.245512	739.000000
1785.057824	735.200000
1786.866217	759.800000
1788.675992	752.600000
1790.481852	749.200000
1792.290857	764.400000
1794.095949	769.600000
1795.902422	773.800000
1797.708511	752.000000
1799.510689	743.800000
1801.316012	748.800000
1803.117426	777.800000
1804.920220	766.800000
1806.719108	728.400000
1808.519377	739.800000
1810.319264	761.800000
1812.117009	764.800000
1813.914374	752.600000
1815.711359	751.000000
1817.507963	775.000000
1819.302428	744.400000
1821.098272	764.600000
1822.888461	768.000000
1824.683547	779.800000
1826.472981	770.000000
1828.265551	758.200000
1830.055986	749.600000
1831.844287	779.600000
1833.635723	796.200000
1835.421513	769.600000
1837.208683	805.200000
1838.993721	796.000000
1840.781893	772.600000
1842.566179	778.800000
1844.348335	781.000000
1846.131871	791.000000
1847.913278	771.200000
1849.696064	819.600000
1851.474969	803.200000
1853.255253	774.200000
1855.033412	786.400000
1856.812949	783.200000
1858.590360	817.800000
1860.365649	790.600000
1862.142315	817.400000
1863.916859	792.800000
1865.692781	765.000000
1867.463082	785.200000
1869.236511	803.000000
1871.007820	805.400000
1872.778758	829.200000
1874.551074	835.800000
1876.317776	822.000000
1878.087603	824.800000
1879.853567	795.400000
1881.622655	823.800000
1883.387881	845.400000
1885.152739	818.600000
1886.918974	828.800000
1888.681350	841.600000
1890.443358	867.400000
1892.205000	848.400000
1893.966275	835.200000
1895.727182	823.400000
1897.487723	831.600000
1899.246154	850.400000
1901.004219	865.800000
1902.760177	862.000000
1904.517511	848.800000
1906.274480	869.200000
1908.029342	849.800000
1909.782100	853.000000
1911.534493	879.600000
1913.288263	848.200000
1915.039929	870.200000
1916.789493	850.200000
1918.540432	848.800000
1920.291009	865.200000
1922.037746	875.400000
1923.785860	882.200000
1925.531874	879.400000
1927.279263	895.600000
1929.024555	883.200000
1930.767749	899.800000
1932.512318	931.200000
1934.254791	907.000000
1935.996905	885.600000
1937.738658	924.600000
1939.480051	896.000000
1941.219351	907.800000
1942.958292	934.000000
1944.696874	885.200000
1946.433365	934.200000
1948.169498	926.900000
1949.907005	919.600000
1951.640690	956.600000
1953.375750	950.800000
1955.108721	955.600000
1956.841336	964.600000
1958.573595	943.600000
1960.305497	949.600000
1962.035313	1008.000000
1963.763044	974.200000
1965.492150	995.200000
1967.220900	985.000000
1968.947568	987.800000
1970.673881	1009.600000
1972.401567	1011.200000
1974.123717	975.400000
1975.848968	1004.400000
1977.570412	943.000000
1979.294957	1026.800000
1981.017421	1009.800000
1982.736083	1042.200000
1984.457843	1018.800000
1986.175801	1023.000000
1987.895132	1028.800000
1989.610664	1025.800000
1991.331016	1054.000000
1993.047570	1071.000000
1994.760327	1014.400000
1996.476180	1047.800000
1998.189961	1086.800000
1999.903392	1051.200000
2001.614752	1061.400000
2003.327484	1053.000000
2005.036426	1053.400000
2006.748460	1091.000000
2008.454985	1069.600000
2010.164603	1048.800000
2011.872154	1093.200000
2013.579356	1043.800000
2015.284493	1029.000000
2016.989284	1132.800000
2018.695446	1080.600000
2020.397826	1071.800000
2022.101577	1078.800000
2023.803266	1095.400000
2025.504609	1115.000000
2027.205608	1094.400000
2028.904545	1072.600000
2030.604854	1089.600000
2032.301387	1078.600000
2033.999292	1114.400000
2035.695139	1136.200000
2037.394071	1109.800000
2039.087517	1117.600000
2040.782334	1084.400000
2042.476809	1109.400000
2044.167515	1115.800000
2045.861305	1137.800000
2047.551328	1121.200000
2049.242722	1095.400000
2050.932063	1141.600000
2052.622774	1133.800000
2054.309722	1133.400000
2055.996331	1131.200000
2057.684309	1117.400000
2059.368528	1128.800000
2061.054118	1155.800000
2062.739368	1133.200000
2064.422569	1122.200000
2066.107141	1124.800000
2067.786249	1118.800000
2069.470144	1118.200000
2071.148577	1165.200000
2072.830088	1094.200000
2074.507847	1106.600000
2076.185270	1108.400000
2077.864062	1138.000000
2079.540812	1125.600000
2081.215519	1132.000000
2082.891597	1161.400000
2084.565633	1163.200000
2086.239335	1134.000000
2087.912701	1173.200000
2089.584028	1129.000000
2091.255021	1154.200000
2092.925680	1181.600000
2094.596005	1149.000000
2096.265996	1149.800000
2097.933951	1165.600000
2099.601573	1125.800000
2101.267160	1172.800000
2102.934116	1188.200000
2104.599039	1182.600000
2106.263630	1140.800000
2107.926189	1211.800000
2109.590116	1233.000000
2111.252012	1221.000000
2112.913578	1210.400000
2114.574812	1196.400000
2116.234018	1187.400000
2117.892893	1225.800000
2119.551439	1196.200000
2121.209654	1291.000000
2122.864147	1184.400000
2124.521704	1214.800000
2126.178931	1261.800000
2127.832438	1220.800000
2129.487312	1216.400000
2131.138467	1286.200000
2132.792685	1226.400000
2134.443185	1256.600000
2136.095053	1252.800000
2137.741512	1221.600000
2139.392726	1240.200000
2141.040226	1279.800000
2142.689093	1252.400000
2144.335941	1270.600000
2145.982464	1288.800000
2147.628661	1283.200000
2149.271150	1263.800000
2150.916697	1266.400000
2152.558537	1296.000000
2154.203434	1277.200000
2155.844625	1311.400000
2157.485494	1261.800000
2159.126038	1290.600000
2160.764570	1283.200000
2162.404468	1301.600000
2164.040666	1276.600000
2165.678230	1263.600000
2167.315472	1305.800000
2168.950704	1283.600000
2170.585614	1307.200000
2172.220203	1288.600000
2173.854471	1342.600000
2175.485045	1277.200000
2177.118671	1350.400000
2178.748605	1346.400000
2180.379904	1355.400000
2182.009198	1316.200000
2183.638173	1351.800000
2185.266828	1306.400000
2186.895164	1308.200000
2188.521498	1320.400000
2190.147513	1334.800000
2191.771526	1336.600000
2193.396905	1383.200000
2195.020283	1335.800000
2196.645026	1328.400000
2198.266088	1351.800000
2199.886833	1355.400000
2201.508942	1348.000000
2203.129054	1366.400000
2204.747170	1326.600000
2206.364970	1337.000000
2207.982455	1308.000000
2209.599624	1363.200000
2211.216478	1327.200000
2212.833016	1369.200000
2214.447562	1355.400000
2216.060115	1365.600000
2217.674032	1401.400000
2219.285958	1365.600000
2220.899247	1385.400000
2222.510546	1377.400000
2224.119855	1380.600000
2225.730528	1425.000000
2227.339212	1361.200000
2228.947583	1386.200000
2230.553968	1379.000000
2232.161715	1422.400000
2233.767477	1390.600000
2235.372927	1387.400000
2236.976392	1399.200000
2238.581220	1406.800000
2240.184064	1396.400000
2241.784925	1414.000000
2243.387149	1409.200000
2244.987391	1423.200000
2246.588995	1435.800000
2248.186946	1444.600000
2249.786260	1449.000000
2251.383594	1466.600000
2252.980620	1457.400000
2254.579008	1496.800000
2256.173747	1483.800000
2257.766509	1502.600000
2259.360634	1466.600000
2260.956120	1481.800000
2262.547961	1493.000000
2264.139496	1465.400000
2265.732393	1466.400000
2267.319980	1460.600000
2268.912263	1482.000000
2270.499240	1491.400000
2272.089244	1458.000000
2273.673944	1458.000000
2275.263338	1495.800000
2276.847430	1471.000000
2278.432882	1448.800000
2280.016366	1467.800000
2281.602875	1470.600000
2283.185751	1539.200000
2284.768324	1475.000000
2286.350593	1472.200000
2287.929232	1505.600000
2289.510896	1500.000000
2291.088931	1482.000000
2292.669989	1473.000000
2294.247420	1502.400000
2295.822888	1531.800000
2297.401378	1500.400000
2298.976244	1498.200000
2300.550809	1516.600000
2302.125073	1543.400000
2303.699038	1532.200000
2305.272701	1505.200000
2306.846065	1513.000000
2308.415810	1568.200000
2309.985256	1580.000000
2311.557720	1554.800000
2313.124910	1531.200000
2314.695118	1551.400000
2316.261711	1546.400000
2317.829664	1558.200000
2319.395661	1557.600000
2320.961361	1634.600000
2322.526763	1603.200000
2324.090212	1582.800000
2325.655020	1596.200000
2327.216220	1619.200000
2328.780434	1617.400000
2330.339386	1615.600000
2331.901352	1594.600000
2333.461368	1603.800000
2335.021089	1580.800000
2336.578860	1639.600000
2338.136336	1585.600000
2339.693518	1624.000000
2341.248752	1632.000000
2342.803693	1632.600000
2344.358339	1626.000000
2345.912692	1687.200000
2347.466751	1653.400000
2349.020517	1672.000000
2350.572338	1655.600000
2352.122217	1664.400000
2353.675103	1616.200000
2355.222746	1676.800000
2356.773398	1649.000000
2358.320458	1649.000000
2359.868876	1638.800000
2361.417003	1637.400000
2362.961541	1667.000000
2364.507437	1677.600000
2366.051395	1671.800000
2367.596709	1702.600000
2369.138440	1719.600000
2370.681527	1693.200000
2372.222678	1733.400000
2373.763540	1706.200000
2375.304113	1706.400000
2376.844397	1741.200000
2378.384392	1740.800000
2379.920809	1689.800000
2381.460227	1686.400000
2382.996067	1764.200000
2384.533265	1717.600000
2386.066887	1756.400000
2387.603509	1738.200000
2389.138201	1715.000000
2390.670963	1749.400000
2392.203438	1711.400000
2393.733985	1744.800000
2395.267530	1779.000000
2396.795864	1749.200000
2398.325554	1772.600000
2399.854959	1751.200000
2401.384079	1796.600000
2402.912913	1744.800000
2404.436543	1771.200000
2405.964808	1798.800000
2407.487871	1811.200000
2409.015567	1830.400000
2410.536424	1780.000000
2412.061913	1797.400000
2413.583843	1821.200000
2415.107127	1847.200000
2416.628491	1878.000000
2418.147935	1799.000000
2419.668734	1904.600000
2421.187614	1878.800000
2422.706213	1830.000000
2424.222894	1846.600000
2425.740929	1874.600000
2427.258683	1869.800000
2428.772885	1855.000000
2430.286808	1874.200000
2431.800450	1874.800000
2433.315447	1906.200000
2434.826895	1895.200000
2436.339697	1905.000000
2437.850587	1921.000000
2439.361198	1911.400000
2440.869897	1898.600000
2442.381582	1981.200000
2443.889724	1916.200000
2445.397588	1934.600000
2446.905174	1958.600000
2448.409219	1965.600000
2449.916249	2011.200000
2451.421371	2023.800000
2452.926216	2029.600000
2454.429154	2016.800000
2455.931816	2019.200000
2457.434201	2018.400000
2458.934681	2086.800000
2460.436514	2047.000000
2461.936442	2091.400000
2463.436095	2081.600000
2464.935473	2090.800000
2466.432948	2061.600000
2467.928521	2038.400000
2469.427074	2105.800000
2470.922099	2066.600000
2472.418476	2071.800000
2473.911327	2118.200000
2475.405531	2112.200000
2476.899461	2110.200000
2478.389867	2080.400000
2479.883251	2170.000000
2481.374737	2126.600000
2482.864326	2194.400000
2484.353643	2122.000000
2485.841064	2155.400000
2487.331461	2090.800000
2488.818340	2167.200000
2490.306570	2188.800000
2491.791283	2120.600000
2493.275727	2107.000000
2494.761521	2166.000000
2496.245424	2186.400000
2497.730677	2122.800000
2499.210797	2142.200000
2500.693890	2133.000000
2502.175092	2073.800000
2503.656025	2134.800000
2505.135069	2135.000000
2506.613844	2090.600000
2508.092351	2086.800000
2509.570590	2113.000000
2511.048560	2027.400000
2512.523025	2120.000000
2514.000460	2046.000000
2515.474391	2031.400000
2516.949672	2028.000000
2518.424686	2046.200000
2519.896199	2044.400000
2521.369063	2031.000000
2522.840044	1967.400000
2524.312375	2009.200000
2525.779592	2005.000000
2527.249776	1993.400000
2528.718079	2023.800000
2530.186117	2048.800000
2531.653890	1961.400000
2533.121398	2005.600000
2534.588641	1955.000000
2536.052392	1990.800000
2537.517493	2041.200000
2538.980717	2046.200000
2540.445290	2037.200000
2541.906375	2032.600000
2543.368809	1987.200000
2544.830980	2034.200000
2546.289665	2060.200000
2547.752921	2059.000000
2549.211082	2072.800000
2550.670591	2073.200000
2552.125006	2045.800000
2553.583992	2104.400000
2555.041106	2051.600000
2556.496348	2041.400000
2557.951330	2071.200000
2559.404443	2060.200000
2560.858903	2053.000000
2562.311495	2067.200000
2563.763827	2087.600000
2565.214292	2092.800000
2566.667712	2057.400000
2568.116050	2098.800000
2569.567343	2071.600000
2571.016771	2132.600000
2572.462726	2103.600000
2573.911636	2155.200000
2575.357076	2124.200000
2576.803863	2133.200000
2578.248787	2108.400000
2579.693454	2176.000000
2581.139468	2144.200000
2582.582016	2130.800000
2584.025911	2100.800000
2585.466340	2166.600000
2586.908118	2148.800000
2588.348036	2190.600000
2589.789301	2166.000000
2591.227104	2179.600000
2592.667857	2178.800000
2594.103548	2170.200000
2595.542188	2212.200000
2596.978970	2194.000000
2598.413897	2207.400000
2599.851771	2151.800000
2601.284588	2237.200000
2602.718752	2216.200000
2604.151062	2227.200000
2605.584718	2201.800000
2607.016521	2220.000000
2608.448070	2250.600000
2609.879367	2272.400000
2611.308811	2277.600000
2612.738003	2270.600000
2614.165345	2245.400000
2615.594032	2248.800000
2617.022468	2317.400000
2618.447456	2275.600000
2619.873791	2300.800000
2621.298277	2308.600000
2622.724109	2258.200000
2624.146497	2319.800000
2625.570231	2305.200000
2626.992118	2269.000000
2628.413756	2320.600000
2629.833548	2326.000000
2631.254686	2285.000000
2632.675574	2275.600000
2634.093023	2285.400000
2635.513413	2284.200000
2636.930365	2334.400000
2638.347068	2320.600000
2639.763523	2370.000000
2641.179730	2323.000000
2642.595689	2319.800000
2644.009807	2352.000000
2645.423677	2360.800000
2646.835709	2325.200000
2648.249084	2354.600000
2649.659030	2321.800000
2651.071912	2337.400000
2652.481365	2332.800000
2653.890572	2373.200000
2655.297943	2349.800000
2656.708248	2366.000000
2658.116718	2365.200000
2659.523352	2380.600000
2660.929741	2331.200000
2662.334296	2416.600000
2663.740195	2324.200000
2665.144261	2404.000000
2666.548082	2441.200000
2667.951659	2437.800000
2669.353405	2451.600000
2670.756494	2428.800000
2672.156165	2397.000000
2673.557180	2424.200000
2674.954779	2400.400000
2676.355307	2400.800000
2677.752421	2448.600000
2679.150878	2443.600000
2680.547508	2427.000000
2681.943895	2418.400000
2683.340040	2395.400000
2684.734359	2425.600000
2686.130021	2401.200000
2687.522274	2438.600000
2688.915869	2398.000000
2690.307640	2431.400000
2691.700754	2425.600000
2693.092044	2461.600000
2694.481511	2430.800000
2695.870738	2426.200000
2697.259726	2439.800000
2698.650055	2442.600000
2700.035401	2487.200000
2701.423670	2447.000000
2702.810119	2446.000000
2704.196329	2445.200000
2705.582300	2470.800000
2706.964873	2467.600000
2708.348788	2486.400000
2709.732465	2475.800000
2711.115903	2510.200000
2712.495946	2480.000000
2713.877331	2557.400000
2715.256901	2560.000000
2716.637811	2517.200000
2718.016907	2538.600000
2719.394189	2520.800000
2720.772812	2564.400000
2722.149621	2580.200000
2723.526195	2547.000000
2724.902533	2568.200000
2726.277060	2568.800000
2727.652927	2619.800000
2729.025407	2574.400000
2730.400803	2643.000000
2731.771239	2598.200000
2733.143016	2571.000000
2734.514558	2637.000000
2735.884292	2633.800000
2737.255367	2627.400000
2738.624633	2632.400000
2739.993666	2656.000000
2741.360893	2658.600000
2742.727886	2691.000000
2744.094647	2706.800000
2745.461176	2698.800000
2746.825899	2632.800000
2748.190390	2728.600000
2749.554650	2708.800000
2750.918677	2745.000000
2752.282473	2718.400000
2753.642895	2794.400000
2755.006227	2688.200000
2756.364617	2755.600000
2757.725917	2780.800000
2759.083847	2804.400000
2760.444685	2716.600000
2761.803724	2693.400000
2763.159394	2795.000000
2764.517972	2768.600000
2765.873183	2785.200000
2767.228165	2791.000000
2768.581350	2859.000000
2769.937442	2820.400000
2771.290170	2807.600000
2772.642670	2846.800000
2773.994941	2833.200000
2775.348550	2809.600000
2776.698799	2866.200000
2778.047253	2899.200000
2779.398612	2882.000000
2780.746613	2896.000000
2782.095951	2853.400000
2783.443497	2871.000000
2784.790817	2875.200000
2786.137910	2917.400000
2787.483211	2907.200000
2788.828287	2970.000000
2790.173137	2867.800000
2791.517761	2898.800000
2792.859033	2943.400000
2794.201643	2951.400000
2795.544027	2929.800000
2796.886186	2987.400000
2798.224996	2958.000000
2799.566706	3005.000000
2800.905067	3024.600000
2802.244766	3003.200000
2803.582680	3056.400000
2804.918809	3042.600000
2806.254714	2941.800000
2807.591957	3058.600000
2808.927416	3031.200000
2810.262652	3059.600000
2811.596105	3050.600000
2812.930895	3106.000000
2814.262345	3054.800000
2815.596690	3125.400000
2816.926137	3092.200000
2818.256920	3111.800000
2819.587483	3112.400000
2820.916266	3176.600000
2822.246385	3171.400000
2823.574726	3150.600000
2824.902846	3184.200000
2826.229188	3167.800000
2827.556867	3123.800000
2828.881212	3133.400000
2830.206894	3152.400000
2831.530800	3205.000000
2832.854486	3153.000000
2834.179509	3187.000000
2835.501201	3151.000000
2836.822675	3150.800000
2838.143930	3120.200000
2839.464966	3152.000000
2840.784229	3215.200000
2842.104828	3200.200000
2843.423656	3104.000000
2844.742265	3214.200000
2846.059103	3118.600000
2847.375724	3154.800000
2848.692128	3158.200000
2850.006762	3205.400000
2851.322732	3110.800000
2852.635381	3242.800000
2853.949365	3170.000000
2855.263133	3264.600000
2856.576684	3192.400000
2857.888469	3256.200000
2859.198487	3217.400000
2860.509840	3165.000000
2861.817878	3207.600000
2863.127250	3228.000000
2864.436408	3274.800000
2865.745350	3268.000000
2867.052528	3286.800000
2868.357944	3270.800000
2869.664693	3302.800000
2870.969681	3251.400000
2872.274454	3244.000000
2873.577467	3258.000000
2874.883360	3276.800000
2876.184399	3303.000000
2877.486772	3258.000000
2878.787385	3305.400000
2880.089332	3268.800000
2881.391065	3267.600000
2882.689495	3297.400000
2883.989258	3261.200000
2885.287264	3288.000000
2886.585058	3300.800000
2887.881096	3307.600000
2889.178467	3321.200000
2890.474082	3279.800000
2891.769486	3332.800000
2893.064679	3285.400000
2894.356575	3211.800000
2895.651347	3258.800000
2896.942822	3283.400000
2898.235630	3312.000000
2899.528228	3316.400000
2900.817532	3257.600000
2902.108168	3199.400000
2903.397053	3247.800000
2904.687270	3213.600000
2905.974196	3284.000000
2907.262454	3329.200000
2908.548963	3263.800000
2909.835263	3281.000000
2911.121356	3302.000000
2912.405700	3337.800000
2913.692915	3325.200000
2914.975304	3312.400000
2916.259025	3277.200000
2917.541000	3315.000000
2918.822767	3321.400000
2920.102789	3317.800000
2921.385682	3347.800000
2922.666829	3312.600000
2923.944694	3305.600000
2925.225428	3317.000000
2926.502881	3299.800000
2927.780128	3284.200000
2929.055633	3249.400000
2930.334006	3312.800000
2931.607565	3297.800000
2932.883991	3325.400000
2934.158676	3283.000000
2935.431620	3219.200000
2936.705896	3306.600000
2937.978432	3269.200000
2939.250763	3316.800000
2940.519822	3240.600000
2941.791746	3299.800000
2943.061932	3318.600000
2944.331914	3245.400000
2945.601693	3275.600000
2946.869736	3284.200000
2948.136042	3288.800000
2949.402147	3275.200000
2950.669581	3295.400000
2951.935280	3339.400000
2953.200778	3310.600000
2954.466073	3280.800000
2955.728103	3289.600000
2956.991463	3254.400000
2958.254622	3303.600000
2959.516049	3301.200000
2960.778805	3221.400000
2962.039829	3351.400000
2963.299123	3320.800000
2964.558217	3248.000000
2965.817110	3250.800000
2967.075803	3333.200000
2968.334296	3323.400000
2969.591060	3319.000000
2970.847624	3332.000000
2972.102460	3343.600000
2973.358626	3310.800000
2974.611537	3382.800000
2975.865777	3351.600000
2977.119817	3330.800000
2978.372132	3337.000000
2979.624249	3343.800000
2980.874641	3416.400000
2982.127888	3341.000000
2983.376358	3415.200000
2984.627683	3355.400000
2985.875758	3388.600000
2987.123636	3372.000000
2988.371318	3380.000000
2989.618802	3325.400000
2990.864565	3350.200000
2992.110132	3345.000000
2993.357026	3395.200000
2994.600676	3396.800000
2995.845654	3433.600000
2997.087388	3434.200000
2998.331974	3408.600000
2999.574841	3420.200000
3000.814467	3434.000000
3002.056943	3461.600000
3003.296179	3422.200000
3004.536743	3492.000000
3005.775590	3502.800000
3007.014243	3474.600000
3008.251180	3468.600000
3009.489445	3426.400000
3010.725994	3560.400000
3011.962350	3505.400000
3013.198512	3450.600000
3014.432960	3549.200000
3015.667216	3521.200000
3016.901278	3488.800000
3018.133627	3504.400000
3019.364266	3562.200000
3020.597750	3543.600000
3021.829522	3466.200000
3023.059584	3524.800000
3024.289453	3557.400000
3025.517613	3527.600000
3026.747100	3507.800000
3027.974877	3560.800000
3029.202463	3583.800000
3030.431375	3568.200000
3031.655546	3547.600000
3032.882559	3555.800000
3034.106348	3566.000000
3035.331464	3632.400000
3036.554873	3629.600000
3037.778092	3600.000000
3038.999606	3672.400000
3040.223961	3622.000000
3041.443581	3593.200000
3042.664527	3639.200000
3043.885284	3639.800000
3045.104337	3601.000000
3046.324715	3678.200000
3047.541877	3698.200000
3048.760365	3651.400000
3049.977150	3647.600000
3051.193748	3702.600000
3052.410157	3660.400000
3053.623353	3644.200000
3054.839388	3691.200000
3056.052210	3619.400000
3057.267869	3709.000000
3058.478805	3682.000000
3059.691066	3726.200000
3060.903140	3688.200000
3062.115028	3696.600000
3063.325219	3730.600000
3064.535223	3675.800000
3065.745041	3695.200000
3066.953163	3689.800000
3068.161100	3662.400000
3069.367341	3775.000000
3070.574907	3700.600000
3071.780778	3730.000000
3072.986465	3759.400000
3074.191966	3760.600000
3075.395774	3691.600000
3076.600906	3750.800000
3077.804345	3814.400000
3079.006093	3725.600000
3080.207656	3797.800000
3081.409036	3812.000000
3082.610232	3841.400000
3083.809738	3776.200000
3085.009061	3808.000000
3086.209707	3777.800000
3087.408663	3806.800000
3088.604425	3804.000000
3089.803016	3862.000000
3090.998413	3800.200000
3092.195133	3796.200000
3093.388661	3831.800000
3094.585017	3793.400000
3095.779686	3865.600000
3096.971165	3734.400000
3098.166976	3818.600000
3099.358092	3906.800000
3100.550532	3861.400000
3101.739784	3776.800000
3102.931861	3866.400000
3104.122255	3820.200000
3105.309463	3917.800000
3106.497993	3839.800000
3107.687846	3885.800000
3108.874515	3850.600000
3110.061003	3848.200000
3111.247313	3864.800000
3112.434944	3804.200000
3113.619393	3845.400000
3114.802163	3924.200000
3115.987755	3885.400000
3117.171668	3881.600000
3118.353902	3902.600000
3119.535957	3862.000000
3120.717834	3918.000000
3121.899533	3945.600000
3123.079555	3947.000000
3124.257900	3915.000000
3125.439065	3922.800000
3126.617055	3935.200000
3127.794868	3899.800000
3128.972504	3916.600000
3130.148466	3898.400000
3131.324250	3966.800000
3132.501356	3973.800000
3133.676787	3989.000000
3134.850545	3965.600000
3136.022630	3959.000000
3137.196037	3929.400000
3138.369267	3975.800000
3139.540826	3930.000000
3140.713705	3965.200000
3141.883417	3989.600000
3143.054450	3997.200000
3144.223813	4095.600000
3145.391505	3984.800000
3146.562013	3930.800000
3147.727863	3963.200000
3148.898021	3991.800000
3150.063523	4022.000000
3151.228850	4062.400000
3152.394004	4016.800000
3153.558985	4055.600000
3154.725285	3994.400000
3155.886933	4003.600000
3157.049900	3953.600000
3158.212695	3948.400000
3159.375317	4021.600000
3160.536273	3943.600000
3161.697058	3962.200000
3162.857670	3914.400000
3164.016618	3927.200000
3165.175395	3880.600000
3166.333999	3970.800000
3167.492432	3895.000000
3168.650694	4011.800000
3169.807293	3960.800000
3170.962231	3934.200000
3172.118488	3995.600000
3173.273084	3927.000000
3174.427510	3977.800000
3175.580276	3951.000000
3176.732871	3926.800000
3177.885297	3913.200000
3179.037553	3965.200000
3180.189638	3955.000000
3181.338577	3926.000000
3182.490324	4009.800000
3183.640412	3931.600000
3184.788844	3971.800000
3185.937106	4084.400000
3187.085200	4008.800000
3188.233125	4049.200000
3189.379394	4102.600000
3190.525495	4081.200000
3191.669942	4121.400000
3192.814221	4090.200000
3193.958332	4144.600000
3195.103760	4145.200000
3196.246050	4114.600000
3197.388173	4117.000000
3198.530128	4168.800000
3199.671916	4087.600000
3200.813537	4078.000000
3201.952023	4121.800000
3203.091826	4184.000000
3204.232946	4085.000000
3205.370933	4140.000000
3206.507270	4181.200000
3207.643441	4140.400000
3208.780929	4205.400000
3209.916769	4136.000000
3211.053926	4199.000000
3212.186470	4152.200000
3213.323296	4125.000000
3214.455510	4186.400000
3215.589041	4188.800000
3216.722408	4192.000000
3217.852647	4088.400000
3218.985684	4112.000000
3220.115595	4180.600000
3221.246822	4104.600000
3222.374925	4037.200000
3223.505824	4129.400000
3224.635079	4083.400000
3225.762691	4103.200000
3226.887180	4108.200000
3228.015945	4172.200000
3229.141588	4126.600000
3230.267069	4112.400000
3231.390907	4167.200000
3232.517541	4085.200000
3233.639577	4132.200000
3234.762929	4144.600000
3235.886119	4150.600000
3237.009146	4118.200000
3238.130535	4169.800000
3239.251761	4219.200000
3240.371350	4136.200000
3241.490777	4128.400000
3242.608566	4170.800000
3243.729147	4178.600000
3244.846615	4233.400000
3245.963922	4228.000000
3247.081069	4191.600000
3248.196579	4218.600000
3249.313405	4262.800000
3250.427121	4288.200000
3251.543626	4306.400000
3252.658497	4249.000000
3253.770258	4298.200000
3254.881861	4367.200000
3255.994779	4361.000000
3257.107537	4318.400000
3258.217189	4305.000000
3259.328156	4322.800000
3260.438964	4247.000000
3261.548140	4290.200000
3262.655685	4358.800000
3263.764545	4299.200000
3264.873247	4306.000000
3265.978846	4380.400000
3267.085759	4415.600000
3268.191043	4348.600000
3269.297641	4399.000000
3270.401139	4343.400000
3271.505952	4373.000000
3272.610606	4393.800000
3273.712163	4410.800000
3274.813563	4434.800000
3275.916277	4410.600000
3277.018835	4382.800000
3278.118296	4423.600000
3279.220541	4392.200000
3280.319690	4343.600000
3281.417215	4392.000000
3282.514584	4449.800000
3283.614735	4397.200000
3284.711794	4412.200000
3285.808697	4463.000000
3286.905445	4449.600000
3287.997634	4474.000000
3289.094073	4399.000000
3290.188889	4406.600000
3291.283551	4438.000000
3292.376591	4474.000000
3293.469476	4486.200000
3294.560741	4416.400000
3295.653319	4416.800000
3296.744277	4465.800000
3297.833615	4425.400000
3298.922800	4444.400000
3300.013298	4407.600000
3301.100711	4513.000000
3302.187971	4481.200000
3303.276544	4493.400000
3304.364964	4468.000000
3305.448838	4411.800000
3306.536953	4433.200000
3307.621986	4552.600000
3308.705404	4447.000000
3309.790134	4481.800000
3310.873248	4499.600000
3311.957675	4586.400000
3313.039023	4503.600000
3314.121683	4536.000000
3315.202729	4496.400000
3316.283624	4586.000000
3317.362905	4548.400000
3318.442036	4585.400000
3319.522479	4538.000000
3320.599847	4608.200000
3321.678527	4562.600000
3322.755595	4592.600000
3323.832514	4579.400000
3324.907821	4599.400000
3325.982979	4630.000000
3327.059448	4544.000000
3328.132847	4609.800000
3329.206096	4557.600000
3330.280657	4582.600000
3331.353609	4566.400000
3332.424952	4658.400000
3333.497606	4638.800000
3334.567194	4637.800000
3335.638092	4645.200000
3336.707383	4585.400000
3337.777985	4527.800000
3338.846980	4590.400000
3339.914369	4610.600000
3340.980153	4619.200000
3342.050163	4546.800000
3343.117110	4644.400000
3344.180995	4602.400000
3345.247647	4663.200000
3346.312696	4626.000000
3347.376141	4596.400000
3348.439440	4662.200000
3349.502592	4627.800000
3350.565598	4688.000000
3351.628458	4626.400000
3352.689716	4656.600000
3353.747917	4574.600000
3354.810338	4674.400000
3355.869704	4639.600000
3356.928924	4711.200000
3357.989453	4537.400000
3359.045474	4650.600000
3360.104258	4699.000000
3361.158535	4697.400000
3362.215576	4722.000000
3363.271018	4776.200000
3364.327770	4740.600000
3365.382923	4786.200000
3366.436479	4760.600000
3367.488439	4749.000000
3368.543160	4722.800000
3369.594832	4783.000000
3370.646361	4718.000000
3371.699198	4816.400000
3372.748988	4804.600000
3373.800087	4780.200000
3374.848140	4789.400000
3375.898952	4793.800000
3376.946720	4805.400000
3377.994344	4859.000000
3379.041827	4798.600000
3380.087717	4913.600000
3381.134915	4795.000000
3382.179071	4818.400000
3383.225985	4853.400000
3384.271307	4870.200000
3385.313588	4883.800000
3386.355728	4917.000000
3387.399177	4909.200000
3388.442484	4913.200000
3389.484201	4931.200000
3390.525778	4914.600000
3391.567213	4873.000000
3392.607060	4937.000000
3393.645318	4942.600000
3394.684884	4951.800000
3395.724310	4958.400000
3396.762148	4949.600000
3397.798399	4909.000000
3398.834511	5015.400000
3399.871930	4970.000000
3400.906316	5025.800000
3401.942009	5023.600000
3402.977563	5021.600000
3404.010086	5093.200000
3405.045362	5017.200000
3406.077607	5041.000000
3407.109714	5141.400000
3408.140237	5060.600000
3409.172067	5039.800000
3410.203759	5101.800000
3411.232423	5107.600000
3412.260950	5083.800000
3413.290783	5130.000000
3414.320479	5047.400000
3415.347149	5041.200000
3416.375125	5130.000000
3417.400078	5093.000000
3418.427780	5089.400000
3419.452459	5093.200000
3420.478444	5062.000000
3421.502849	5127.200000
3422.527118	5191.200000
3423.549808	5218.200000
3424.572362	5135.000000
3425.596222	5141.000000
3426.617062	5078.600000
3427.637766	5163.800000
3428.659777	5073.000000
3429.678769	5096.800000
3430.697625	5193.800000
3431.717788	5135.800000
3432.734934	5244.000000
