-116.521679	24.000000
-113.852079	-9.800000
-111.185414	21.800000
-108.519501	1.800000
-105.856521	11.000000
-103.192110	21.000000
-100.530630	14.800000
-97.867721	6.400000
-95.209918	33.400000
-92.550686	41.200000
-89.892202	14.000000
-87.236643	16.400000
-84.579654	2.800000
-81.927764	17.000000
-79.274444	29.000000
-76.624043	-14.600000
-73.972214	13.400000
-71.325474	20.800000
-68.677306	36.400000
-66.029880	25.000000
-63.385369	27.600000
-60.739428	5.200000
-58.098569	-5.200000
-55.456281	17.600000
-52.816902	-4.000000
-50.176093	22.000000
-47.536025	20.000000
-44.901030	12.600000
-42.264605	13.400000
-39.631083	29.600000
-36.996133	12.400000
-34.366248	13.400000
-31.732771	9.200000
-29.104356	20.000000
-26.476675	2.400000
-23.847565	1.200000
-21.223512	13.000000
-18.595870	35.600000
-15.973281	26.000000
-13.351424	31.600000
-10.730297	25.800000
-8.109901	17.000000
-5.492392	86.000000
-2.873455	206.200000
-0.257403	469.800000
2.357920	639.400000
4.972515	453.200000
7.584229	39.000000
10.197371	36.800000
12.805479	27.600000
15.417169	25.000000
18.023828	14.200000
20.631915	18.200000
23.239278	3.400000
25.841616	28.400000
28.447532	11.400000
31.048426	43.000000
33.650748	12.200000
36.248053	45.000000
38.848933	29.400000
41.444798	11.600000
44.042092	27.200000
46.638666	47.000000
49.230231	16.400000
51.823224	10.000000
54.413356	43.800000
57.004915	16.800000
59.593616	7.600000
62.183743	15.400000
64.768871	-0.200000
67.355427	41.400000
69.941269	19.400000
72.524257	16.800000
75.108671	12.400000
77.685957	31.800000
80.266809	35.000000
82.844812	-2.200000
85.422105	41.400000
88.000824	10.000000
90.574561	34.800000
93.149726	26.000000
95.722047	29.000000
98.293660	24.200000
100.862433	27.600000
103.432633	49.600000
105.999994	19.000000
108.568782	26.000000
111.134733	47.800000
113.697849	71.600000
116.264521	71.400000
118.821972	90.800000
121.385108	124.800000
123.943284	186.600000
126.505015	243.000000
129.061789	397.000000
131.619989	560.000000
134.173237	815.200000
136.725787	1208.800000
139.281887	1730.600000
141.833039	2295.800000
144.383494	2868.200000
146.933251	3329.600000
149.480189	3744.600000
152.026432	3908.800000
154.574100	4051.000000
157.121072	4167.000000
159.663109	4173.000000
162.204452	4198.200000
164.745102	4194.000000
167.287178	4161.200000
169.826442	4171.400000
172.362898	4206.000000
174.898662	4158.200000
177.435852	4132.200000
179.972351	4167.200000
182.506044	4230.000000
185.036933	4091.800000
187.567134	4145.600000
190.098761	4151.800000
192.627586	4090.800000
195.153612	4029.400000
197.678952	4116.000000
200.205717	4108.600000
202.729686	4062.400000
205.252970	4113.200000
207.775569	4146.800000
210.295375	4098.200000
212.814497	4038.200000
215.332938	4036.600000
217.852802	4046.600000
220.365665	4079.400000
222.882059	4054.400000
225.397771	4070.800000
227.908593	4013.400000
230.420840	4037.000000
232.930305	4043.800000
235.439090	4017.200000
237.947198	4044.000000
240.456730	4028.000000
242.961381	4109.800000
245.465356	4038.600000
247.970755	4050.000000
250.471279	4070.600000
252.975326	4051.200000
255.472403	4054.600000
257.973003	4079.600000
260.470831	4035.200000
262.967986	4056.000000
265.464468	4105.000000
267.956087	4165.600000
270.451226	4064.200000
272.943598	4101.800000
275.435300	4116.800000
277.924239	4004.400000
280.414601	4054.600000
282.902202	4023.000000
285.387043	4049.000000
287.875399	4008.400000
290.356815	4065.400000
292.841745	3967.600000
295.321830	3986.200000
297.805427	3969.600000
300.284181	3903.000000
302.764358	3973.400000
305.241784	3974.000000
307.718546	3936.800000
310.194644	3959.000000
312.667995	3908.800000
315.140683	3940.400000
317.612710	3964.000000
320.084076	3981.000000
322.552697	3878.600000
325.020660	3964.600000
327.490044	3917.800000
329.954606	3970.800000
332.422672	3951.600000
334.885918	3929.200000
337.348506	3930.000000
339.810438	3955.800000
342.271713	3946.000000
344.730254	3978.400000
347.190217	3954.400000
349.647447	3919.800000
352.104023	3928.000000
354.559945	3945.400000
357.013137	3906.200000
359.467752	3912.000000
361.917565	3861.600000
364.370874	3853.600000
366.819384	3843.000000
369.267244	3846.000000
371.716526	3848.400000
374.161014	3856.600000
376.606924	3897.200000
379.052184	3803.800000
381.494726	3895.800000
383.936620	3907.400000
386.377867	3880.000000
388.816398	3844.200000
391.256350	3820.600000
393.693590	3875.400000
396.128117	3842.600000
398.566132	3896.800000
400.999370	3882.800000
403.434029	3890.600000
405.863916	3835.000000
408.297288	3858.200000
410.725890	3813.800000
413.153850	3868.800000
415.583232	3836.800000
418.007848	3803.800000
420.433886	3859.600000
422.859283	3826.400000
425.284040	3789.000000
427.704039	3826.400000
430.125458	3846.200000
432.544182	3829.000000
434.964326	3785.800000
437.381775	3847.000000
439.800644	3890.800000
442.216820	3888.400000
444.628248	3847.800000
447.043153	3869.800000
449.455369	3909.400000
451.866950	3919.000000
454.277897	3911.200000
456.686158	3934.800000
459.093786	3855.600000
461.500782	3890.600000
463.907147	3841.400000
466.310829	3909.000000
468.713881	3849.200000
471.116303	3878.800000
473.518095	3865.000000
475.917209	3849.600000
478.317743	3882.200000
480.717648	3834.800000
483.112831	3870.400000
485.511480	3885.200000
487.905408	3771.200000
490.298711	3848.000000
492.691389	3762.400000
495.083441	3809.400000
497.476911	3763.400000
499.865669	3793.800000
502.251761	3767.600000
504.639273	3764.000000
507.026162	3792.000000
509.410387	3769.800000
511.796030	3802.800000
514.179012	3735.400000
516.559333	3787.600000
518.941073	3787.800000
521.320154	3827.200000
523.700654	3798.200000
526.078496	3729.000000
528.453682	3759.600000
530.828252	3796.800000
533.204239	3860.200000
535.577574	3843.800000
537.952326	3785.800000
540.322393	3764.200000
542.691844	3807.600000
545.062713	3792.600000
547.428901	3728.600000
549.796508	3771.600000
552.161470	3749.400000
554.525818	3761.200000
556.889553	3777.400000
559.254706	3793.600000
561.615187	3750.200000
563.977086	3737.400000
566.336344	3779.000000
568.692964	3738.000000
571.053030	3762.600000
573.406404	3796.000000
575.763223	3797.800000
578.117407	3749.800000
580.470982	3746.800000
582.823950	3733.600000
585.174285	3749.600000
587.526038	3719.200000
589.871114	3751.000000
592.221653	3696.600000
594.565520	3722.200000
596.914848	3799.800000
599.259527	3687.600000
601.601582	3663.800000
603.945054	3673.200000
606.285903	3685.200000
608.626149	3693.800000
610.963776	3684.800000
613.304837	3673.000000
615.641260	3667.000000
617.979100	3644.600000
620.314323	3624.400000
622.646930	3657.600000
624.980953	3667.600000
627.312362	3659.800000
629.643173	3630.600000
631.973387	3582.800000
634.303002	3619.200000
636.627994	3637.400000
638.958428	3647.400000
641.284241	3603.800000
643.607446	3674.000000
645.932068	3632.600000
648.254084	3645.800000
650.575506	3577.400000
652.894326	3647.800000
655.214561	3636.200000
657.534203	3674.200000
659.851244	3682.400000
662.167693	3576.600000
664.481544	3609.800000
666.796811	3632.600000
669.109481	3645.800000
671.423566	3634.800000
673.733051	3617.800000
676.043952	3643.600000
678.352260	3613.800000
680.659980	3562.400000
682.969114	3612.400000
685.273656	3614.800000
687.577612	3634.000000
689.880982	3603.600000
692.185766	3645.400000
694.485963	3524.800000
696.787576	3596.800000
699.088603	3592.200000
701.385049	3617.000000
703.682910	3609.000000
705.980187	3591.200000
708.276881	3555.400000
710.568999	3549.400000
712.864528	3580.600000
715.155483	3575.600000
717.447853	3614.400000
719.737648	3575.200000
722.026862	3534.800000
724.315497	3532.400000
726.601559	3569.200000
728.889036	3613.800000
731.173941	3588.400000
733.458269	3638.400000
735.740028	3593.200000
738.023201	3598.000000
740.305797	3577.800000
742.583837	3621.000000
744.863292	3610.600000
747.142170	3587.200000
749.420474	3624.600000
751.694228	3567.000000
753.969395	3604.800000
756.243989	3618.600000
758.516024	3521.000000
760.789472	3554.000000
763.060362	3596.400000
765.328696	3614.600000
767.598443	3571.200000
769.865636	3639.000000
772.132258	3520.200000
774.398310	3584.000000
776.661811	3566.600000
778.926725	3549.400000
781.191069	3555.800000
783.450884	3558.000000
785.712111	3575.600000
787.972771	3609.600000
790.230885	3579.600000
792.486454	3593.000000
794.745414	3560.800000
796.997874	3626.600000
799.255702	3503.400000
801.509011	3511.200000
803.759780	3621.800000
806.011961	3510.000000
808.261603	3571.000000
810.512658	3565.600000
812.759201	3551.200000
815.007156	3551.600000
817.252577	3552.600000
819.499409	3529.800000
821.745680	3536.200000
823.987446	3585.200000
826.232596	3547.000000
828.471273	3512.400000
830.713332	3581.200000
832.950893	3471.000000
835.189866	3612.400000
837.426312	3587.800000
839.664169	3569.800000
841.899501	3521.000000
844.132310	3550.600000
846.366530	3551.000000
848.598227	3531.800000
850.829370	3585.600000
853.059958	3566.600000
855.289992	3623.000000
857.519472	3540.400000
859.744470	3595.800000
861.972843	3624.200000
864.196736	3586.200000
866.422041	3534.800000
868.642870	3580.200000
870.867071	3585.200000
873.086799	3590.200000
875.307937	3569.800000
877.528525	3626.600000
879.746604	3576.200000
881.966092	3551.200000
884.181114	3571.400000
886.395588	3587.800000
888.609515	3626.200000
890.822895	3634.200000
893.035727	3569.000000
895.248013	3538.800000
897.457796	3563.800000
899.667034	3592.200000
901.875727	3557.000000
904.081920	3549.600000
906.289524	3583.000000
908.494629	3583.200000
910.699191	3517.800000
912.901258	3614.600000
915.104734	3550.000000
917.305716	3602.800000
919.506156	3563.600000
921.708005	3517.000000
923.903463	3539.000000
926.102280	3551.400000
928.296658	3653.000000
930.494394	3555.800000
932.687694	3552.200000
934.882403	3570.800000
937.074626	3556.800000
939.266310	3606.400000
941.457457	3580.600000
943.646121	3594.600000
945.834249	3628.200000
948.019896	3614.800000
950.208895	3628.000000
952.393471	3600.600000
954.577512	3689.000000
956.764903	3590.600000
958.943990	3666.400000
961.126428	3640.000000
963.308332	3618.600000
965.487761	3642.600000
967.664718	3633.600000
969.843083	3670.200000
972.022855	3731.600000
974.196278	3667.000000
976.373047	3681.800000
978.545409	3752.400000
980.719179	3687.000000
982.888545	3735.800000
985.061255	3691.200000
987.231500	3720.200000
989.401215	3691.600000
991.570403	3731.400000
993.735193	3718.800000
995.903324	3747.400000
998.067060	3690.000000
1000.232204	3747.200000
1002.394888	3706.400000
1004.557047	3737.400000
1006.716749	3750.800000
1008.875926	3670.200000
1011.036510	3717.000000
1013.194639	3738.600000
1015.352245	3784.600000
1017.509327	3655.600000
1019.665885	3644.400000
1021.818064	3659.800000
1023.971650	3662.200000
1026.124714	3634.000000
1028.275329	3636.600000
1030.427351	3709.200000
1032.574999	3713.800000
1034.725979	3730.000000
1036.872588	3634.000000
1039.018678	3675.800000
1041.164250	3636.000000
1043.311227	3668.200000
1045.451915	3640.800000
1047.595933	3625.200000
1049.737510	3631.600000
1051.878571	3623.400000
1054.021036	3583.800000
1056.157221	3568.600000
1058.296733	3504.600000
1060.431890	3528.600000
1062.570371	3475.400000
1064.704498	3429.400000
1066.838112	3503.600000
1068.973130	3433.200000
1071.103800	3434.800000
1073.235874	3408.000000
1075.365519	3431.400000
1077.494652	3445.400000
1079.623273	3416.000000
1081.751383	3437.400000
1083.877067	3408.200000
1086.002241	3395.600000
1088.128819	3376.600000
1090.251059	3363.400000
1092.374704	3352.400000
1094.494014	3421.600000
1096.618553	3375.600000
1098.736848	3423.000000
1100.856547	3352.800000
1102.973827	3401.800000
1105.090600	3394.600000
1107.206868	3413.200000
1109.320719	3355.800000
1111.435975	3340.400000
1113.546907	3411.600000
1115.661152	3393.000000
1117.771076	3350.400000
1119.882404	3368.000000
1121.993227	3374.400000
1124.099734	3373.800000
1126.209550	3373.400000
1128.315053	3358.400000
1130.421958	3369.400000
1132.522648	3337.600000
1134.628550	3328.600000
1136.730143	3332.800000
1138.833139	3320.600000
1140.935634	3313.400000
1143.031922	3282.400000
1145.133417	3321.000000
1147.230610	3349.000000
1149.327305	3308.200000
1151.423501	3305.800000
1153.519199	3334.000000
1155.614400	3315.000000
1157.707204	3296.200000
1159.801410	3307.400000
1161.889425	3279.600000
1163.982639	3326.200000
1166.069664	3326.800000
1168.159988	3298.000000
1170.246024	3296.200000
1172.335359	3254.400000
1174.418512	3370.400000
1176.503067	3279.000000
1178.589024	3262.600000
1180.670699	3286.000000
1182.753775	3326.600000
1184.834466	3296.400000
1186.914666	3313.200000
1188.994374	3260.600000
1191.073591	3240.800000
1193.150426	3320.600000
1195.224879	3273.400000
1197.302625	3270.600000
1199.376101	3304.200000
1201.450977	3280.200000
1203.521586	3330.800000
1205.593596	3345.600000
1207.663231	3327.000000
1209.734265	3307.800000
1211.804813	3286.600000
1213.871099	3343.800000
1215.938786	3406.000000
1218.004101	3366.600000
1220.070816	3344.000000
1222.133275	3324.200000
1224.199019	3385.400000
1226.260509	3326.600000
1228.323400	3311.600000
1230.383923	3361.200000
1232.443962	3366.000000
1234.503518	3341.400000
1236.560710	3288.000000
1238.617420	3403.600000
1240.671766	3361.200000
1242.729394	3372.400000
1244.784659	3370.000000
1246.835683	3355.800000
1248.888107	3344.200000
1250.940051	3338.400000
1252.989637	3350.000000
1255.038744	3340.000000
1257.087372	3259.800000
1259.135522	3395.400000
1261.183194	3370.600000
1263.226635	3370.200000
1265.273352	3299.400000
1267.317715	3328.800000
1269.361602	3347.600000
1271.403137	3331.600000
1273.442323	3439.800000
1275.484782	3365.600000
1277.523018	3335.000000
1279.562653	3325.200000
1281.601813	3296.000000
1283.636754	3352.200000
1285.673094	3403.000000
1287.707090	3424.600000
1289.742483	3502.800000
1291.773664	3448.800000
1293.806242	3454.600000
1295.838349	3615.400000
1297.868115	3651.400000
1299.899278	3658.000000
1301.926235	3739.400000
1303.954589	3704.800000
1305.978738	3792.200000
1308.006153	3833.400000
1310.029365	3845.200000
1312.053975	3979.200000
1314.076251	4040.600000
1316.099924	4184.800000
1318.121263	4380.200000
1320.142136	4724.200000
1322.162541	5212.600000
1324.178753	6591.600000
1326.196362	9520.800000
1328.211643	17510.200000
1330.230183	35667.000000
1332.244534	54913.200000
1334.256558	54487.400000
1336.271841	34046.000000
1338.282938	14051.600000
1340.295432	7274.000000
1342.303743	5325.000000
1344.315309	4580.800000
1346.320837	4184.800000
1348.329620	3947.200000
1350.334225	3839.400000
1352.342084	3729.400000
1354.349481	3802.000000
1356.350847	3617.600000
1358.353609	3613.200000
1360.355912	3569.400000
1362.357755	3584.600000
1364.359138	3540.200000
1366.358208	3559.000000
1368.356819	3502.000000
1370.354971	3536.600000
1372.352666	3508.200000
1374.346198	3489.400000
1376.341125	3476.200000
1378.335596	3487.600000
1380.329610	3540.000000
1382.321317	3461.600000
1384.312568	3503.600000
1386.301514	3512.600000
1388.291856	3501.400000
1390.281742	3376.800000
1392.269324	3534.000000
1394.256453	3498.200000
1396.241280	3456.400000
1398.227502	3488.000000
1400.211423	3485.200000
1402.194892	3501.400000
1404.177909	3511.200000
1406.158628	3557.000000
1408.140741	3505.200000
1410.120558	3578.000000
1412.099923	3588.400000
1414.075150	3644.000000
1416.053615	3527.000000
1418.029787	3553.400000
1420.005509	3595.400000
1421.980783	3649.000000
1423.953765	3640.400000
1425.926299	3725.400000
1427.898385	3625.400000
1429.870024	3760.200000
1431.837534	3729.200000
1433.810118	3715.600000
1435.774896	3732.000000
1437.744747	3685.600000
1439.710474	3685.400000
1441.677593	3698.400000
1443.642429	3735.200000
1445.603145	3716.600000
1447.568929	3751.400000
1449.528758	3703.400000
1451.489981	3663.600000
1453.452595	3697.600000
1455.411095	3720.800000
1457.369153	3638.800000
1459.326769	3591.600000
1461.283942	3627.000000
1463.238840	3676.400000
1465.195131	3630.400000
1467.149147	3593.200000
1469.102722	3589.600000
1471.054025	3617.800000
1473.006721	3605.000000
1474.957144	3555.200000
1476.907129	3615.800000
1478.856675	3542.000000
1480.803952	3602.400000
1482.748961	3494.800000
1484.695363	3504.400000
1486.641327	3566.200000
1488.586854	3542.800000
1490.530115	3610.000000
1492.472941	3617.400000
1494.413502	3562.400000
1496.355456	3618.200000
1498.295147	3604.000000
1500.234403	3582.800000
1502.173225	3674.600000
1504.109787	3613.800000
1506.047740	3657.000000
1507.983434	3649.200000
1509.918695	3632.800000
1511.851699	3602.000000
1513.784272	3640.400000
1515.716412	3659.400000
1517.648120	3641.800000
1519.577574	3624.400000
1521.508419	3695.600000
1523.438832	3672.800000
1525.365173	3673.600000
1527.292904	3760.800000
1529.218386	3685.200000
1531.143438	3682.800000
1533.068061	3662.600000
1534.992254	3627.200000
1536.914201	3654.200000
1538.837538	3695.800000
1540.758628	3711.200000
1542.677474	3674.000000
1544.597710	3662.600000
1546.515703	3641.400000
1548.433269	3556.400000
1550.348593	3622.200000
1552.265307	3608.000000
1554.177966	3632.200000
1556.093829	3580.200000
1558.007452	3554.600000
1559.918837	3521.600000
1561.831612	3566.000000
1563.740337	3498.800000
1565.650451	3557.400000
1567.560142	3479.400000
1569.469410	3492.800000
1571.376444	3523.800000
1573.281245	3388.400000
1575.187435	3435.600000
1577.091393	3450.400000
1578.994930	3427.600000
1580.898047	3391.200000
1582.798934	3425.800000
1584.701210	3377.400000
1586.601258	3416.600000
1588.502693	3454.200000
1590.400095	3401.400000
1592.297078	3392.800000
1594.193643	3357.200000
1596.091595	3342.200000
1597.983713	3355.800000
1599.879025	3333.000000
1601.773919	3328.000000
1603.666591	3371.800000
1605.558846	3356.400000
1607.448882	3295.000000
1609.338502	3355.600000
1611.227707	3322.400000
1613.116497	3372.600000
1615.003069	3329.800000
1616.891029	3355.000000
1618.774972	3318.200000
1620.660302	3304.200000
1622.545219	3288.800000
1624.427922	3281.200000
1626.312012	3327.400000
1628.192090	3260.000000
1630.073556	3306.800000
1631.952811	3273.400000
1633.833452	3249.800000
1635.708289	3269.200000
1637.588107	3330.800000
1639.463921	3274.000000
1641.339324	3277.000000
1643.216113	3288.000000
1645.087106	3274.800000
1646.961280	3296.800000
1648.831455	3255.000000
1650.704811	3235.200000
1652.575964	3228.400000
1654.444916	3164.600000
1656.315252	3224.200000
1658.181596	3177.200000
1660.049325	3165.200000
1661.914855	3131.400000
1663.781771	3201.000000
1665.644698	3189.200000
1667.509010	3129.200000
1669.371126	3148.200000
1671.232837	3177.600000
1673.095934	3113.800000
1674.956835	3069.800000
1676.815544	3095.400000
1678.673849	3107.800000
1680.533538	3162.800000
1682.387461	3120.600000
1684.244557	3129.000000
1686.101249	3115.600000
1687.953966	3092.000000
1689.809854	3036.600000
1691.661768	3111.000000
1693.513281	3031.600000
1695.364393	3046.200000
1697.215105	3090.200000
1699.065415	3036.600000
1700.913542	3058.600000
1702.763053	2978.200000
1704.606814	3019.800000
1706.455526	3007.000000
1708.298491	2997.800000
1710.144623	3009.000000
1711.986792	2997.600000
1713.832127	2987.200000
1715.671721	2906.400000
1717.512699	2952.000000
1719.355060	2922.400000
1721.193465	2957.600000
1723.033253	2973.200000
1724.870865	2919.400000
1726.708083	2913.600000
1728.543127	2909.600000
1730.379554	2901.600000
1732.213809	2836.400000
1734.047669	2858.400000
1735.881135	2853.400000
1737.710656	2859.600000
1739.543335	2841.600000
1741.372070	2820.400000
1743.203962	2859.800000
1745.031912	2862.000000
1746.859471	2764.200000
1748.686637	2792.000000
1750.513412	2773.800000
1752.339795	2755.000000
1754.162242	2762.000000
1755.987844	2768.200000
1757.809511	2787.000000
1759.632560	2778.400000
1761.453447	2721.800000
1763.273946	2790.000000
1765.095825	2727.600000
1766.912006	2707.600000
1768.731338	2776.200000
1770.546742	2759.800000
1772.365298	2773.400000
1774.179928	2763.200000
1775.994171	2791.600000
1777.808028	2726.400000
1779.621498	2753.000000
1781.432815	2725.400000
1783.245512	2712.000000
1785.057824	2698.000000
1786.866217	2664.400000
1788.675992	2698.200000
1790.481852	2737.600000
1792.290857	2749.600000
1794.095949	2757.400000
1795.902422	2722.000000
1797.708511	2732.200000
1799.510689	2746.400000
1801.316012	2720.600000
1803.117426	2735.400000
1804.920220	2770.200000
1806.719108	2746.600000
1808.519377	2782.000000
1810.319264	2711.800000
1812.117009	2727.200000
1813.914374	2687.400000
1815.711359	2738.800000
1817.507963	2731.800000
1819.302428	2728.000000
1821.098272	2768.200000
1822.888461	2787.400000
1824.683547	2743.000000
1826.472981	2695.200000
1828.265551	2725.400000
1830.055986	2758.600000
1831.844287	2745.200000
1833.635723	2753.800000
1835.421513	2706.400000
1837.208683	2800.800000
1838.993721	2739.000000
1840.781893	2720.800000
1842.566179	2730.800000
1844.348335	2763.200000
1846.131871	2710.400000
1847.913278	2743.600000
1849.696064	2708.000000
1851.474969	2740.400000
1853.255253	2732.200000
1855.033412	2722.000000
1856.812949	2695.000000
1858.590360	2653.600000
1860.365649	2705.800000
1862.142315	2669.800000
1863.916859	2754.200000
1865.692781	2714.800000
1867.463082	2728.400000
1869.236511	2710.600000
1871.007820	2676.400000
1872.778758	2723.000000
1874.551074	2702.200000
1876.317776	2746.600000
1878.087603	2688.000000
1879.853567	2767.800000
1881.622655	2720.400000
1883.387881	2762.400000
1885.152739	2728.400000
1886.918974	2740.200000
1888.681350	2773.200000
1890.443358	2760.200000
1892.205000	2731.800000
1893.966275	2749.800000
1895.727182	2749.400000
1897.487723	2744.400000
1899.246154	2757.400000
1901.004219	2711.400000
1902.760177	2776.200000
1904.517511	2706.800000
1906.274480	2759.400000
1908.029342	2739.400000
1909.782100	2706.000000
1911.534493	2765.200000
1913.288263	2744.000000
1915.039929	2743.600000
1916.789493	2727.400000
1918.540432	2755.800000
1920.291009	2731.400000
1922.037746	2812.600000
1923.785860	2809.800000
1925.531874	2752.400000
1927.279263	2756.000000
1929.024555	2760.800000
1930.767749	2773.200000
1932.512318	2794.400000
1934.254791	2768.000000
1935.996905	2758.000000
1937.738658	2767.200000
1939.480051	2772.600000
1941.219351	2792.200000
1942.958292	2798.800000
1944.696874	2818.400000
1946.433365	2806.200000
1948.169498	2832.900000
1949.907005	2859.600000
1951.640690	2843.400000
1953.375750	2813.000000
1955.108721	2873.400000
1956.841336	2801.200000
1958.573595	2821.400000
1960.305497	2808.600000
1962.035313	2840.800000
1963.763044	2831.200000
1965.492150	2879.800000
1967.220900	2824.000000
1968.947568	2835.600000
1970.673881	2869.400000
1972.401567	2904.000000
1974.123717	2839.800000
1975.848968	2835.200000
1977.570412	2888.400000
1979.294957	2844.600000
1981.017421	2900.600000
1982.736083	2897.000000
1984.457843	2899.400000
1986.175801	2905.200000
1987.895132	2893.000000
1989.610664	2889.200000
1991.331016	2916.000000
1993.047570	2897.800000
1994.760327	2902.800000
1996.476180	2954.000000
1998.189961	2927.400000
1999.903392	2940.000000
2001.614752	2959.200000
2003.327484	2940.000000
2005.036426	2937.000000
2006.748460	3012.800000
2008.454985	2953.000000
2010.164603	2981.200000
2011.872154	3003.600000
2013.579356	3011.400000
2015.284493	3016.200000
2016.989284	3026.000000
2018.695446	2988.800000
2020.397826	2965.800000
2022.101577	3019.400000
2023.803266	3026.600000
2025.504609	3049.800000
2027.205608	2987.000000
2028.904545	3013.800000
2030.604854	3004.800000
2032.301387	3066.600000
2033.999292	3050.000000
2035.695139	3054.200000
2037.394071	3038.000000
2039.087517	2995.000000
2040.782334	3083.000000
2042.476809	3007.600000
2044.167515	3119.600000
2045.861305	3033.600000
2047.551328	3101.400000
2049.242722	3005.000000
2050.932063	3096.000000
2052.622774	3040.000000
2054.309722	3025.600000
2055.996331	3036.800000
2057.684309	3042.000000
2059.368528	3059.200000
2061.054118	2981.000000
2062.739368	3010.200000
2064.422569	3020.000000
2066.107141	3004.200000
2067.786249	2971.000000
2069.470144	2953.000000
2071.148577	2999.000000
2072.830088	2990.400000
2074.507847	2953.800000
2076.185270	2949.600000
2077.864062	2988.400000
2079.540812	2963.800000
2081.215519	2949.400000
2082.891597	3004.800000
2084.565633	2974.200000
2086.239335	2924.800000
2087.912701	2941.200000
2089.584028	2944.400000
2091.255021	2922.200000
2092.925680	2898.200000
2094.596005	2951.200000
2096.265996	2944.600000
2097.933951	2930.200000
2099.601573	2959.600000
2101.267160	2946.000000
2102.934116	2943.000000
2104.599039	2971.200000
2106.263630	2971.200000
2107.926189	2954.800000
2109.590116	2966.400000
2111.252012	2908.800000
2112.913578	2964.800000
2114.574812	3005.600000
2116.234018	2975.400000
2117.892893	2960.600000
2119.551439	2953.800000
2121.209654	2993.600000
2122.864147	2981.600000
2124.521704	3037.200000
2126.178931	2964.400000
2127.832438	2954.600000
2129.487312	2984.000000
2131.138467	2994.400000
2132.792685	2987.400000
2134.443185	2992.000000
2136.095053	2959.800000
2137.741512	2926.600000
2139.392726	2955.000000
2141.040226	2983.600000
2142.689093	3013.400000
2144.335941	3013.800000
2145.982464	3033.400000
2147.628661	2995.600000
2149.271150	3014.600000
2150.916697	2978.400000
2152.558537	3011.600000
2154.203434	2940.200000
2155.844625	2997.600000
2157.485494	2949.400000
2159.126038	2953.200000
2160.764570	2916.200000
2162.404468	2988.600000
2164.040666	2994.200000
2165.678230	2976.600000
2167.315472	2919.200000
2168.950704	2937.400000
2170.585614	2967.200000
2172.220203	2942.400000
2173.854471	2955.600000
2175.485045	2903.200000
2177.118671	2901.400000
2178.748605	2937.800000
2180.379904	2947.600000
2182.009198	2987.200000
2183.638173	2925.800000
2185.266828	2899.000000
2186.895164	2909.000000
2188.521498	2877.000000
2190.147513	2882.400000
2191.771526	2869.000000
2193.396905	2902.600000
2195.020283	2910.800000
2196.645026	2899.400000
2198.266088	2870.600000
2199.886833	2880.600000
2201.508942	2864.600000
2203.129054	2899.000000
2204.747170	2856.200000
2206.364970	2901.000000
2207.982455	2821.400000
2209.599624	2925.000000
2211.216478	2900.200000
2212.833016	2859.800000
2214.447562	2933.600000
2216.060115	2842.800000
2217.674032	2887.200000
2219.285958	2888.000000
2220.899247	2849.200000
2222.510546	2892.200000
2224.119855	2845.400000
2225.730528	2859.000000
2227.339212	2866.600000
2228.947583	2840.800000
2230.553968	2845.000000
2232.161715	2902.400000
2233.767477	2856.200000
2235.372927	2854.200000
2236.976392	2847.000000
2238.581220	2836.000000
2240.184064	2868.600000
2241.784925	2848.800000
2243.387149	2877.800000
2244.987391	2878.000000
2246.588995	2929.800000
2248.186946	2824.800000
2249.786260	2875.600000
2251.383594	2850.600000
2252.980620	2839.600000
2254.579008	2859.200000
2256.173747	2830.200000
2257.766509	2874.600000
2259.360634	2800.800000
2260.956120	2857.000000
2262.547961	2813.000000
2264.139496	2794.200000
2265.732393	2849.800000
2267.319980	2845.400000
2268.912263	2772.000000
2270.499240	2808.800000
2272.089244	2794.000000
2273.673944	2797.400000
2275.263338	2821.800000
2276.847430	2779.400000
2278.432882	2802.400000
2280.016366	2769.800000
2281.602875	2735.200000
2283.185751	2761.000000
2284.768324	2756.200000
2286.350593	2794.400000
2287.929232	2783.800000
2289.510896	2706.000000
2291.088931	2766.600000
2292.669989	2738.200000
2294.247420	2708.700000
2295.822888	2679.200000
2297.401378	2735.400000
2298.976244	2696.600000
2300.550809	2695.400000
2302.125073	2695.200000
2303.699038	2717.200000
2305.272701	2701.400000
2306.846065	2712.400000
2308.415810	2713.400000
2309.985256	2690.000000
2311.557720	2738.600000
2313.124910	2676.000000
2314.695118	2676.400000
2316.261711	2634.400000
2317.829664	2663.400000
2319.395661	2676.600000
2320.961361	2674.800000
2322.526763	2685.400000
2324.090212	2701.400000
2325.655020	2703.600000
2327.216220	2700.000000
2328.780434	2629.600000
2330.339386	2719.400000
2331.901352	2761.800000
2333.461368	2747.200000
2335.021089	2702.800000
2336.578860	2755.800000
2338.136336	2669.600000
2339.693518	2724.000000
2341.248752	2692.200000
2342.803693	2697.800000
2344.358339	2694.400000
2345.912692	2711.800000
2347.466751	2715.200000
2349.020517	2693.200000
2350.572338	2727.200000
2352.122217	2723.800000
2353.675103	2688.800000
2355.222746	2725.200000
2356.773398	2656.200000
2358.320458	2690.800000
2359.868876	2695.000000
2361.417003	2698.600000
2362.961541	2668.000000
2364.507437	2669.400000
2366.051395	2684.800000
2367.596709	2615.200000
2369.138440	2684.000000
2370.681527	2662.800000
2372.222678	2687.400000
2373.763540	2705.600000
2375.304113	2629.400000
2376.844397	2672.600000
2378.384392	2649.800000
2379.920809	2618.400000
2381.460227	2671.200000
2382.996067	2680.800000
2384.533265	2670.800000
2386.066887	2625.400000
2387.603509	2676.600000
2389.138201	2688.000000
2390.670963	2645.000000
2392.203438	2648.800000
2393.733985	2688.400000
2395.267530	2686.000000
2396.795864	2633.800000
2398.325554	2659.600000
2399.854959	2720.800000
2401.384079	2669.600000
2402.912913	2694.400000
2404.436543	2672.400000
2405.964808	2687.200000
2407.487871	2738.800000
2409.015567	2705.600000
2410.536424	2679.600000
2412.061913	2703.600000
2413.583843	2665.800000
2415.107127	2708.800000
2416.628491	2691.400000
2418.147935	2705.000000
2419.668734	2721.000000
2421.187614	2698.000000
2422.706213	2717.600000
2424.222894	2740.600000
2425.740929	2727.000000
2427.258683	2788.200000
2428.772885	2712.200000
2430.286808	2712.000000
2431.800450	2795.600000
2433.315447	2740.200000
2434.826895	2743.000000
2436.339697	2668.600000
2437.850587	2831.200000
2439.361198	2723.400000
2440.869897	2743.600000
2442.381582	2719.800000
2443.889724	2748.800000
2445.397588	2722.600000
2446.905174	2779.400000
2448.409219	2781.000000
2449.916249	2697.000000
2451.421371	2721.000000
2452.926216	2763.400000
2454.429154	2800.400000
2455.931816	2750.600000
2457.434201	2775.400000
2458.934681	2721.400000
2460.436514	2752.400000
2461.936442	2758.400000
2463.436095	2740.800000
2464.935473	2753.800000
2466.432948	2716.200000
2467.928521	2776.200000
2469.427074	2754.400000
2470.922099	2735.000000
2472.418476	2786.200000
2473.911327	2764.600000
2475.405531	2737.600000
2476.899461	2766.200000
2478.389867	2740.000000
2479.883251	2800.800000
2481.374737	2793.200000
2482.864326	2786.400000
2484.353643	2789.400000
2485.841064	2796.800000
2487.331461	2737.600000
2488.818340	2786.400000
2490.306570	2826.200000
2491.791283	2787.000000
2493.275727	2768.000000
2494.761521	2806.600000
2496.245424	2819.600000
2497.730677	2711.400000
2499.210797	2826.800000
2500.693890	2767.800000
2502.175092	2784.400000
2503.656025	2770.000000
2505.135069	2755.400000
2506.613844	2798.600000
2508.092351	2772.400000
2509.570590	2705.600000
2511.048560	2689.200000
2512.523025	2799.600000
2514.000460	2776.400000
2515.474391	2778.000000
2516.949672	2780.000000
2518.424686	2802.000000
2519.896199	2791.000000
2521.369063	2773.400000
2522.840044	2793.600000
2524.312375	2782.200000
2525.779592	2814.200000
2527.249776	2748.400000
2528.718079	2770.800000
2530.186117	2749.000000
2531.653890	2737.200000
2533.121398	2762.200000
2534.588641	2758.400000
2536.052392	2739.200000
2537.517493	2835.000000
2538.980717	2730.200000
2540.445290	2701.000000
2541.906375	2783.400000
2543.368809	2768.800000
2544.830980	2772.800000
2546.289665	2754.200000
2547.752921	2827.600000
2549.211082	2787.800000
2550.670591	2756.400000
2552.125006	2758.400000
2553.583992	2790.600000
2555.041106	2756.200000
2556.496348	2730.400000
2557.951330	2764.200000
2559.404443	2740.400000
2560.858903	2752.800000
2562.311495	2747.200000
2563.763827	2713.800000
2565.214292	2766.600000
2566.667712	2758.400000
2568.116050	2729.200000
2569.567343	2752.600000
2571.016771	2803.800000
2572.462726	2744.400000
2573.911636	2766.400000
2575.357076	2770.000000
2576.803863	2765.800000
2578.248787	2800.600000
2579.693454	2782.000000
2581.139468	2809.200000
2582.582016	2816.600000
2584.025911	2714.600000
2585.466340	2732.400000
2586.908118	2789.600000
2588.348036	2807.200000
2589.789301	2718.200000
2591.227104	2810.200000
2592.667857	2781.000000
2594.103548	2726.600000
2595.542188	2828.000000
2596.978970	2807.000000
2598.413897	2741.000000
2599.851771	2799.400000
2601.284588	2795.000000
2602.718752	2796.200000
2604.151062	2833.400000
2605.584718	2782.200000
2607.016521	2777.200000
2608.448070	2803.800000
2609.879367	2714.000000
2611.308811	2803.600000
2612.738003	2806.000000
2614.165345	2800.800000
2615.594032	2803.200000
2617.022468	2814.800000
2618.447456	2842.800000
2619.873791	2753.000000
2621.298277	2719.600000
2622.724109	2791.000000
2624.146497	2799.200000
2625.570231	2747.600000
2626.992118	2777.600000
2628.413756	2796.000000
2629.833548	2772.600000
2631.254686	2793.000000
2632.675574	2739.800000
2634.093023	2747.200000
2635.513413	2777.400000
2636.930365	2808.800000
2638.347068	2739.600000
2639.763523	2701.600000
2641.179730	2768.000000
2642.595689	2796.800000
2644.009807	2775.600000
2645.423677	2826.400000
2646.835709	2738.600000
2648.249084	2778.000000
2649.659030	2787.400000
2651.071912	2716.600000
2652.481365	2761.000000
2653.890572	2742.600000
2655.297943	2736.400000
2656.708248	2790.400000
2658.116718	2750.400000
2659.523352	2782.400000
2660.929741	2744.000000
2662.334296	2775.000000
2663.740195	2791.200000
2665.144261	2750.600000
2666.548082	2769.400000
2667.951659	2768.200000
2669.353405	2760.200000
2670.756494	2749.400000
2672.156165	2760.200000
2673.557180	2780.400000
2674.954779	2733.800000
2676.355307	2724.400000
2677.752421	2740.000000
2679.150878	2756.400000
2680.547508	2729.200000
2681.943895	2738.800000
2683.340040	2789.600000
2684.734359	2737.200000
2686.130021	2688.800000
2687.522274	2681.400000
2688.915869	2690.000000
2690.307640	2679.600000
2691.700754	2671.800000
2693.092044	2667.400000
2694.481511	2713.400000
2695.870738	2677.800000
2697.259726	2664.600000
2698.650055	2667.400000
2700.035401	2684.600000
2701.423670	2702.800000
2702.810119	2620.200000
2704.196329	2694.200000
2705.582300	2661.000000
2706.964873	2663.400000
2708.348788	2664.200000
2709.732465	2649.400000
2711.115903	2687.400000
2712.495946	2678.800000
2713.877331	2769.000000
2715.256901	2732.800000
2716.637811	2649.400000
2718.016907	2694.600000
2719.394189	2685.400000
2720.772812	2710.000000
2722.149621	2674.600000
2723.526195	2695.000000
2724.902533	2654.000000
2726.277060	2701.200000
2727.652927	2680.200000
2729.025407	2688.000000
2730.400803	2681.400000
2731.771239	2726.200000
2733.143016	2679.800000
2734.514558	2692.800000
2735.884292	2676.000000
2737.255367	2683.600000
2738.624633	2711.800000
2739.993666	2725.200000
2741.360893	2728.200000
2742.727886	2671.800000
2744.094647	2683.000000
2745.461176	2667.000000
2746.825899	2697.600000
2748.190390	2693.200000
2749.554650	2705.200000
2750.918677	2735.800000
2752.282473	2691.000000
2753.642895	2746.000000
2755.006227	2710.200000
2756.364617	2760.200000
2757.725917	2719.400000
2759.083847	2670.800000
2760.444685	2682.000000
2761.803724	2714.000000
2763.159394	2680.000000
2764.517972	2676.200000
2765.873183	2725.200000
2767.228165	2698.200000
2768.581350	2712.000000
2769.937442	2688.000000
2771.290170	2692.400000
2772.642670	2664.000000
2773.994941	2733.200000
2775.348550	2683.200000
2776.698799	2673.600000
2778.047253	2681.000000
2779.398612	2712.000000
2780.746613	2707.400000
2782.095951	2671.200000
2783.443497	2722.400000
2784.790817	2712.600000
2786.137910	2674.400000
2787.483211	2718.800000
2788.828287	2640.200000
2790.173137	2721.200000
2791.517761	2681.000000
2792.859033	2690.200000
2794.201643	2710.600000
2795.544027	2645.400000
2796.886186	2653.400000
2798.224996	2761.200000
2799.566706	2724.400000
2800.905067	2701.600000
2802.244766	2720.800000
2803.582680	2695.400000
2804.918809	2723.600000
2806.254714	2694.600000
2807.591957	2719.800000
2808.927416	2717.800000
2810.262652	2777.400000
2811.596105	2730.000000
2812.930895	2775.600000
2814.262345	2767.800000
2815.596690	2784.000000
2816.926137	2722.200000
2818.256920	2793.200000
2819.587483	2770.200000
2820.916266	2751.400000
2822.246385	2778.600000
2823.574726	2753.400000
2824.902846	2747.000000
2826.229188	2752.800000
2827.556867	2731.200000
2828.881212	2774.600000
2830.206894	2753.200000
2831.530800	2779.600000
2832.854486	2781.200000
2834.179509	2782.400000
2835.501201	2765.200000
2836.822675	2812.000000
2838.143930	2729.600000
2839.464966	2802.400000
2840.784229	2764.400000
2842.104828	2762.600000
2843.423656	2711.400000
2844.742265	2756.400000
2846.059103	2723.200000
2847.375724	2772.600000
2848.692128	2782.400000
2850.006762	2718.800000
2851.322732	2692.400000
2852.635381	2748.800000
2853.949365	2745.400000
2855.263133	2827.400000
2856.576684	2777.600000
2857.888469	2727.200000
2859.198487	2750.600000
2860.509840	2764.800000
2861.817878	2737.600000
2863.127250	2791.200000
2864.436408	2793.000000
2865.745350	2708.000000
2867.052528	2763.400000
2868.357944	2784.800000
2869.664693	2797.800000
2870.969681	2784.600000
2872.274454	2785.600000
2873.577467	2764.000000
2874.883360	2755.600000
2876.184399	2797.600000
2877.486772	2762.600000
2878.787385	2780.400000
2880.089332	2762.800000
2881.391065	2739.600000
2882.689495	2777.600000
2883.989258	2773.000000
2885.287264	2751.800000
2886.585058	2785.800000
2887.881096	2804.600000
2889.178467	2779.200000
2890.474082	2812.600000
2891.769486	2782.200000
2893.064679	2804.000000
2894.356575	2770.000000
2895.651347	2727.200000
2896.942822	2786.200000
2898.235630	2790.800000
2899.528228	2786.400000
2900.817532	2745.800000
2902.108168	2785.000000
2903.397053	2783.200000
2904.687270	2782.400000
2905.974196	2755.200000
2907.262454	2826.000000
2908.548963	2771.800000
2909.835263	2758.600000
2911.121356	2778.600000
2912.405700	2827.800000
2913.692915	2721.600000
2914.975304	2780.200000
2916.259025	2826.600000
2917.541000	2833.000000
2918.822767	2863.400000
2920.102789	2801.200000
2921.385682	2805.800000
2922.666829	2737.400000
2923.944694	2754.800000
2925.225428	2815.400000
2926.502881	2781.000000
2927.780128	2764.800000
2929.055633	2711.400000
2930.334006	2721.400000
2931.607565	2728.600000
2932.883991	2746.200000
2934.158676	2742.000000
2935.431620	2728.000000
2936.705896	2835.600000
2937.978432	2771.000000
2939.250763	2745.600000
2940.519822	2736.000000
2941.791746	2758.000000
2943.061932	2774.000000
2944.331914	2712.200000
2945.601693	2733.000000
2946.869736	2777.400000
2948.136042	2746.600000
2949.402147	2775.000000
2950.669581	2738.000000
2951.935280	2809.800000
2953.200778	2798.800000
2954.466073	2757.800000
2955.728103	2749.600000
2956.991463	2825.000000
2958.254622	2766.800000
2959.516049	2759.200000
2960.778805	2731.600000
2962.039829	2782.000000
2963.299123	2815.000000
2964.558217	2771.600000
2965.817110	2777.800000
2967.075803	2752.600000
2968.334296	2772.400000
2969.591060	2756.000000
2970.847624	2791.600000
2972.102460	2787.600000
2973.358626	2758.600000
2974.611537	2772.800000
2975.865777	2779.200000
2977.119817	2768.200000
2978.372132	2777.800000
2979.624249	2779.800000
2980.874641	2813.800000
2982.127888	2816.400000
2983.376358	2822.200000
2984.627683	2856.800000
2985.875758	2841.400000
2987.123636	2838.200000
2988.371318	2809.000000
2989.618802	2843.400000
2990.864565	2861.800000
2992.110132	2844.600000
2993.357026	2809.000000
2994.600676	2839.800000
2995.845654	2854.400000
2997.087388	2859.600000
2998.331974	2820.200000
2999.574841	2830.600000
3000.814467	2905.400000
3002.056943	2867.000000
3003.296179	2828.400000
3004.536743	2851.400000
3005.775590	2869.800000
3007.014243	2894.400000
3008.251180	2907.600000
3009.489445	2848.400000
3010.725994	2842.800000
3011.962350	2919.200000
3013.198512	2888.600000
3014.432960	2908.200000
3015.667216	2876.600000
3016.901278	2908.200000
3018.133627	2914.000000
3019.364266	2919.800000
3020.597750	2876.000000
3021.829522	2933.400000
3023.059584	2841.800000
3024.289453	2945.200000
3025.517613	2912.000000
3026.747100	2925.600000
3027.974877	2922.600000
3029.202463	2881.000000
3030.431375	2949.800000
3031.655546	2986.600000
3032.882559	2944.800000
3034.106348	3006.600000
3035.331464	2957.800000
3036.554873	2965.200000
3037.778092	2907.600000
3038.999606	2965.800000
3040.223961	2951.400000
3041.443581	2965.200000
3042.664527	2988.200000
3043.885284	2975.000000
3045.104337	2966.600000
3046.324715	3010.600000
3047.541877	3002.200000
3048.760365	2977.200000
3049.977150	3012.400000
3051.193748	3011.400000
3052.410157	2950.200000
3053.623353	3026.000000
3054.839388	2997.400000
3056.052210	3019.600000
3057.267869	2980.600000
3058.478805	3020.600000
3059.691066	2959.800000
3060.903140	3004.600000
3062.115028	3058.000000
3063.325219	3056.600000
3064.535223	3040.600000
3065.745041	2998.200000
3066.953163	3017.800000
3068.161100	2998.200000
3069.367341	3086.000000
3070.574907	3072.600000
3071.780778	3066.600000
3072.986465	3060.600000
3074.191966	3049.200000
3075.395774	3048.000000
3076.600906	3091.800000
3077.804345	3051.400000
3079.006093	3079.800000
3080.207656	3108.200000
3081.409036	3087.600000
3082.610232	3100.400000
3083.809738	3108.600000
3085.009061	3128.600000
3086.209707	3073.800000
3087.408663	3149.000000
3088.604425	3057.800000
3089.803016	3090.200000
3090.998413	3108.800000
3092.195133	3112.400000
3093.388661	3082.800000
3094.585017	3095.800000
3095.779686	3099.800000
3096.971165	3128.600000
3098.166976	3109.200000
3099.358092	3127.600000
3100.550532	3122.200000
3101.739784	3074.800000
3102.931861	3079.600000
3104.122255	3085.200000
3105.309463	3138.200000
3106.497993	3092.200000
3107.687846	3117.400000
3108.874515	3086.000000
3110.061003	3074.000000
3111.247313	3108.000000
3112.434944	3089.800000
3113.619393	3129.000000
3114.802163	3084.800000
3115.987755	3133.000000
3117.171668	3040.200000
3118.353902	3119.200000
3119.535957	3148.200000
3120.717834	3107.600000
3121.899533	3105.000000
3123.079555	3161.200000
3124.257900	3102.200000
3125.439065	3109.200000
3126.617055	3054.000000
3127.794868	3179.000000
3128.972504	3084.400000
3130.148466	3118.400000
3131.324250	3164.200000
3132.501356	3093.200000
3133.676787	3096.600000
3134.850545	3083.600000
3136.022630	3177.000000
3137.196037	3090.800000
3138.369267	3145.000000
3139.540826	3094.800000
3140.713705	3120.000000
3141.883417	3117.400000
3143.054450	3172.800000
3144.223813	3173.400000
3145.391505	3155.200000
3146.562013	3182.400000
3147.727863	3047.400000
3148.898021	3101.200000
3150.063523	3141.800000
3151.228850	3104.800000
3152.394004	3117.600000
3153.558985	3134.600000
3154.725285	3150.400000
3155.886933	3111.800000
3157.049900	3116.000000
3158.212695	3072.200000
3159.375317	3070.600000
3160.536273	3055.600000
3161.697058	2981.800000
3162.857670	3016.000000
3164.016618	3039.400000
3165.175395	3020.000000
3166.333999	3058.800000
3167.492432	2969.800000
3168.650694	3031.600000
3169.807293	3080.400000
3170.962231	3004.200000
3172.118488	2997.400000
3173.273084	3008.400000
3174.427510	3021.800000
3175.580276	3049.400000
3176.732871	2960.800000
3177.885297	3047.600000
3179.037553	2946.200000
3180.189638	2999.600000
3181.338577	2971.200000
3182.490324	3033.800000
3183.640412	2970.800000
3184.788844	3041.200000
3185.937106	3032.200000
3187.085200	3016.000000
3188.233125	3106.800000
3189.379394	3061.400000
3190.525495	3047.600000
3191.669942	3063.600000
3192.814221	3058.200000
3193.958332	3094.000000
3195.103760	3089.800000
3196.246050	3100.000000
3197.388173	3022.000000
3198.530128	3076.400000
3199.671916	3023.800000
3200.813537	3056.800000
3201.952023	3032.200000
3203.091826	3089.400000
3204.232946	3067.800000
3205.370933	3139.600000
3206.507270	3089.800000
3207.643441	3070.800000
3208.780929	3126.600000
3209.916769	3076.800000
3211.053926	3086.200000
3212.186470	3024.000000
3213.323296	3139.400000
3214.455510	3107.600000
3215.589041	3042.200000
3216.722408	3078.400000
3217.852647	3084.200000
3218.985684	3023.200000
3220.115595	3023.600000
3221.246822	3035.400000
3222.374925	2992.200000
3223.505824	3018.200000
3224.635079	3014.000000
3225.762691	3024.400000
3226.887180	2986.800000
3228.015945	3049.600000
3229.141588	3002.000000
3230.267069	3036.600000
3231.390907	3045.000000
3232.517541	2983.800000
3233.639577	3038.400000
3234.762929	2977.000000
3235.886119	3056.000000
3237.009146	3062.600000
3238.130535	2987.600000
3239.251761	2983.400000
3240.371350	3072.000000
3241.490777	2990.200000
3242.608566	3012.800000
3243.729147	2971.400000
3244.846615	3034.200000
3245.963922	3078.400000
3247.081069	3123.200000
3248.196579	3066.200000
3249.313405	3090.800000
3250.427121	3070.200000
3251.543626	3089.600000
3252.658497	3070.400000
3253.770258	3129.400000
3254.881861	3056.600000
3255.994779	3108.400000
3257.107537	3079.000000
3258.217189	3104.400000
3259.328156	3072.400000
3260.438964	3045.600000
3261.548140	3052.200000
3262.655685	3086.400000
3263.764545	3026.600000
3264.873247	3064.800000
3265.978846	3117.000000
3267.085759	3129.200000
3268.191043	3150.600000
3269.297641	3123.000000
3270.401139	3144.800000
3271.505952	3098.000000
3272.610606	3099.600000
3273.712163	3109.000000
3274.813563	3129.400000
3275.916277	3084.400000
3277.018835	3034.400000
3278.118296	3152.600000
3279.220541	3120.200000
3280.319690	3120.200000
3281.417215	3114.000000
3282.514584	3089.600000
3283.614735	3133.200000
3284.711794	3083.600000
3285.808697	3086.200000
3286.905445	3118.600000
3287.997634	3066.600000
3289.094073	3104.400000
3290.188889	3102.600000
3291.283551	3117.200000
3292.376591	3099.800000
3293.469476	3130.600000
3294.560741	3110.800000
3295.653319	3107.600000
3296.744277	3125.800000
3297.833615	3135.600000
3298.922800	3157.800000
3300.013298	3085.400000
3301.100711	3119.400000
3302.187971	3085.800000
3303.276544	3081.800000
3304.364964	3102.800000
3305.448838	3121.800000
3306.536953	3106.800000
3307.621986	3168.200000
3308.705404	3147.800000
3309.790134	3158.600000
3310.873248	3142.000000
3311.957675	3119.000000
3313.039023	3132.400000
3314.121683	3170.000000
3315.202729	3086.800000
3316.283624	3121.000000
3317.362905	3121.400000
3318.442036	3209.200000
3319.522479	3171.200000
3320.599847	3136.400000
3321.678527	3145.400000
3322.755595	3149.000000
3323.832514	3178.200000
3324.907821	3190.200000
3325.982979	3190.200000
3327.059448	3170.400000
3328.132847	3160.800000
3329.206096	3157.200000
3330.280657	3183.600000
3331.353609	3161.000000
3332.424952	3142.600000
3333.497606	3203.400000
3334.567194	3124.400000
3335.638092	3094.400000
3336.707383	3144.400000
3337.777985	3145.600000
3338.846980	3072.400000
3339.914369	3157.000000
3340.980153	3135.600000
3342.050163	3072.000000
3343.117110	3087.600000
3344.180995	3109.400000
3345.247647	3130.800000
3346.312696	3024.200000
3347.376141	3151.200000
3348.439440	3156.800000
3349.502592	3092.200000
3350.565598	3136.600000
3351.628458	3028.800000
3352.689716	3144.200000
3353.747917	3128.600000
3354.810338	3127.800000
3355.869704	3108.400000
3356.928924	3093.400000
3357.989453	3094.800000
3359.045474	3172.600000
3360.104258	3130.400000
3361.158535	3152.400000
3362.215576	3125.400000
3363.271018	3161.400000
3364.327770	3164.200000
3365.382923	3141.200000
3366.436479	3242.800000
3367.488439	3204.200000
3368.543160	3239.400000
3369.594832	3158.200000
3370.646361	3200.000000
3371.699198	3198.000000
3372.748988	3190.200000
3373.800087	3229.400000
3374.848140	3180.200000
3375.898952	3217.600000
3376.946720	3232.200000
3377.994344	3201.000000
3379.041827	3188.800000
3380.087717	3194.800000
3381.134915	3190.800000
3382.179071	3227.400000
3383.225985	3228.400000
3384.271307	3214.800000
3385.313588	3204.600000
3386.355728	3289.800000
3387.399177	3255.600000
3388.442484	3195.400000
3389.484201	3221.600000
3390.525778	3264.800000
3391.567213	3197.600000
3392.607060	3233.400000
3393.645318	3212.800000
3394.684884	3217.400000
3395.724310	3199.400000
3396.762148	3253.000000
3397.798399	3251.600000
3398.834511	3234.600000
3399.871930	3211.400000
3400.906316	3186.400000
3401.942009	3171.000000
3402.977563	3182.200000
3404.010086	3224.800000
3405.045362	3225.400000
3406.077607	3201.800000
3407.109714	3240.000000
3408.140237	3263.800000
3409.172067	3189.400000
3410.203759	3239.000000
3411.232423	3239.200000
3412.260950	3191.200000
3413.290783	3277.200000
3414.320479	3230.000000
3415.347149	3281.000000
3416.375125	3206.600000
3417.400078	3242.600000
3418.427780	3282.200000
3419.452459	3272.600000
3420.478444	3311.200000
3421.502849	3295.600000
3422.527118	3217.000000
3423.549808	3318.800000
3424.572362	3259.400000
3425.596222	3263.200000
3426.617062	3257.000000
3427.637766	3275.200000
3428.659777	3235.000000
3429.678769	3199.600000
3430.697625	3278.200000
3431.717788	3289.600000
3432.734934	3276.400000
