-116.521679	6.800000
-113.852079	20.000000
-111.185414	11.400000
-108.519501	14.600000
-105.856521	16.200000
-103.192110	8.400000
-100.530630	7.800000
-97.867721	8.800000
-95.209918	3.200000
-92.550686	5.000000
-89.892202	19.200000
-87.236643	8.000000
-84.579654	27.400000
-81.927764	6.000000
-79.274444	1.200000
-76.624043	15.600000
-73.972214	31.200000
-71.325474	9.000000
-68.677306	12.200000
-66.029880	15.400000
-63.385369	2.000000
-60.739428	-5.800000
-58.098569	-3.000000
-55.456281	14.200000
-52.816902	5.800000
-50.176093	2.800000
-47.536025	9.000000
-44.901030	24.800000
-42.264605	-7.600000
-39.631083	8.000000
-36.996133	8.800000
-34.366248	-9.000000
-31.732771	-2.000000
-29.104356	34.200000
-26.476675	11.600000
-23.847565	21.400000
-21.223512	34.000000
-18.595870	14.800000
-15.973281	29.600000
-13.351424	11.200000
-10.730297	18.600000
-8.109901	16.000000
-5.492392	16.600000
-2.873455	64.200000
-0.257403	170.800000
2.357920	168.800000
4.972515	97.200000
7.584229	15.600000
10.197371	17.600000
12.805479	-4.400000
15.417169	6.400000
18.023828	28.000000
20.631915	23.200000
23.239278	4.000000
25.841616	-11.600000
28.447532	4.800000
31.048426	23.800000
33.650748	8.000000
36.248053	23.000000
38.848933	35.800000
41.444798	1.000000
44.042092	27.800000
46.638666	4.600000
49.230231	33.000000
51.823224	15.800000
54.413356	11.400000
57.004915	-1.200000
59.593616	46.800000
62.183743	11.400000
64.768871	-1.000000
67.355427	11.200000
69.941269	-1.000000
72.524257	14.000000
75.108671	27.800000
77.685957	11.200000
80.266809	-17.000000
82.844812	17.200000
85.422105	12.600000
88.000824	-2.600000
90.574561	19.400000
93.149726	14.200000
95.722047	10.600000
98.293660	16.200000
100.862433	17.000000
103.432633	21.200000
105.999994	4.600000
108.568782	36.400000
111.134733	34.600000
113.697849	26.600000
116.264521	14.800000
118.821972	34.800000
121.385108	40.800000
123.943284	30.000000
126.505015	84.200000
129.061789	76.200000
131.619989	112.000000
134.173237	167.400000
136.725787	231.600000
139.281887	319.800000
141.833039	399.600000
144.383494	501.200000
146.933251	588.400000
149.480189	644.000000
152.026432	663.400000
154.574100	713.200000
157.121072	715.000000
159.663109	714.600000
162.204452	731.000000
164.745102	714.200000
167.287178	706.000000
169.826442	743.200000
172.362898	711.800000
174.898662	768.600000
177.435852	780.000000
179.972351	718.000000
182.506044	740.800000
185.036933	733.400000
187.567134	724.600000
190.098761	718.800000
192.627586	772.800000
195.153612	706.200000
197.678952	733.600000
200.205717	730.800000
202.729686	711.200000
205.252970	791.200000
207.775569	734.400000
210.295375	764.400000
212.814497	741.200000
215.332938	764.000000
217.852802	747.200000
220.365665	775.600000
222.882059	772.400000
225.397771	775.000000
227.908593	759.400000
230.420840	751.800000
232.930305	786.200000
235.439090	747.800000
237.947198	800.000000
240.456730	719.000000
242.961381	782.800000
245.465356	757.200000
247.970755	755.200000
250.471279	774.400000
252.975326	773.800000
255.472403	745.600000
257.973003	782.000000
260.470831	771.200000
262.967986	779.000000
265.464468	782.400000
267.956087	771.000000
270.451226	761.600000
272.943598	783.800000
275.435300	768.800000
277.924239	785.400000
280.414601	807.800000
282.902202	788.800000
285.387043	792.200000
287.875399	783.400000
290.356815	744.000000
292.841745	771.600000
295.321830	785.200000
297.805427	802.000000
300.284181	783.600000
302.764358	785.600000
305.241784	753.600000
307.718546	798.800000
310.194644	764.000000
312.667995	774.600000
315.140683	799.400000
317.612710	784.000000
320.084076	787.600000
322.552697	813.600000
325.020660	855.800000
327.490044	780.400000
329.954606	807.800000
332.422672	792.800000
334.885918	799.200000
337.348506	789.800000
339.810438	782.000000
342.271713	838.600000
344.730254	764.400000
347.190217	841.200000
349.647447	797.800000
352.104023	837.800000
354.559945	799.600000
357.013137	813.400000
359.467752	804.000000
361.917565	764.600000
364.370874	832.000000
366.819384	802.000000
369.267244	773.000000
371.716526	828.600000
374.161014	801.800000
376.606924	852.000000
379.052184	825.400000
381.494726	775.800000
383.936620	803.400000
386.377867	822.400000
388.816398	800.400000
391.256350	807.800000
393.693590	857.200000
396.128117	836.800000
398.566132	816.200000
400.999370	834.200000
403.434029	843.600000
405.863916	823.200000
408.297288	848.000000
410.725890	858.600000
413.153850	844.600000
415.583232	858.800000
418.007848	857.000000
420.433886	817.400000
422.859283	798.000000
425.284040	866.000000
427.704039	819.400000
430.125458	843.600000
432.544182	834.400000
434.964326	843.400000
437.381775	879.000000
439.800644	832.000000
442.216820	837.400000
444.628248	840.200000
447.043153	840.000000
449.455369	865.800000
451.866950	871.600000
454.277897	877.200000
456.686158	874.000000
459.093786	882.000000
461.500782	882.600000
463.907147	879.200000
466.310829	887.000000
468.713881	860.600000
471.116303	882.800000
473.518095	873.400000
475.917209	858.800000
478.317743	858.800000
480.717648	888.000000
483.112831	902.600000
485.511480	874.800000
487.905408	883.800000
490.298711	877.400000
492.691389	862.200000
495.083441	860.400000
497.476911	883.000000
499.865669	871.600000
502.251761	876.200000
504.639273	882.600000
507.026162	852.600000
509.410387	871.400000
511.796030	888.200000
514.179012	861.000000
516.559333	841.800000
518.941073	874.200000
521.320154	884.200000
523.700654	871.600000
526.078496	872.600000
528.453682	878.600000
530.828252	904.600000
533.204239	917.800000
535.577574	891.200000
537.952326	866.400000
540.322393	915.600000
542.691844	880.800000
545.062713	923.200000
547.428901	899.000000
549.796508	894.600000
552.161470	882.200000
554.525818	917.200000
556.889553	881.200000
559.254706	880.800000
561.615187	858.800000
563.977086	912.200000
566.336344	885.600000
568.692964	919.800000
571.053030	870.800000
573.406404	875.400000
575.763223	919.000000
578.117407	895.800000
580.470982	918.400000
582.823950	893.600000
585.174285	870.800000
587.526038	930.400000
589.871114	875.800000
592.221653	886.000000
594.565520	924.800000
596.914848	914.200000
599.259527	912.600000
601.601582	920.800000
603.945054	875.400000
606.285903	876.000000
608.626149	879.800000
610.963776	876.800000
613.304837	918.800000
615.641260	916.800000
617.979100	904.000000
620.314323	895.600000
622.646930	918.200000
624.980953	922.400000
627.312362	886.400000
629.643173	907.200000
631.973387	918.600000
634.303002	896.000000
636.627994	912.600000
638.958428	891.400000
641.284241	893.400000
643.607446	921.400000
645.932068	903.600000
648.254084	904.600000
650.575506	949.400000
652.894326	915.400000
655.214561	928.800000
657.534203	933.600000
659.851244	909.400000
662.167693	915.600000
664.481544	900.000000
666.796811	904.000000
669.109481	922.000000
671.423566	895.400000
673.733051	930.200000
676.043952	910.200000
678.352260	908.000000
680.659980	926.400000
682.969114	908.600000
685.273656	931.800000
687.577612	939.000000
689.880982	910.600000
692.185766	908.600000
694.485963	903.800000
696.787576	920.200000
699.088603	893.400000
701.385049	952.000000
703.682910	887.200000
705.980187	907.800000
708.276881	879.600000
710.568999	925.200000
712.864528	915.800000
715.155483	928.000000
717.447853	948.000000
719.737648	919.600000
722.026862	924.000000
724.315497	927.000000
726.601559	915.200000
728.889036	918.200000
731.173941	931.600000
733.458269	939.600000
735.740028	932.400000
738.023201	935.000000
740.305797	931.400000
742.583837	928.400000
744.863292	929.400000
747.142170	926.000000
749.420474	944.200000
751.694228	926.200000
753.969395	953.200000
756.243989	954.000000
758.516024	968.200000
760.789472	951.200000
763.060362	941.400000
765.328696	957.200000
767.598443	917.800000
769.865636	938.200000
772.132258	967.400000
774.398310	955.000000
776.661811	947.800000
778.926725	951.800000
781.191069	933.600000
783.450884	903.600000
785.712111	958.800000
787.972771	965.800000
790.230885	925.200000
792.486454	960.400000
794.745414	958.200000
796.997874	955.000000
799.255702	982.400000
801.509011	957.600000
803.759780	947.000000
806.011961	953.400000
808.261603	979.800000
810.512658	970.800000
812.759201	958.800000
815.007156	948.600000
817.252577	966.000000
819.499409	1007.600000
821.745680	958.000000
823.987446	933.600000
826.232596	970.600000
828.471273	947.200000
830.713332	982.800000
832.950893	990.600000
835.189866	964.400000
837.426312	946.600000
839.664169	1005.800000
841.899501	953.600000
844.132310	979.000000
846.366530	980.200000
848.598227	957.800000
850.829370	945.800000
853.059958	997.800000
855.289992	963.000000
857.519472	969.600000
859.744470	1010.200000
861.972843	1010.000000
864.196736	1006.800000
866.422041	968.600000
868.642870	960.400000
870.867071	1030.800000
873.086799	970.800000
875.307937	980.800000
877.528525	989.600000
879.746604	966.600000
881.966092	971.200000
884.181114	1026.200000
886.395588	1019.000000
888.609515	965.400000
890.822895	1007.200000
893.035727	984.600000
895.248013	972.000000
897.457796	1032.400000
899.667034	962.000000
901.875727	979.000000
904.081920	940.800000
906.289524	992.400000
908.494629	992.000000
910.699191	974.000000
912.901258	980.400000
915.104734	987.400000
917.305716	963.600000
919.506156	955.400000
921.708005	1017.800000
923.903463	997.000000
926.102280	1007.200000
928.296658	969.600000
930.494394	1000.800000
932.687694	1013.200000
934.882403	995.200000
937.074626	1005.200000
939.266310	992.200000
941.457457	1031.800000
943.646121	983.000000
945.834249	1017.800000
948.019896	1012.200000
950.208895	1046.000000
952.393471	1016.000000
954.577512	1037.400000
956.764903	1027.800000
958.943990	1035.800000
961.126428	993.200000
963.308332	1014.800000
965.487761	1027.200000
967.664718	1044.000000
969.843083	1051.200000
972.022855	1032.400000
974.196278	991.800000
976.373047	1037.600000
978.545409	1061.000000
980.719179	1021.000000
982.888545	1022.000000
985.061255	1047.800000
987.231500	1022.200000
989.401215	1030.400000
991.570403	1027.000000
993.735193	1092.600000
995.903324	1064.400000
998.067060	1045.200000
1000.232204	1051.800000
1002.394888	1079.000000
1004.557047	1043.400000
1006.716749	1046.800000
1008.875926	1073.400000
1011.036510	1048.800000
1013.194639	1082.200000
1015.352245	1033.400000
1017.509327	1024.400000
1019.665885	1049.800000
1021.818064	1067.800000
1023.971650	1032.200000
1026.124714	1035.000000
1028.275329	1051.800000
1030.427351	1056.800000
1032.574999	1069.400000
1034.725979	1070.800000
1036.872588	1029.000000
1039.018678	1057.200000
1041.164250	1063.000000
1043.311227	1091.600000
1045.451915	1060.000000
1047.595933	1051.200000
1049.737510	1062.000000
1051.878571	1031.800000
1054.021036	1046.800000
1056.157221	1041.600000
1058.296733	1031.600000
1060.431890	1065.400000
1062.570371	1090.600000
1064.704498	1041.600000
1066.838112	1019.400000
1068.973130	1080.800000
1071.103800	1028.000000
1073.235874	1038.000000
1075.365519	1042.600000
1077.494652	1033.000000
1079.623273	1052.600000
1081.751383	1065.400000
1083.877067	1048.800000
1086.002241	1034.200000
1088.128819	1028.400000
1090.251059	1033.400000
1092.374704	1038.600000
1094.494014	1039.400000
1096.618553	1012.200000
1098.736848	1025.400000
1100.856547	1070.200000
1102.973827	1040.400000
1105.090600	1057.600000
1107.206868	1039.800000
1109.320719	1058.800000
1111.435975	1030.800000
1113.546907	1060.200000
1115.661152	1055.400000
1117.771076	1082.600000
1119.882404	1056.200000
1121.993227	1059.200000
1124.099734	1064.600000
1126.209550	1040.400000
1128.315053	1078.800000
1130.421958	1088.000000
1132.522648	1032.000000
1134.628550	1108.400000
1136.730143	1050.600000
1138.833139	1082.600000
1140.935634	1062.600000
1143.031922	1073.000000
1145.133417	1084.000000
1147.230610	1067.000000
1149.327305	1085.000000
1151.423501	1026.000000
1153.519199	1046.400000
1155.614400	1028.200000
1157.707204	1102.000000
1159.801410	1063.800000
1161.889425	1037.000000
1163.982639	1080.000000
1166.069664	1027.600000
1168.159988	1063.600000
1170.246024	1068.000000
1172.335359	1086.000000
1174.418512	1057.200000
1176.503067	1068.000000
1178.589024	1065.200000
1180.670699	1084.200000
1182.753775	1091.000000
1184.834466	1070.800000
1186.914666	1090.600000
1188.994374	1086.600000
1191.073591	1063.800000
1193.150426	1078.600000
1195.224879	1070.000000
1197.302625	1067.800000
1199.376101	1060.200000
1201.450977	1075.400000
1203.521586	1072.000000
1205.593596	1074.800000
1207.663231	1074.800000
1209.734265	1099.000000
1211.804813	1059.000000
1213.871099	1054.400000
1215.938786	1079.600000
1218.004101	1099.400000
1220.070816	1108.400000
1222.133275	1085.800000
1224.199019	1106.800000
1226.260509	1051.600000
1228.323400	1072.200000
1230.383923	1101.000000
1232.443962	1080.800000
1234.503518	1107.400000
1236.560710	1103.800000
1238.617420	1084.600000
1240.671766	1143.000000
1242.729394	1092.200000
1244.784659	1122.000000
1246.835683	1106.400000
1248.888107	1122.600000
1250.940051	1104.400000
1252.989637	1133.800000
1255.038744	1120.800000
1257.087372	1127.400000
1259.135522	1136.600000
1261.183194	1104.600000
1263.226635	1163.000000
1265.273352	1112.400000
1267.317715	1150.800000
1269.361602	1125.800000
1271.403137	1115.400000
1273.442323	1183.600000
1275.484782	1155.200000
1277.523018	1194.800000
1279.562653	1147.400000
1281.601813	1131.200000
1283.636754	1154.400000
1285.673094	1161.200000
1287.707090	1168.200000
1289.742483	1152.200000
1291.773664	1147.600000
1293.806242	1182.000000
1295.838349	1190.200000
1297.868115	1180.200000
1299.899278	1174.800000
1301.926235	1201.800000
1303.954589	1166.200000
1305.978738	1192.600000
1308.006153	1240.200000
1310.029365	1241.800000
1312.053975	1238.400000
1314.076251	1280.400000
1316.099924	1348.000000
1318.121263	1362.800000
1320.142136	1486.400000
1322.162541	1645.400000
1324.178753	1925.600000
1326.196362	2624.400000
1328.211643	4362.600000
1330.230183	8351.400000
1332.244534	13985.600000
1334.256558	15164.200000
1336.271841	10700.200000
1338.282938	5183.400000
1340.295432	2729.400000
1342.303743	1941.400000
1344.315309	1596.200000
1346.320837	1409.600000
1348.329620	1333.400000
1350.334225	1283.800000
1352.342084	1246.600000
1354.349481	1272.000000
1356.350847	1228.400000
1358.353609	1175.800000
1360.355912	1198.400000
1362.357755	1176.000000
1364.359138	1188.200000
1366.358208	1173.000000
1368.356819	1164.200000
1370.354971	1158.000000
1372.352666	1172.200000
1374.346198	1138.600000
1376.341125	1156.600000
1378.335596	1121.600000
1380.329610	1125.000000
1382.321317	1167.000000
1384.312568	1127.400000
1386.301514	1142.800000
1388.291856	1169.400000
1390.281742	1116.200000
1392.269324	1149.000000
1394.256453	1142.400000
1396.241280	1159.200000
1398.227502	1151.000000
1400.211423	1142.800000
1402.194892	1118.000000
1404.177909	1134.600000
1406.158628	1170.400000
1408.140741	1153.800000
1410.120558	1113.400000
1412.099923	1210.400000
1414.075150	1167.000000
1416.053615	1121.000000
1418.029787	1160.800000
1420.005509	1164.800000
1421.980783	1157.000000
1423.953765	1128.200000
1425.926299	1174.800000
1427.898385	1157.600000
1429.870024	1171.800000
1431.837534	1163.000000
1433.810118	1192.000000
1435.774896	1166.800000
1437.744747	1171.800000
1439.710474	1181.600000
1441.677593	1170.800000
1443.642429	1163.400000
1445.603145	1158.000000
1447.568929	1193.400000
1449.528758	1192.800000
1451.489981	1164.000000
1453.452595	1166.400000
1455.411095	1174.600000
1457.369153	1200.800000
1459.326769	1203.800000
1461.283942	1166.800000
1463.238840	1167.200000
1465.195131	1196.000000
1467.149147	1168.400000
1469.102722	1172.800000
1471.054025	1171.600000
1473.006721	1175.600000
1474.957144	1207.600000
1476.907129	1190.800000
1478.856675	1213.200000
1480.803952	1160.800000
1482.748961	1129.400000
1484.695363	1127.600000
1486.641327	1140.600000
1488.586854	1137.600000
1490.530115	1154.400000
1492.472941	1141.800000
1494.413502	1175.000000
1496.355456	1160.200000
1498.295147	1148.000000
1500.234403	1148.000000
1502.173225	1146.800000
1504.109787	1160.200000
1506.047740	1173.800000
1507.983434	1141.800000
1509.918695	1139.800000
1511.851699	1161.200000
1513.784272	1172.600000
1515.716412	1176.800000
1517.648120	1177.400000
1519.577574	1199.200000
1521.508419	1176.200000
1523.438832	1166.400000
1525.365173	1170.800000
1527.292904	1150.800000
1529.218386	1186.800000
1531.143438	1172.200000
1533.068061	1179.400000
1534.992254	1196.400000
1536.914201	1154.800000
1538.837538	1180.200000
1540.758628	1192.000000
1542.677474	1197.400000
1544.597710	1221.200000
1546.515703	1175.800000
1548.433269	1166.800000
1550.348593	1164.600000
1552.265307	1198.200000
1554.177966	1182.200000
1556.093829	1176.200000
1558.007452	1194.200000
1559.918837	1190.400000
1561.831612	1204.600000
1563.740337	1186.400000
1565.650451	1179.800000
1567.560142	1181.800000
1569.469410	1209.400000
1571.376444	1211.800000
1573.281245	1181.800000
1575.187435	1182.800000
1577.091393	1218.000000
1578.994930	1176.800000
1580.898047	1188.400000
1582.798934	1183.800000
1584.701210	1167.800000
1586.601258	1161.200000
1588.502693	1210.600000
1590.400095	1188.400000
1592.297078	1178.600000
1594.193643	1177.800000
1596.091595	1171.400000
1597.983713	1161.400000
1599.879025	1215.600000
1601.773919	1160.400000
1603.666591	1128.400000
1605.558846	1162.000000
1607.448882	1175.400000
1609.338502	1181.800000
1611.227707	1150.200000
1613.116497	1177.000000
1615.003069	1138.800000
1616.891029	1173.200000
1618.774972	1189.800000
1620.660302	1188.800000
1622.545219	1129.200000
1624.427922	1175.200000
1626.312012	1150.600000
1628.192090	1127.000000
1630.073556	1170.800000
1631.952811	1167.600000
1633.833452	1161.400000
1635.708289	1153.800000
1637.588107	1173.800000
1639.463921	1161.800000
1641.339324	1137.400000
1643.216113	1151.600000
1645.087106	1164.600000
1646.961280	1154.200000
1648.831455	1198.600000
1650.704811	1140.000000
1652.575964	1152.600000
1654.444916	1145.800000
1656.315252	1163.400000
1658.181596	1128.800000
1660.049325	1143.200000
1661.914855	1193.800000
1663.781771	1135.200000
1665.644698	1177.200000
1667.509010	1118.600000
1669.371126	1148.400000
1671.232837	1132.800000
1673.095934	1094.000000
1674.956835	1144.800000
1676.815544	1154.000000
1678.673849	1095.800000
1680.533538	1130.600000
1682.387461	1095.200000
1684.244557	1098.800000
1686.101249	1130.800000
1687.953966	1136.600000
1689.809854	1110.600000
1691.661768	1132.400000
1693.513281	1096.400000
1695.364393	1120.600000
1697.215105	1161.000000
1699.065415	1109.200000
1700.913542	1108.600000
1702.763053	1106.200000
1704.606814	1111.600000
1706.455526	1139.800000
1708.298491	1093.200000
1710.144623	1116.200000
1711.986792	1111.200000
1713.832127	1094.800000
1715.671721	1118.400000
1717.512699	1080.600000
1719.355060	1072.600000
1721.193465	1108.000000
1723.033253	1074.000000
1724.870865	1067.200000
1726.708083	1080.200000
1728.543127	1078.000000
1730.379554	1055.400000
1732.213809	1099.000000
1734.047669	1067.000000
1735.881135	1070.600000
1737.710656	1089.000000
1739.543335	1089.400000
1741.372070	1106.800000
1743.203962	1117.800000
1745.031912	1100.400000
1746.859471	1054.600000
1748.686637	1095.000000
1750.513412	1067.600000
1752.339795	1058.200000
1754.162242	1064.600000
1755.987844	1052.600000
1757.809511	1080.400000
1759.632560	1079.000000
1761.453447	1075.000000
1763.273946	1057.400000
1765.095825	1070.400000
1766.912006	1049.000000
1768.731338	1087.400000
1770.546742	1049.400000
1772.365298	1057.800000
1774.179928	1058.600000
1775.994171	1068.600000
1777.808028	1097.200000
1779.621498	1063.800000
1781.432815	1058.200000
1783.245512	1083.400000
1785.057824	1099.800000
1786.866217	1034.000000
1788.675992	1090.000000
1790.481852	1024.200000
1792.290857	1032.400000
1794.095949	1079.800000
1795.902422	1064.600000
1797.708511	1070.000000
1799.510689	1057.200000
1801.316012	1074.600000
1803.117426	1063.400000
1804.920220	1071.200000
1806.719108	1093.600000
1808.519377	1088.200000
1810.319264	1072.200000
1812.117009	1075.400000
1813.914374	1065.200000
1815.711359	1057.000000
1817.507963	1079.800000
1819.302428	1081.800000
1821.098272	1121.200000
1822.888461	1059.600000
1824.683547	1052.400000
1826.472981	1042.400000
1828.265551	1072.600000
1830.055986	1057.800000
1831.844287	1070.800000
1833.635723	1084.800000
1835.421513	1054.400000
1837.208683	1058.600000
1838.993721	1061.400000
1840.781893	1076.600000
1842.566179	1065.000000
1844.348335	1069.400000
1846.131871	1073.400000
1847.913278	1111.000000
1849.696064	1045.800000
1851.474969	1068.000000
1853.255253	1077.800000
1855.033412	1093.800000
1856.812949	1049.200000
1858.590360	1054.400000
1860.365649	1061.000000
1862.142315	1076.800000
1863.916859	1069.800000
1865.692781	1085.000000
1867.463082	1085.400000
1869.236511	1074.000000
1871.007820	1060.400000
1872.778758	1078.800000
1874.551074	1119.000000
1876.317776	1124.400000
1878.087603	1061.000000
1879.853567	1098.000000
1881.622655	1106.000000
1883.387881	1074.200000
1885.152739	1099.600000
1886.918974	1076.200000
1888.681350	1050.400000
1890.443358	1078.400000
1892.205000	1049.200000
1893.966275	1058.200000
1895.727182	1090.400000
1897.487723	1061.200000
1899.246154	1093.600000
1901.004219	1067.800000
1902.760177	1094.600000
1904.517511	1082.200000
1906.274480	1049.000000
1908.029342	1056.800000
1909.782100	1048.200000
1911.534493	1077.200000
1913.288263	1041.400000
1915.039929	1068.200000
1916.789493	1052.200000
1918.540432	1043.200000
1920.291009	1071.200000
1922.037746	1048.600000
1923.785860	1021.600000
1925.531874	1074.800000
1927.279263	1065.400000
1929.024555	1048.200000
1930.767749	1091.800000
1932.512318	1082.400000
1934.254791	1056.400000
1935.996905	1074.200000
1937.738658	1072.200000
1939.480051	1070.800000
1941.219351	1071.800000
1942.958292	1056.000000
1944.696874	1045.600000
1946.433365	1070.400000
1948.169498	1069.000000
1949.907005	1067.600000
1951.640690	1063.800000
1953.375750	1082.200000
1955.108721	1089.400000
1956.841336	1087.200000
1958.573595	1086.600000
1960.305497	1103.000000
1962.035313	1107.600000
1963.763044	1073.400000
1965.492150	1103.200000
1967.220900	1092.800000
1968.947568	1063.000000
1970.673881	1109.200000
1972.401567	1116.200000
1974.123717	1104.200000
1975.848968	1069.800000
1977.570412	1095.400000
1979.294957	1100.000000
1981.017421	1126.400000
1982.736083	1114.800000
1984.457843	1094.800000
1986.175801	1086.800000
1987.895132	1101.400000
1989.610664	1093.800000
1991.331016	1125.200000
1993.047570	1107.800000
1994.760327	1100.800000
1996.476180	1066.800000
1998.189961	1081.800000
1999.903392	1086.000000
2001.614752	1106.600000
2003.327484	1109.400000
2005.036426	1149.400000
2006.748460	1143.600000
2008.454985	1173.800000
2010.164603	1118.200000
2011.872154	1101.000000
2013.579356	1137.000000
2015.284493	1139.000000
2016.989284	1158.200000
2018.695446	1147.600000
2020.397826	1144.200000
2022.101577	1202.200000
2023.803266	1135.600000
2025.504609	1123.600000
2027.205608	1122.200000
2028.904545	1154.600000
2030.604854	1143.600000
2032.301387	1150.000000
2033.999292	1138.400000
2035.695139	1182.200000
2037.394071	1176.800000
2039.087517	1138.400000
2040.782334	1105.600000
2042.476809	1119.200000
2044.167515	1119.800000
2045.861305	1106.200000
2047.551328	1137.600000
2049.242722	1155.200000
2050.932063	1135.200000
2052.622774	1089.000000
2054.309722	1131.600000
2055.996331	1110.800000
2057.684309	1106.000000
2059.368528	1119.000000
2061.054118	1149.200000
2062.739368	1094.800000
2064.422569	1120.400000
2066.107141	1134.400000
2067.786249	1115.200000
2069.470144	1124.800000
2071.148577	1071.400000
2072.830088	1150.800000
2074.507847	1106.000000
2076.185270	1152.200000
2077.864062	1110.600000
2079.540812	1121.400000
2081.215519	1151.800000
2082.891597	1142.400000
2084.565633	1116.000000
2086.239335	1116.800000
2087.912701	1141.400000
2089.584028	1104.000000
2091.255021	1109.600000
2092.925680	1154.200000
2094.596005	1154.600000
2096.265996	1114.400000
2097.933951	1102.000000
2099.601573	1105.000000
2101.267160	1120.200000
2102.934116	1144.600000
2104.599039	1150.800000
2106.263630	1121.400000
2107.926189	1095.800000
2109.590116	1146.200000
2111.252012	1088.800000
2112.913578	1136.200000
2114.574812	1150.600000
2116.234018	1144.400000
2117.892893	1128.400000
2119.551439	1135.200000
2121.209654	1157.000000
2122.864147	1104.000000
2124.521704	1118.200000
2126.178931	1132.600000
2127.832438	1139.200000
2129.487312	1153.800000
2131.138467	1124.600000
2132.792685	1123.400000
2134.443185	1139.800000
2136.095053	1151.800000
2137.741512	1134.200000
2139.392726	1151.200000
2141.040226	1127.800000
2142.689093	1189.800000
2144.335941	1132.400000
2145.982464	1135.200000
2147.628661	1139.800000
2149.271150	1136.200000
2150.916697	1148.000000
2152.558537	1163.000000
2154.203434	1131.000000
2155.844625	1160.400000
2157.485494	1149.000000
2159.126038	1132.200000
2160.764570	1149.400000
2162.404468	1178.600000
2164.040666	1117.600000
2165.678230	1147.000000
2167.315472	1103.600000
2168.950704	1134.800000
2170.585614	1156.800000
2172.220203	1100.600000
2173.854471	1114.800000
2175.485045	1124.400000
2177.118671	1133.200000
2178.748605	1154.200000
2180.379904	1139.600000
2182.009198	1175.200000
2183.638173	1168.400000
2185.266828	1128.000000
2186.895164	1140.400000
2188.521498	1113.000000
2190.147513	1104.800000
2191.771526	1119.000000
2193.396905	1132.800000
2195.020283	1144.600000
2196.645026	1115.400000
2198.266088	1117.400000
2199.886833	1107.400000
2201.508942	1160.600000
2203.129054	1141.800000
2204.747170	1167.800000
2206.364970	1112.600000
2207.982455	1170.800000
2209.599624	1149.600000
2211.216478	1069.000000
2212.833016	1125.400000
2214.447562	1140.400000
2216.060115	1085.600000
2217.674032	1096.200000
2219.285958	1122.600000
2220.899247	1126.600000
2222.510546	1135.200000
2224.119855	1108.000000
2225.730528	1096.000000
2227.339212	1109.600000
2228.947583	1121.400000
2230.553968	1153.200000
2232.161715	1108.400000
2233.767477	1136.400000
2235.372927	1136.400000
2236.976392	1118.600000
2238.581220	1118.800000
2240.184064	1109.400000
2241.784925	1150.800000
2243.387149	1144.400000
2244.987391	1133.000000
2246.588995	1110.600000
2248.186946	1141.800000
2249.786260	1155.400000
2251.383594	1117.000000
2252.980620	1131.800000
2254.579008	1161.800000
2256.173747	1139.200000
2257.766509	1160.600000
2259.360634	1150.400000
2260.956120	1136.600000
2262.547961	1128.600000
2264.139496	1146.600000
2265.732393	1155.800000
2267.319980	1138.400000
2268.912263	1144.400000
2270.499240	1176.800000
2272.089244	1116.800000
2273.673944	1131.200000
2275.263338	1134.800000
2276.847430	1139.400000
2278.432882	1118.600000
2280.016366	1092.000000
2281.602875	1128.400000
2283.185751	1129.800000
2284.768324	1110.200000
2286.350593	1124.400000
2287.929232	1138.600000
2289.510896	1111.200000
2291.088931	1133.200000
2292.669989	1098.000000
2294.247420	1092.500000
2295.822888	1087.000000
2297.401378	1113.800000
2298.976244	1109.000000
2300.550809	1099.000000
2302.125073	1095.400000
2303.699038	1118.800000
2305.272701	1155.000000
2306.846065	1089.400000
2308.415810	1097.600000
2309.985256	1075.800000
2311.557720	1085.800000
2313.124910	1088.800000
2314.695118	1170.800000
2316.261711	1108.000000
2317.829664	1093.200000
2319.395661	1120.800000
2320.961361	1095.600000
2322.526763	1094.600000
2324.090212	1137.800000
2325.655020	1086.200000
2327.216220	1108.200000
2328.780434	1131.400000
2330.339386	1086.600000
2331.901352	1177.200000
2333.461368	1122.600000
2335.021089	1129.000000
2336.578860	1143.200000
2338.136336	1128.800000
2339.693518	1085.600000
2341.248752	1115.800000
2342.803693	1081.200000
2344.358339	1141.000000
2345.912692	1109.200000
2347.466751	1118.200000
2349.020517	1101.800000
2350.572338	1144.800000
2352.122217	1156.400000
2353.675103	1120.600000
2355.222746	1130.400000
2356.773398	1094.400000
2358.320458	1135.800000
2359.868876	1123.600000
2361.417003	1133.600000
2362.961541	1145.800000
2364.507437	1099.200000
2366.051395	1083.600000
2367.596709	1132.000000
2369.138440	1165.400000
2370.681527	1120.400000
2372.222678	1108.800000
2373.763540	1092.200000
2375.304113	1115.600000
2376.844397	1083.600000
2378.384392	1146.800000
2379.920809	1171.000000
2381.460227	1146.000000
2382.996067	1100.000000
2384.533265	1121.800000
2386.066887	1137.800000
2387.603509	1130.600000
2389.138201	1119.600000
2390.670963	1112.200000
2392.203438	1124.400000
2393.733985	1122.600000
2395.267530	1167.200000
2396.795864	1102.600000
2398.325554	1103.200000
2399.854959	1122.600000
2401.384079	1119.800000
2402.912913	1141.200000
2404.436543	1112.400000
2405.964808	1147.800000
2407.487871	1145.200000
2409.015567	1140.200000
2410.536424	1143.600000
2412.061913	1146.800000
2413.583843	1161.400000
2415.107127	1127.800000
2416.628491	1194.000000
2418.147935	1148.600000
2419.668734	1142.600000
2421.187614	1143.200000
2422.706213	1171.000000
2424.222894	1170.600000
2425.740929	1159.000000
2427.258683	1153.600000
2428.772885	1149.000000
2430.286808	1184.000000
2431.800450	1143.400000
2433.315447	1176.000000
2434.826895	1196.000000
2436.339697	1160.600000
2437.850587	1168.200000
2439.361198	1194.600000
2440.869897	1154.800000
2442.381582	1167.200000
2443.889724	1187.400000
2445.397588	1172.600000
2446.905174	1202.000000
2448.409219	1203.600000
2449.916249	1203.200000
2451.421371	1227.400000
2452.926216	1170.800000
2454.429154	1250.600000
2455.931816	1198.400000
2457.434201	1198.600000
2458.934681	1216.600000
2460.436514	1201.600000
2461.936442	1188.800000
2463.436095	1211.600000
2464.935473	1219.400000
2466.432948	1259.600000
2467.928521	1209.200000
2469.427074	1243.400000
2470.922099	1226.200000
2472.418476	1214.000000
2473.911327	1225.400000
2475.405531	1238.800000
2476.899461	1230.800000
2478.389867	1236.800000
2479.883251	1268.000000
2481.374737	1224.800000
2482.864326	1211.000000
2484.353643	1205.600000
2485.841064	1188.000000
2487.331461	1174.800000
2488.818340	1174.600000
2490.306570	1217.600000
2491.791283	1234.800000
2493.275727	1228.200000
2494.761521	1201.000000
2496.245424	1228.800000
2497.730677	1213.400000
2499.210797	1246.600000
2500.693890	1143.200000
2502.175092	1211.000000
2503.656025	1198.600000
2505.135069	1175.400000
2506.613844	1165.600000
2508.092351	1156.800000
2509.570590	1184.400000
2511.048560	1150.800000
2512.523025	1210.000000
2514.000460	1196.200000
2515.474391	1141.000000
2516.949672	1153.400000
2518.424686	1192.400000
2519.896199	1161.600000
2521.369063	1159.000000
2522.840044	1153.400000
2524.312375	1147.200000
2525.779592	1191.800000
2527.249776	1118.600000
2528.718079	1140.200000
2530.186117	1130.800000
2531.653890	1142.600000
2533.121398	1145.200000
2534.588641	1145.400000
2536.052392	1134.400000
2537.517493	1150.000000
2538.980717	1136.200000
2540.445290	1152.400000
2541.906375	1105.000000
2543.368809	1145.800000
2544.830980	1151.200000
2546.289665	1136.400000
2547.752921	1116.600000
2549.211082	1123.600000
2550.670591	1162.600000
2552.125006	1138.400000
2553.583992	1106.000000
2555.041106	1093.600000
2556.496348	1097.600000
2557.951330	1122.600000
2559.404443	1128.000000
2560.858903	1089.600000
2562.311495	1133.000000
2563.763827	1116.600000
2565.214292	1140.200000
2566.667712	1118.400000
2568.116050	1116.200000
2569.567343	1114.600000
2571.016771	1113.600000
2572.462726	1086.200000
2573.911636	1130.600000
2575.357076	1109.000000
2576.803863	1137.200000
2578.248787	1100.800000
2579.693454	1126.400000
2581.139468	1155.400000
2582.582016	1137.000000
2584.025911	1123.200000
2585.466340	1114.400000
2586.908118	1105.600000
2588.348036	1132.000000
2589.789301	1144.000000
2591.227104	1116.000000
2592.667857	1135.400000
2594.103548	1068.000000
2595.542188	1127.600000
2596.978970	1147.800000
2598.413897	1106.800000
2599.851771	1164.400000
2601.284588	1151.400000
2602.718752	1137.200000
2604.151062	1135.800000
2605.584718	1111.200000
2607.016521	1128.800000
2608.448070	1110.600000
2609.879367	1132.800000
2611.308811	1153.400000
2612.738003	1115.600000
2614.165345	1116.200000
2615.594032	1091.000000
2617.022468	1099.800000
2618.447456	1110.800000
2619.873791	1109.200000
2621.298277	1131.400000
2622.724109	1109.600000
2624.146497	1148.000000
2625.570231	1094.800000
2626.992118	1093.000000
2628.413756	1134.400000
2629.833548	1124.200000
2631.254686	1165.200000
2632.675574	1126.200000
2634.093023	1074.000000
2635.513413	1106.400000
2636.930365	1094.200000
2638.347068	1114.600000
2639.763523	1146.400000
2641.179730	1113.000000
2642.595689	1111.000000
2644.009807	1132.800000
2645.423677	1117.000000
2646.835709	1139.800000
2648.249084	1132.600000
2649.659030	1095.600000
2651.071912	1093.400000
2652.481365	1111.800000
2653.890572	1118.400000
2655.297943	1092.200000
2656.708248	1118.600000
2658.116718	1147.600000
2659.523352	1116.000000
2660.929741	1131.200000
2662.334296	1137.800000
2663.740195	1121.600000
2665.144261	1122.600000
2666.548082	1108.200000
2667.951659	1134.000000
2669.353405	1148.400000
2670.756494	1141.600000
2672.156165	1131.400000
2673.557180	1140.000000
2674.954779	1167.000000
2676.355307	1137.200000
2677.752421	1155.800000
2679.150878	1132.600000
2680.547508	1111.200000
2681.943895	1096.400000
2683.340040	1098.200000
2684.734359	1110.000000
2686.130021	1101.800000
2687.522274	1107.600000
2688.915869	1131.800000
2690.307640	1125.800000
2691.700754	1119.600000
2693.092044	1083.000000
2694.481511	1134.200000
2695.870738	1093.000000
2697.259726	1124.200000
2698.650055	1067.600000
2700.035401	1118.400000
2701.423670	1165.000000
2702.810119	1128.000000
2704.196329	1114.400000
2705.582300	1108.800000
2706.964873	1135.000000
2708.348788	1109.600000
2709.732465	1084.800000
2711.115903	1085.400000
2712.495946	1097.800000
2713.877331	1095.400000
2715.256901	1131.200000
2716.637811	1136.400000
2718.016907	1142.600000
2719.394189	1121.600000
2720.772812	1110.400000
2722.149621	1080.600000
2723.526195	1108.000000
2724.902533	1120.200000
2726.277060	1115.400000
2727.652927	1100.600000
2729.025407	1095.000000
2730.400803	1173.600000
2731.771239	1127.200000
2733.143016	1092.600000
2734.514558	1150.800000
2735.884292	1090.400000
2737.255367	1128.200000
2738.624633	1107.000000
2739.993666	1086.400000
2741.360893	1099.800000
2742.727886	1145.000000
2744.094647	1112.800000
2745.461176	1119.000000
2746.825899	1125.200000
2748.190390	1163.200000
2749.554650	1145.000000
2750.918677	1100.000000
2752.282473	1147.000000
2753.642895	1149.600000
2755.006227	1152.400000
2756.364617	1119.200000
2757.725917	1175.200000
2759.083847	1110.400000
2760.444685	1101.200000
2761.803724	1106.600000
2763.159394	1154.200000
2764.517972	1146.800000
2765.873183	1101.400000
2767.228165	1143.600000
2768.581350	1144.800000
2769.937442	1160.000000
2771.290170	1106.600000
2772.642670	1156.800000
2773.994941	1123.000000
2775.348550	1162.400000
2776.698799	1118.400000
2778.047253	1146.400000
2779.398612	1159.400000
2780.746613	1138.400000
2782.095951	1100.000000
2783.443497	1106.600000
2784.790817	1163.800000
2786.137910	1176.200000
2787.483211	1121.000000
2788.828287	1110.800000
2790.173137	1123.400000
2791.517761	1101.800000
2792.859033	1122.400000
2794.201643	1180.000000
2795.544027	1145.400000
2796.886186	1116.600000
2798.224996	1135.000000
2799.566706	1125.000000
2800.905067	1194.000000
2802.244766	1116.000000
2803.582680	1123.600000
2804.918809	1139.000000
2806.254714	1160.600000
2807.591957	1181.000000
2808.927416	1161.200000
2810.262652	1155.600000
2811.596105	1149.800000
2812.930895	1162.400000
2814.262345	1139.600000
2815.596690	1169.800000
2816.926137	1181.800000
2818.256920	1213.000000
2819.587483	1153.000000
2820.916266	1158.400000
2822.246385	1152.200000
2823.574726	1166.600000
2824.902846	1173.800000
2826.229188	1139.000000
2827.556867	1154.000000
2828.881212	1168.400000
2830.206894	1140.000000
2831.530800	1161.000000
2832.854486	1158.800000
2834.179509	1156.200000
2835.501201	1158.400000
2836.822675	1174.600000
2838.143930	1146.800000
2839.464966	1170.200000
2840.784229	1183.400000
2842.104828	1158.800000
2843.423656	1122.600000
2844.742265	1154.000000
2846.059103	1149.200000
2847.375724	1124.200000
2848.692128	1122.200000
2850.006762	1166.200000
2851.322732	1142.200000
2852.635381	1144.800000
2853.949365	1129.200000
2855.263133	1156.400000
2856.576684	1118.800000
2857.888469	1134.600000
2859.198487	1146.400000
2860.509840	1111.000000
2861.817878	1162.600000
2863.127250	1116.200000
2864.436408	1133.600000
2865.745350	1157.800000
2867.052528	1107.200000
2868.357944	1154.600000
2869.664693	1152.600000
2870.969681	1135.200000
2872.274454	1147.800000
2873.577467	1173.000000
2874.883360	1156.200000
2876.184399	1170.800000
2877.486772	1152.800000
2878.787385	1097.000000
2880.089332	1165.800000
2881.391065	1149.800000
2882.689495	1133.600000
2883.989258	1107.000000
2885.287264	1134.200000
2886.585058	1150.200000
2887.881096	1148.200000
2889.178467	1153.400000
2890.474082	1145.800000
2891.769486	1143.400000
2893.064679	1122.000000
2894.356575	1130.000000
2895.651347	1154.000000
2896.942822	1150.200000
2898.235630	1139.400000
2899.528228	1161.200000
2900.817532	1149.800000
2902.108168	1173.200000
2903.397053	1130.000000
2904.687270	1139.000000
2905.974196	1115.200000
2907.262454	1151.600000
2908.548963	1129.200000
2909.835263	1149.400000
2911.121356	1120.000000
2912.405700	1127.600000
2913.692915	1142.600000
2914.975304	1135.800000
2916.259025	1111.400000
2917.541000	1133.600000
2918.822767	1150.200000
2920.102789	1146.800000
2921.385682	1174.400000
2922.666829	1126.200000
2923.944694	1158.000000
2925.225428	1099.400000
2926.502881	1148.400000
2927.780128	1148.800000
2929.055633	1137.400000
2930.334006	1126.600000
2931.607565	1099.400000
2932.883991	1123.600000
2934.158676	1162.600000
2935.431620	1087.600000
2936.705896	1124.400000
2937.978432	1102.200000
2939.250763	1101.000000
2940.519822	1092.400000
2941.791746	1103.800000
2943.061932	1108.600000
2944.331914	1106.000000
2945.601693	1131.400000
2946.869736	1114.200000
2948.136042	1116.600000
2949.402147	1081.000000
2950.669581	1134.800000
2951.935280	1097.000000
2953.200778	1063.800000
2954.466073	1118.800000
2955.728103	1154.400000
2956.991463	1114.200000
2958.254622	1102.200000
2959.516049	1092.000000
2960.778805	1127.800000
2962.039829	1104.600000
2963.299123	1048.200000
2964.558217	1117.800000
2965.817110	1120.000000
2967.075803	1118.800000
2968.334296	1102.400000
2969.591060	1138.200000
2970.847624	1117.600000
2972.102460	1129.000000
2973.358626	1148.800000
2974.611537	1117.400000
2975.865777	1119.400000
2977.119817	1118.200000
2978.372132	1083.400000
2979.624249	1144.600000
2980.874641	1064.400000
2982.127888	1129.800000
2983.376358	1133.000000
2984.627683	1117.000000
2985.875758	1086.200000
2987.123636	1078.200000
2988.371318	1096.800000
2989.618802	1133.400000
2990.864565	1107.000000
2992.110132	1101.800000
2993.357026	1121.800000
2994.600676	1110.000000
2995.845654	1141.000000
2997.087388	1130.400000
2998.331974	1116.800000
2999.574841	1128.800000
3000.814467	1129.400000
3002.056943	1165.600000
3003.296179	1134.800000
3004.536743	1098.800000
3005.775590	1100.400000
3007.014243	1132.200000
3008.251180	1096.200000
3009.489445	1090.200000
3010.725994	1158.400000
3011.962350	1141.600000
3013.198512	1088.800000
3014.432960	1131.000000
3015.667216	1106.200000
3016.901278	1158.600000
3018.133627	1127.200000
3019.364266	1132.800000
3020.597750	1143.200000
3021.829522	1096.800000
3023.059584	1106.000000
3024.289453	1188.400000
3025.517613	1126.000000
3026.747100	1170.800000
3027.974877	1125.000000
3029.202463	1151.800000
3030.431375	1143.200000
3031.655546	1139.600000
3032.882559	1124.400000
3034.106348	1117.600000
3035.331464	1139.000000
3036.554873	1108.800000
3037.778092	1102.600000
3038.999606	1140.800000
3040.223961	1132.200000
3041.443581	1145.200000
3042.664527	1133.400000
3043.885284	1106.000000
3045.104337	1101.400000
3046.324715	1108.000000
3047.541877	1116.600000
3048.760365	1082.200000
3049.977150	1169.600000
3051.193748	1133.000000
3052.410157	1081.200000
3053.623353	1100.600000
3054.839388	1109.800000
3056.052210	1092.400000
3057.267869	1108.000000
3058.478805	1132.000000
3059.691066	1115.400000
3060.903140	1109.000000
3062.115028	1122.600000
3063.325219	1113.400000
3064.535223	1096.600000
3065.745041	1104.800000
3066.953163	1104.200000
3068.161100	1100.000000
3069.367341	1103.400000
3070.574907	1062.000000
3071.780778	1092.200000
3072.986465	1122.400000
3074.191966	1121.400000
3075.395774	1097.400000
3076.600906	1062.400000
3077.804345	1103.000000
3079.006093	1097.400000
3080.207656	1089.200000
3081.409036	1118.800000
3082.610232	1124.200000
3083.809738	1097.000000
3085.009061	1122.400000
3086.209707	1086.200000
3087.408663	1102.000000
3088.604425	1084.600000
3089.803016	1123.800000
3090.998413	1118.400000
3092.195133	1151.200000
3093.388661	1116.000000
3094.585017	1102.000000
3095.779686	1121.800000
3096.971165	1117.200000
3098.166976	1117.800000
3099.358092	1123.200000
3100.550532	1103.400000
3101.739784	1088.600000
3102.931861	1132.000000
3104.122255	1119.400000
3105.309463	1108.000000
3106.497993	1114.200000
3107.687846	1095.000000
3108.874515	1120.600000
3110.061003	1091.000000
3111.247313	1129.000000
3112.434944	1107.600000
3113.619393	1061.600000
3114.802163	1051.400000
3115.987755	1081.000000
3117.171668	1095.200000
3118.353902	1133.600000
3119.535957	1106.200000
3120.717834	1091.000000
3121.899533	1099.800000
3123.079555	1083.400000
3124.257900	1079.800000
3125.439065	1092.800000
3126.617055	1115.400000
3127.794868	1071.400000
3128.972504	1083.200000
3130.148466	1103.800000
3131.324250	1073.000000
3132.501356	1056.000000
3133.676787	1067.600000
3134.850545	1152.400000
3136.022630	1094.800000
3137.196037	1086.200000
3138.369267	1089.000000
3139.540826	1074.400000
3140.713705	1088.400000
3141.883417	1103.600000
3143.054450	1084.400000
3144.223813	1103.600000
3145.391505	1129.600000
3146.562013	1149.600000
3147.727863	1127.000000
3148.898021	1109.400000
3150.063523	1049.600000
3151.228850	1088.000000
3152.394004	1121.200000
3153.558985	1123.400000
3154.725285	1131.600000
3155.886933	1123.800000
3157.049900	1106.800000
3158.212695	1074.200000
3159.375317	1102.200000
3160.536273	1086.000000
3161.697058	1100.000000
3162.857670	1124.400000
3164.016618	1091.800000
3165.175395	1072.200000
3166.333999	1047.000000
3167.492432	1062.400000
3168.650694	1098.400000
3169.807293	1078.200000
3170.962231	1110.400000
3172.118488	1059.800000
3173.273084	1054.600000
3174.427510	1108.000000
3175.580276	1092.000000
3176.732871	1055.200000
3177.885297	1075.000000
3179.037553	1077.600000
3180.189638	1090.400000
3181.338577	1016.000000
3182.490324	1093.800000
3183.640412	1092.400000
3184.788844	1111.200000
3185.937106	1072.200000
3187.085200	1091.800000
3188.233125	1076.400000
3189.379394	1129.800000
3190.525495	1082.400000
3191.669942	1076.200000
3192.814221	1090.000000
3193.958332	1113.000000
3195.103760	1088.600000
3196.246050	1071.600000
3197.388173	1099.200000
3198.530128	1103.600000
3199.671916	1086.200000
3200.813537	1105.400000
3201.952023	1080.400000
3203.091826	1053.400000
3204.232946	1078.200000
3205.370933	1090.400000
3206.507270	1097.200000
3207.643441	1118.200000
3208.780929	1092.600000
3209.916769	1064.000000
3211.053926	1075.800000
3212.186470	1065.000000
3213.323296	1118.600000
3214.455510	1065.600000
3215.589041	1061.600000
3216.722408	1099.800000
3217.852647	1072.800000
3218.985684	1088.600000
3220.115595	1087.000000
3221.246822	1067.200000
3222.374925	1041.200000
3223.505824	1083.800000
3224.635079	1074.800000
3225.762691	1043.400000
3226.887180	1101.000000
3228.015945	1056.000000
3229.141588	1067.800000
3230.267069	1073.600000
3231.390907	1069.600000
3232.517541	1097.600000
3233.639577	1084.400000
3234.762929	1005.600000
3235.886119	1067.400000
3237.009146	1023.200000
3238.130535	1035.600000
3239.251761	1025.400000
3240.371350	1060.000000
3241.490777	1034.000000
3242.608566	1083.000000
3243.729147	1024.200000
3244.846615	1095.000000
3245.963922	1066.800000
3247.081069	1046.000000
3248.196579	1098.800000
3249.313405	1074.200000
3250.427121	1047.400000
3251.543626	1077.000000
3252.658497	1078.800000
3253.770258	1089.000000
3254.881861	1081.800000
3255.994779	1045.800000
3257.107537	1043.400000
3258.217189	1070.600000
3259.328156	1082.400000
3260.438964	1054.400000
3261.548140	1104.400000
3262.655685	1135.800000
3263.764545	1089.600000
3264.873247	1071.000000
3265.978846	1065.200000
3267.085759	1085.400000
3268.191043	1085.400000
3269.297641	1092.000000
3270.401139	1058.600000
3271.505952	1104.800000
3272.610606	1082.600000
3273.712163	1073.200000
3274.813563	1085.800000
3275.916277	1092.400000
3277.018835	1056.200000
3278.118296	1106.200000
3279.220541	1112.000000
3280.319690	1076.400000
3281.417215	1055.600000
3282.514584	1064.600000
3283.614735	1097.800000
3284.711794	1046.400000
3285.808697	1075.800000
3286.905445	1097.600000
3287.997634	1080.400000
3289.094073	1094.000000
3290.188889	1025.400000
3291.283551	1099.200000
3292.376591	1081.600000
3293.469476	1081.400000
3294.560741	1061.200000
3295.653319	1066.400000
3296.744277	1020.200000
3297.833615	1031.600000
3298.922800	1098.600000
3300.013298	1048.800000
3301.100711	1050.600000
3302.187971	1080.200000
3303.276544	1101.600000
3304.364964	1119.200000
3305.448838	1066.200000
3306.536953	1083.200000
3307.621986	1077.400000
3308.705404	1087.800000
3309.790134	1070.800000
3310.873248	1085.200000
3311.957675	1080.400000
3313.039023	1068.400000
3314.121683	1059.800000
3315.202729	1063.000000
3316.283624	1085.600000
3317.362905	1035.000000
3318.442036	1095.200000
3319.522479	1053.400000
3320.599847	1072.800000
3321.678527	1091.800000
3322.755595	1056.200000
3323.832514	1037.200000
3324.907821	1077.000000
3325.982979	1053.800000
3327.059448	1060.800000
3328.132847	1076.400000
3329.206096	1050.400000
3330.280657	1073.000000
3331.353609	1072.600000
3332.424952	1143.400000
3333.497606	1066.400000
3334.567194	1032.000000
3335.638092	1087.000000
3336.707383	1078.200000
3337.777985	1049.000000
3338.846980	1044.800000
3339.914369	1076.800000
3340.980153	1035.800000
3342.050163	1057.400000
3343.117110	1060.000000
3344.180995	1050.600000
3345.247647	1067.600000
3346.312696	1030.000000
3347.376141	1078.600000
3348.439440	1018.800000
3349.502592	1046.200000
3350.565598	1012.800000
3351.628458	1013.200000
3352.689716	1046.600000
3353.747917	1058.000000
3354.810338	1053.800000
3355.869704	1046.800000
3356.928924	1071.400000
3357.989453	1062.400000
3359.045474	1067.200000
3360.104258	1046.400000
3361.158535	1062.200000
3362.215576	1051.200000
3363.271018	1059.000000
3364.327770	1059.400000
3365.382923	1061.800000
3366.436479	1077.400000
3367.488439	1056.400000
3368.543160	1034.400000
3369.594832	1055.600000
3370.646361	1016.200000
3371.699198	1067.200000
3372.748988	1045.200000
3373.800087	1051.800000
3374.848140	1068.200000
3375.898952	1047.200000
3376.946720	1107.400000
3377.994344	1027.800000
3379.041827	1074.800000
3380.087717	1064.600000
3381.134915	1050.400000
3382.179071	1108.800000
3383.225985	1094.400000
3384.271307	1067.800000
3385.313588	1047.400000
3386.355728	1073.000000
3387.399177	1055.000000
3388.442484	1081.800000
3389.484201	1064.600000
3390.525778	1045.400000
3391.567213	1048.000000
3392.607060	1062.200000
3393.645318	1098.000000
3394.684884	1077.200000
3395.724310	1073.800000
3396.762148	1075.200000
3397.798399	1067.200000
3398.834511	1056.800000
3399.871930	1085.400000
3400.906316	1049.600000
3401.942009	1060.600000
3402.977563	1094.400000
3404.010086	1068.000000
3405.045362	1052.000000
3406.077607	1029.200000
3407.109714	1057.000000
3408.140237	1057.600000
3409.172067	1069.800000
3410.203759	1071.400000
3411.232423	1129.600000
3412.260950	1070.200000
3413.290783	1072.000000
3414.320479	1063.200000
3415.347149	1078.800000
3416.375125	1071.600000
3417.400078	1056.400000
3418.427780	1037.400000
3419.452459	1063.200000
3420.478444	1074.600000
3421.502849	1030.600000
3422.527118	1069.200000
3423.549808	1067.200000
3424.572362	1098.400000
3425.596222	1086.600000
3426.617062	1099.400000
3427.637766	1060.200000
3428.659777	1089.000000
3429.678769	1047.400000
3430.697625	1057.000000
3431.717788	1084.600000
3432.734934	1095.000000
