-116.521679	24.400000
-113.852079	25.600000
-111.185414	-10.600000
-108.519501	21.400000
-105.856521	1.800000
-103.192110	30.200000
-100.530630	51.800000
-97.867721	23.800000
-95.209918	1.400000
-92.550686	4.000000
-89.892202	18.200000
-87.236643	21.800000
-84.579654	1.800000
-81.927764	23.000000
-79.274444	-9.200000
-76.624043	27.600000
-73.972214	3.800000
-71.325474	23.600000
-68.677306	6.400000
-66.029880	6.800000
-63.385369	-9.200000
-60.739428	12.000000
-58.098569	12.400000
-55.456281	35.000000
-52.816902	6.800000
-50.176093	4.800000
-47.536025	20.000000
-44.901030	14.200000
-42.264605	5.000000
-39.631083	18.200000
-36.996133	5.400000
-34.366248	18.000000
-31.732771	11.400000
-29.104356	25.000000
-26.476675	13.600000
-23.847565	14.600000
-21.223512	-9.600000
-18.595870	34.000000
-15.973281	29.400000
-13.351424	28.600000
-10.730297	15.400000
-8.109901	9.200000
-5.492392	19.000000
-2.873455	90.600000
-0.257403	142.600000
2.357920	186.400000
4.972515	113.400000
7.584229	43.000000
10.197371	12.000000
12.805479	12.800000
15.417169	9.600000
18.023828	28.000000
20.631915	-19.400000
23.239278	20.400000
25.841616	29.400000
28.447532	29.400000
31.048426	23.800000
33.650748	3.400000
36.248053	9.600000
38.848933	26.200000
41.444798	9.400000
44.042092	25.600000
46.638666	33.200000
49.230231	3.600000
51.823224	8.600000
54.413356	-6.200000
57.004915	3.200000
59.593616	2.800000
62.183743	-3.800000
64.768871	10.200000
67.355427	16.200000
69.941269	18.800000
72.524257	11.200000
75.108671	31.000000
77.685957	30.000000
80.266809	23.400000
82.844812	-3.600000
85.422105	33.000000
88.000824	10.400000
90.574561	9.000000
93.149726	-9.600000
95.722047	1.800000
98.293660	11.800000
100.862433	10.600000
103.432633	6.400000
105.999994	20.400000
108.568782	-1.600000
111.134733	35.600000
113.697849	24.200000
116.264521	33.600000
118.821972	41.400000
121.385108	60.000000
123.943284	66.400000
126.505015	100.000000
129.061789	147.200000
131.619989	261.400000
134.173237	349.000000
136.725787	530.800000
139.281887	727.200000
141.833039	941.200000
144.383494	1096.000000
146.933251	1268.800000
149.480189	1340.800000
152.026432	1427.200000
154.574100	1457.000000
157.121072	1469.200000
159.663109	1512.000000
162.204452	1496.000000
164.745102	1526.000000
167.287178	1459.400000
169.826442	1494.000000
172.362898	1523.000000
174.898662	1493.600000
177.435852	1510.800000
179.972351	1544.200000
182.506044	1542.000000
185.036933	1530.600000
187.567134	1535.200000
190.098761	1570.400000
192.627586	1510.600000
195.153612	1540.000000
197.678952	1546.800000
200.205717	1539.000000
202.729686	1589.800000
205.252970	1531.800000
207.775569	1586.200000
210.295375	1590.000000
212.814497	1553.400000
215.332938	1547.400000
217.852802	1576.000000
220.365665	1547.800000
222.882059	1621.600000
225.397771	1578.200000
227.908593	1548.400000
230.420840	1600.400000
232.930305	1561.800000
235.439090	1607.800000
237.947198	1615.000000
240.456730	1600.000000
242.961381	1565.200000
245.465356	1581.800000
247.970755	1598.200000
250.471279	1593.800000
252.975326	1611.400000
255.472403	1611.400000
257.973003	1642.400000
260.470831	1600.800000
262.967986	1672.600000
265.464468	1646.800000
267.956087	1594.200000
270.451226	1678.200000
272.943598	1637.400000
275.435300	1677.400000
277.924239	1618.400000
280.414601	1696.400000
282.902202	1634.800000
285.387043	1626.600000
287.875399	1657.000000
290.356815	1619.200000
292.841745	1647.200000
295.321830	1629.600000
297.805427	1629.200000
300.284181	1619.800000
302.764358	1716.400000
305.241784	1679.600000
307.718546	1677.400000
310.194644	1664.600000
312.667995	1639.200000
315.140683	1658.800000
317.612710	1686.200000
320.084076	1674.600000
322.552697	1700.800000
325.020660	1672.200000
327.490044	1695.200000
329.954606	1726.200000
332.422672	1727.200000
334.885918	1697.600000
337.348506	1714.400000
339.810438	1705.600000
342.271713	1678.800000
344.730254	1693.800000
347.190217	1687.600000
349.647447	1678.000000
352.104023	1706.600000
354.559945	1732.400000
357.013137	1648.600000
359.467752	1665.400000
361.917565	1754.600000
364.370874	1709.200000
366.819384	1733.400000
369.267244	1682.000000
371.716526	1727.000000
374.161014	1686.800000
376.606924	1689.800000
379.052184	1685.400000
381.494726	1721.200000
383.936620	1679.600000
386.377867	1669.200000
388.816398	1670.600000
391.256350	1727.600000
393.693590	1655.800000
396.128117	1696.200000
398.566132	1698.400000
400.999370	1698.200000
403.434029	1743.400000
405.863916	1717.000000
408.297288	1688.200000
410.725890	1695.600000
413.153850	1650.600000
415.583232	1693.600000
418.007848	1714.800000
420.433886	1738.200000
422.859283	1695.600000
425.284040	1758.400000
427.704039	1713.600000
430.125458	1737.600000
432.544182	1732.200000
434.964326	1772.600000
437.381775	1787.200000
439.800644	1764.800000
442.216820	1789.200000
444.628248	1763.400000
447.043153	1794.000000
449.455369	1758.200000
451.866950	1823.000000
454.277897	1787.800000
456.686158	1753.400000
459.093786	1799.200000
461.500782	1803.800000
463.907147	1797.200000
466.310829	1759.000000
468.713881	1818.000000
471.116303	1789.400000
473.518095	1815.800000
475.917209	1825.400000
478.317743	1841.400000
480.717648	1779.600000
483.112831	1779.000000
485.511480	1809.600000
487.905408	1794.800000
490.298711	1793.400000
492.691389	1795.200000
495.083441	1799.600000
497.476911	1800.800000
499.865669	1803.800000
502.251761	1800.400000
504.639273	1773.800000
507.026162	1767.600000
509.410387	1803.400000
511.796030	1805.200000
514.179012	1795.000000
516.559333	1824.800000
518.941073	1830.000000
521.320154	1794.000000
523.700654	1779.200000
526.078496	1823.400000
528.453682	1871.600000
530.828252	1842.600000
533.204239	1858.800000
535.577574	1846.600000
537.952326	1834.400000
540.322393	1865.800000
542.691844	1889.000000
545.062713	1831.000000
547.428901	1841.800000
549.796508	1855.200000
552.161470	1866.000000
554.525818	1855.800000
556.889553	1858.800000
559.254706	1873.200000
561.615187	1891.600000
563.977086	1882.400000
566.336344	1834.400000
568.692964	1884.800000
571.053030	1850.600000
573.406404	1850.400000
575.763223	1788.200000
578.117407	1844.000000
580.470982	1850.200000
582.823950	1865.200000
585.174285	1851.600000
587.526038	1842.400000
589.871114	1854.000000
592.221653	1871.200000
594.565520	1856.200000
596.914848	1843.200000
599.259527	1832.200000
601.601582	1900.000000
603.945054	1828.800000
606.285903	1902.200000
608.626149	1851.000000
610.963776	1879.800000
613.304837	1863.200000
615.641260	1842.200000
617.979100	1801.000000
620.314323	1897.000000
622.646930	1869.600000
624.980953	1843.000000
627.312362	1822.000000
629.643173	1883.200000
631.973387	1902.000000
634.303002	1875.200000
636.627994	1859.400000
638.958428	1903.600000
641.284241	1878.600000
643.607446	1928.600000
645.932068	1876.000000
648.254084	1874.600000
650.575506	1881.600000
652.894326	1901.600000
655.214561	1915.800000
657.534203	1879.400000
659.851244	1918.400000
662.167693	1921.600000
664.481544	1887.200000
666.796811	1922.200000
669.109481	1929.000000
671.423566	1932.800000
673.733051	1950.400000
676.043952	1903.000000
678.352260	1894.800000
680.659980	1933.400000
682.969114	1906.800000
685.273656	1921.800000
687.577612	1888.400000
689.880982	1911.000000
692.185766	1922.800000
694.485963	1935.800000
696.787576	1919.800000
699.088603	1913.800000
701.385049	1907.200000
703.682910	1923.000000
705.980187	1897.000000
708.276881	1904.400000
710.568999	1903.000000
712.864528	1901.200000
715.155483	1859.600000
717.447853	1912.400000
719.737648	1876.400000
722.026862	1910.600000
724.315497	1837.600000
726.601559	1943.800000
728.889036	1888.600000
731.173941	1907.600000
733.458269	1930.000000
735.740028	1968.000000
738.023201	1922.000000
740.305797	1944.000000
742.583837	1895.600000
744.863292	1980.800000
747.142170	1941.400000
749.420474	1922.400000
751.694228	1916.000000
753.969395	1963.000000
756.243989	1942.600000
758.516024	1953.400000
760.789472	1967.000000
763.060362	1951.200000
765.328696	1944.600000
767.598443	1958.000000
769.865636	1979.800000
772.132258	1972.400000
774.398310	1978.600000
776.661811	1986.400000
778.926725	1936.600000
781.191069	1972.200000
783.450884	1912.000000
785.712111	1966.400000
787.972771	1989.000000
790.230885	1972.600000
792.486454	1950.600000
794.745414	1982.200000
796.997874	1954.400000
799.255702	1972.600000
801.509011	1950.600000
803.759780	1964.200000
806.011961	1944.400000
808.261603	2027.200000
810.512658	1950.600000
812.759201	1934.000000
815.007156	1928.200000
817.252577	1994.800000
819.499409	1966.000000
821.745680	1956.400000
823.987446	1963.200000
826.232596	1931.600000
828.471273	1989.200000
830.713332	1977.400000
832.950893	1965.800000
835.189866	1985.200000
837.426312	1900.600000
839.664169	2006.400000
841.899501	1960.800000
844.132310	1949.800000
846.366530	1952.800000
848.598227	1954.200000
850.829370	1959.000000
853.059958	1974.400000
855.289992	1982.800000
857.519472	2016.000000
859.744470	1991.400000
861.972843	2009.400000
864.196736	1979.200000
866.422041	2020.800000
868.642870	1999.000000
870.867071	2046.400000
873.086799	2025.400000
875.307937	1976.600000
877.528525	2014.200000
879.746604	2002.800000
881.966092	2022.800000
884.181114	2019.800000
886.395588	2020.600000
888.609515	2006.000000
890.822895	1981.800000
893.035727	1964.200000
895.248013	1987.000000
897.457796	2038.800000
899.667034	2009.800000
901.875727	2022.200000
904.081920	2034.400000
906.289524	2028.000000
908.494629	1983.200000
910.699191	2032.800000
912.901258	2037.800000
915.104734	2028.400000
917.305716	2035.000000
919.506156	2019.000000
921.708005	1997.200000
923.903463	2020.600000
926.102280	1986.000000
928.296658	2040.000000
930.494394	1951.600000
932.687694	1975.800000
934.882403	2012.400000
937.074626	2040.200000
939.266310	1976.600000
941.457457	2059.800000
943.646121	2019.200000
945.834249	2010.800000
948.019896	2007.400000
950.208895	2048.600000
952.393471	2037.800000
954.577512	2044.000000
956.764903	2068.000000
958.943990	2086.200000
961.126428	2079.200000
963.308332	2065.000000
965.487761	2023.600000
967.664718	2055.000000
969.843083	2098.200000
972.022855	2075.000000
974.196278	2021.200000
976.373047	2083.400000
978.545409	2068.400000
980.719179	2103.600000
982.888545	2063.800000
985.061255	2095.200000
987.231500	2053.800000
989.401215	2082.800000
991.570403	2066.400000
993.735193	2101.600000
995.903324	2089.800000
998.067060	2068.400000
1000.232204	2116.800000
1002.394888	2156.000000
1004.557047	2136.000000
1006.716749	2127.800000
1008.875926	2087.400000
1011.036510	2103.600000
1013.194639	2080.800000
1015.352245	2089.600000
1017.509327	2121.000000
1019.665885	2084.400000
1021.818064	2120.000000
1023.971650	2079.800000
1026.124714	2065.200000
1028.275329	2069.800000
1030.427351	2104.600000
1032.574999	2083.400000
1034.725979	2063.200000
1036.872588	2050.000000
1039.018678	2066.200000
1041.164250	2112.000000
1043.311227	2049.200000
1045.451915	2116.200000
1047.595933	2073.400000
1049.737510	2138.400000
1051.878571	2079.000000
1054.021036	2081.200000
1056.157221	2113.200000
1058.296733	2138.200000
1060.431890	2068.800000
1062.570371	2107.600000
1064.704498	2110.800000
1066.838112	2115.400000
1068.973130	2114.200000
1071.103800	2143.000000
1073.235874	2133.000000
1075.365519	2146.800000
1077.494652	2088.200000
1079.623273	2065.200000
1081.751383	2095.200000
1083.877067	2109.200000
1086.002241	2109.400000
1088.128819	2124.600000
1090.251059	2097.400000
1092.374704	2109.800000
1094.494014	2100.800000
1096.618553	2092.600000
1098.736848	2052.200000
1100.856547	2113.600000
1102.973827	2125.800000
1105.090600	2101.000000
1107.206868	2119.800000
1109.320719	2167.400000
1111.435975	2096.400000
1113.546907	2126.000000
1115.661152	2108.000000
1117.771076	2139.600000
1119.882404	2089.800000
1121.993227	2131.200000
1124.099734	2129.000000
1126.209550	2179.200000
1128.315053	2107.000000
1130.421958	2146.800000
1132.522648	2145.600000
1134.628550	2110.000000
1136.730143	2125.600000
1138.833139	2129.000000
1140.935634	2090.000000
1143.031922	2167.000000
1145.133417	2139.800000
1147.230610	2103.000000
1149.327305	2130.200000
1151.423501	2127.800000
1153.519199	2106.800000
1155.614400	2109.800000
1157.707204	2092.000000
1159.801410	2082.000000
1161.889425	2093.200000
1163.982639	2138.200000
1166.069664	2139.200000
1168.159988	2153.800000
1170.246024	2088.800000
1172.335359	2127.200000
1174.418512	2133.600000
1176.503067	2106.400000
1178.589024	2101.000000
1180.670699	2149.600000
1182.753775	2106.200000
1184.834466	2120.000000
1186.914666	2104.200000
1188.994374	2114.000000
1191.073591	2143.800000
1193.150426	2130.000000
1195.224879	2164.200000
1197.302625	2097.000000
1199.376101	2132.000000
1201.450977	2101.800000
1203.521586	2105.600000
1205.593596	2162.600000
1207.663231	2232.400000
1209.734265	2163.600000
1211.804813	2170.200000
1213.871099	2156.000000
1215.938786	2139.600000
1218.004101	2138.200000
1220.070816	2123.200000
1222.133275	2106.200000
1224.199019	2171.200000
1226.260509	2169.000000
1228.323400	2152.400000
1230.383923	2160.000000
1232.443962	2161.600000
1234.503518	2137.600000
1236.560710	2159.200000
1238.617420	2165.600000
1240.671766	2186.000000
1242.729394	2209.800000
1244.784659	2163.800000
1246.835683	2219.400000
1248.888107	2184.800000
1250.940051	2186.000000
1252.989637	2168.000000
1255.038744	2189.800000
1257.087372	2144.600000
1259.135522	2200.600000
1261.183194	2213.800000
1263.226635	2186.600000
1265.273352	2181.000000
1267.317715	2208.000000
1269.361602	2194.000000
1271.403137	2240.400000
1273.442323	2218.800000
1275.484782	2251.800000
1277.523018	2185.600000
1279.562653	2245.000000
1281.601813	2225.400000
1283.636754	2198.600000
1285.673094	2292.600000
1287.707090	2249.200000
1289.742483	2271.600000
1291.773664	2260.000000
1293.806242	2258.400000
1295.838349	2287.600000
1297.868115	2309.200000
1299.899278	2226.000000
1301.926235	2267.200000
1303.954589	2308.000000
1305.978738	2293.400000
1308.006153	2361.400000
1310.029365	2358.600000
1312.053975	2467.200000
1314.076251	2498.800000
1316.099924	2491.200000
1318.121263	2526.600000
1320.142136	2727.200000
1322.162541	2939.400000
1324.178753	3440.400000
1326.196362	4471.800000
1328.211643	7318.400000
1330.230183	14327.800000
1332.244534	25806.800000
1334.256558	28922.000000
1336.271841	19862.000000
1338.282938	8985.800000
1340.295432	4652.600000
1342.303743	3456.600000
1344.315309	2876.600000
1346.320837	2626.600000
1348.329620	2478.200000
1350.334225	2438.400000
1352.342084	2354.800000
1354.349481	2350.000000
1356.350847	2314.000000
1358.353609	2303.200000
1360.355912	2274.400000
1362.357755	2271.600000
1364.359138	2270.600000
1366.358208	2267.200000
1368.356819	2197.200000
1370.354971	2201.200000
1372.352666	2240.800000
1374.346198	2212.800000
1376.341125	2176.400000
1378.335596	2193.000000
1380.329610	2184.400000
1382.321317	2149.600000
1384.312568	2178.400000
1386.301514	2180.000000
1388.291856	2188.200000
1390.281742	2157.800000
1392.269324	2222.200000
1394.256453	2162.000000
1396.241280	2170.800000
1398.227502	2201.200000
1400.211423	2111.800000
1402.194892	2185.000000
1404.177909	2205.000000
1406.158628	2183.800000
1408.140741	2162.800000
1410.120558	2203.400000
1412.099923	2195.000000
1414.075150	2191.200000
1416.053615	2215.000000
1418.029787	2187.400000
1420.005509	2152.600000
1421.980783	2158.800000
1423.953765	2207.400000
1425.926299	2211.800000
1427.898385	2169.600000
1429.870024	2200.200000
1431.837534	2170.800000
1433.810118	2175.200000
1435.774896	2194.400000
1437.744747	2217.600000
1439.710474	2227.600000
1441.677593	2186.800000
1443.642429	2225.200000
1445.603145	2170.800000
1447.568929	2177.200000
1449.528758	2186.200000
1451.489981	2196.000000
1453.452595	2202.200000
1455.411095	2220.600000
1457.369153	2205.400000
1459.326769	2230.600000
1461.283942	2145.800000
1463.238840	2250.400000
1465.195131	2241.600000
1467.149147	2172.200000
1469.102722	2205.000000
1471.054025	2161.400000
1473.006721	2199.800000
1474.957144	2160.800000
1476.907129	2142.200000
1478.856675	2217.200000
1480.803952	2189.800000
1482.748961	2196.200000
1484.695363	2171.800000
1486.641327	2222.600000
1488.586854	2249.800000
1490.530115	2173.000000
1492.472941	2209.600000
1494.413502	2217.400000
1496.355456	2169.200000
1498.295147	2201.000000
1500.234403	2175.600000
1502.173225	2191.800000
1504.109787	2193.000000
1506.047740	2196.000000
1507.983434	2198.000000
1509.918695	2172.200000
1511.851699	2200.800000
1513.784272	2176.000000
1515.716412	2198.200000
1517.648120	2183.200000
1519.577574	2199.000000
1521.508419	2182.800000
1523.438832	2163.600000
1525.365173	2200.600000
1527.292904	2169.600000
1529.218386	2195.800000
1531.143438	2154.600000
1533.068061	2204.200000
1534.992254	2186.800000
1536.914201	2235.000000
1538.837538	2166.800000
1540.758628	2221.600000
1542.677474	2228.800000
1544.597710	2244.800000
1546.515703	2134.200000
1548.433269	2229.000000
1550.348593	2211.600000
1552.265307	2214.200000
1554.177966	2152.200000
1556.093829	2183.400000
1558.007452	2170.600000
1559.918837	2197.400000
1561.831612	2189.200000
1563.740337	2207.200000
1565.650451	2186.600000
1567.560142	2197.800000
1569.469410	2179.400000
1571.376444	2158.000000
1573.281245	2197.000000
1575.187435	2183.200000
1577.091393	2173.200000
1578.994930	2205.800000
1580.898047	2152.400000
1582.798934	2209.800000
1584.701210	2184.800000
1586.601258	2207.000000
1588.502693	2141.600000
1590.400095	2162.400000
1592.297078	2155.000000
1594.193643	2208.200000
1596.091595	2141.800000
1597.983713	2149.600000
1599.879025	2185.400000
1601.773919	2153.800000
1603.666591	2105.600000
1605.558846	2138.400000
1607.448882	2152.200000
1609.338502	2191.600000
1611.227707	2124.400000
1613.116497	2156.400000
1615.003069	2128.600000
1616.891029	2140.800000
1618.774972	2109.000000
1620.660302	2164.200000
1622.545219	2169.800000
1624.427922	2164.800000
1626.312012	2148.000000
1628.192090	2161.600000
1630.073556	2156.800000
1631.952811	2174.200000
1633.833452	2153.800000
1635.708289	2167.200000
1637.588107	2162.800000
1639.463921	2175.200000
1641.339324	2155.400000
1643.216113	2212.200000
1645.087106	2148.600000
1646.961280	2184.000000
1648.831455	2145.400000
1650.704811	2155.000000
1652.575964	2180.600000
1654.444916	2177.200000
1656.315252	2163.200000
1658.181596	2142.600000
1660.049325	2167.600000
1661.914855	2159.800000
1663.781771	2152.400000
1665.644698	2140.800000
1667.509010	2133.200000
1669.371126	2195.200000
1671.232837	2136.200000
1673.095934	2140.400000
1674.956835	2140.400000
1676.815544	2143.800000
1678.673849	2131.600000
1680.533538	2160.800000
1682.387461	2095.600000
1684.244557	2163.200000
1686.101249	2111.600000
1687.953966	2104.400000
1689.809854	2106.200000
1691.661768	2119.000000
1693.513281	2093.200000
1695.364393	2059.200000
1697.215105	2133.200000
1699.065415	2133.000000
1700.913542	2086.600000
1702.763053	2121.600000
1704.606814	2099.200000
1706.455526	2091.400000
1708.298491	2145.600000
1710.144623	2073.400000
1711.986792	2132.000000
1713.832127	2129.000000
1715.671721	2083.400000
1717.512699	2096.600000
1719.355060	2123.800000
1721.193465	2079.800000
1723.033253	2106.000000
1724.870865	2085.000000
1726.708083	2109.000000
1728.543127	2049.800000
1730.379554	2154.800000
1732.213809	2068.000000
1734.047669	2044.600000
1735.881135	2094.400000
1737.710656	2107.200000
1739.543335	2138.400000
1741.372070	2101.600000
1743.203962	2080.600000
1745.031912	2061.200000
1746.859471	2075.400000
1748.686637	2087.400000
1750.513412	2124.000000
1752.339795	2054.400000
1754.162242	2077.200000
1755.987844	2080.200000
1757.809511	2084.000000
1759.632560	2072.200000
1761.453447	2055.400000
1763.273946	2051.600000
1765.095825	2103.800000
1766.912006	2037.400000
1768.731338	2068.800000
1770.546742	2065.600000
1772.365298	2101.200000
1774.179928	2046.200000
1775.994171	2051.400000
1777.808028	2077.800000
1779.621498	2081.600000
1781.432815	2003.000000
1783.245512	2104.000000
1785.057824	2088.200000
1786.866217	2065.200000
1788.675992	2031.000000
1790.481852	2054.600000
1792.290857	2014.400000
1794.095949	2102.000000
1795.902422	2026.800000
1797.708511	2070.600000
1799.510689	2047.600000
1801.316012	2075.000000
1803.117426	2036.600000
1804.920220	2047.400000
1806.719108	2057.800000
1808.519377	2069.800000
1810.319264	2057.600000
1812.117009	2044.400000
1813.914374	2021.200000
1815.711359	2056.800000
1817.507963	2035.600000
1819.302428	2034.000000
1821.098272	2013.800000
1822.888461	2076.400000
1824.683547	1990.000000
1826.472981	2026.800000
1828.265551	2025.600000
1830.055986	2002.200000
1831.844287	2049.400000
1833.635723	2036.800000
1835.421513	2021.600000
1837.208683	2044.400000
1838.993721	2023.800000
1840.781893	2063.600000
1842.566179	1982.600000
1844.348335	2020.000000
1846.131871	1992.600000
1847.913278	2048.600000
1849.696064	1983.600000
1851.474969	2063.600000
1853.255253	1989.200000
1855.033412	2063.000000
1856.812949	2011.400000
1858.590360	2025.000000
1860.365649	1999.200000
1862.142315	2017.800000
1863.916859	1962.600000
1865.692781	2043.200000
1867.463082	2011.000000
1869.236511	2025.200000
1871.007820	2029.200000
1872.778758	2078.200000
1874.551074	2013.600000
1876.317776	2054.800000
1878.087603	2020.800000
1879.853567	2034.600000
1881.622655	2021.200000
1883.387881	2022.000000
1885.152739	2020.000000
1886.918974	2034.600000
1888.681350	2033.000000
1890.443358	2032.400000
1892.205000	2015.200000
1893.966275	2063.600000
1895.727182	1967.600000
1897.487723	2012.400000
1899.246154	2001.600000
1901.004219	2010.600000
1902.760177	2048.600000
1904.517511	2026.200000
1906.274480	2024.600000
1908.029342	2064.400000
1909.782100	1990.600000
1911.534493	2043.000000
1913.288263	1988.600000
1915.039929	2025.000000
1916.789493	2025.600000
1918.540432	2002.000000
1920.291009	2035.000000
1922.037746	2063.400000
1923.785860	1995.200000
1925.531874	2078.800000
1927.279263	2060.400000
1929.024555	2047.400000
1930.767749	2034.800000
1932.512318	2050.400000
1934.254791	1982.200000
1935.996905	2036.200000
1937.738658	2015.800000
1939.480051	2057.200000
1941.219351	2050.800000
1942.958292	2057.600000
1944.696874	2097.800000
1946.433365	2070.800000
1948.169498	2058.500000
1949.907005	2046.200000
1951.640690	2058.800000
1953.375750	2026.200000
1955.108721	2021.200000
1956.841336	2042.000000
1958.573595	2080.200000
1960.305497	2027.200000
1962.035313	2064.600000
1963.763044	2089.200000
1965.492150	2042.000000
1967.220900	2083.600000
1968.947568	2083.000000
1970.673881	2117.400000
1972.401567	2072.200000
1974.123717	2098.400000
1975.848968	2100.800000
1977.570412	2131.200000
1979.294957	2104.000000
1981.017421	2104.000000
1982.736083	2106.800000
1984.457843	2142.600000
1986.175801	2080.400000
1987.895132	2107.800000
1989.610664	2139.000000
1991.331016	2108.200000
1993.047570	2110.800000
1994.760327	2121.400000
1996.476180	2139.000000
1998.189961	2157.400000
1999.903392	2138.000000
2001.614752	2121.600000
2003.327484	2164.200000
2005.036426	2124.000000
2006.748460	2097.200000
2008.454985	2161.600000
2010.164603	2134.400000
2011.872154	2158.400000
2013.579356	2144.800000
2015.284493	2196.400000
2016.989284	2115.800000
2018.695446	2168.200000
2020.397826	2147.400000
2022.101577	2202.000000
2023.803266	2179.800000
2025.504609	2190.400000
2027.205608	2183.000000
2028.904545	2171.600000
2030.604854	2157.600000
2032.301387	2154.200000
2033.999292	2183.800000
2035.695139	2208.400000
2037.394071	2155.200000
2039.087517	2137.200000
2040.782334	2177.800000
2042.476809	2149.800000
2044.167515	2163.800000
2045.861305	2178.800000
2047.551328	2159.000000
2049.242722	2167.800000
2050.932063	2175.800000
2052.622774	2191.800000
2054.309722	2125.200000
2055.996331	2144.800000
2057.684309	2121.200000
2059.368528	2163.200000
2061.054118	2167.800000
2062.739368	2150.400000
2064.422569	2104.800000
2066.107141	2175.200000
2067.786249	2115.000000
2069.470144	2141.400000
2071.148577	2111.200000
2072.830088	2144.600000
2074.507847	2143.200000
2076.185270	2108.400000
2077.864062	2104.800000
2079.540812	2132.800000
2081.215519	2104.800000
2082.891597	2066.400000
2084.565633	2116.200000
2086.239335	2135.800000
2087.912701	2095.600000
2089.584028	2124.200000
2091.255021	2126.400000
2092.925680	2141.600000
2094.596005	2093.600000
2096.265996	2066.200000
2097.933951	2166.800000
2099.601573	2128.200000
2101.267160	2169.800000
2102.934116	2142.000000
2104.599039	2114.400000
2106.263630	2181.600000
2107.926189	2128.600000
2109.590116	2166.600000
2111.252012	2098.800000
2112.913578	2206.200000
2114.574812	2157.600000
2116.234018	2155.800000
2117.892893	2151.400000
2119.551439	2195.800000
2121.209654	2122.400000
2122.864147	2140.400000
2124.521704	2153.400000
2126.178931	2165.000000
2127.832438	2193.200000
2129.487312	2146.200000
2131.138467	2142.000000
2132.792685	2172.400000
2134.443185	2163.800000
2136.095053	2229.200000
2137.741512	2159.800000
2139.392726	2183.000000
2141.040226	2173.600000
2142.689093	2220.400000
2144.335941	2183.600000
2145.982464	2184.800000
2147.628661	2206.200000
2149.271150	2187.800000
2150.916697	2142.800000
2152.558537	2156.800000
2154.203434	2131.800000
2155.844625	2131.200000
2157.485494	2193.600000
2159.126038	2161.600000
2160.764570	2103.000000
2162.404468	2154.400000
2164.040666	2145.800000
2165.678230	2132.200000
2167.315472	2092.400000
2168.950704	2161.800000
2170.585614	2151.400000
2172.220203	2126.200000
2173.854471	2132.000000
2175.485045	2145.400000
2177.118671	2138.600000
2178.748605	2155.600000
2180.379904	2157.200000
2182.009198	2147.400000
2183.638173	2146.800000
2185.266828	2170.000000
2186.895164	2134.200000
2188.521498	2130.000000
2190.147513	2155.400000
2191.771526	2153.800000
2193.396905	2133.400000
2195.020283	2092.400000
2196.645026	2167.600000
2198.266088	2131.400000
2199.886833	2118.400000
2201.508942	2098.200000
2203.129054	2137.400000
2204.747170	2138.200000
2206.364970	2104.600000
2207.982455	2077.200000
2209.599624	2116.400000
2211.216478	2146.600000
2212.833016	2125.400000
2214.447562	2179.800000
2216.060115	2135.600000
2217.674032	2166.200000
2219.285958	2137.400000
2220.899247	2135.400000
2222.510546	2127.800000
2224.119855	2152.600000
2225.730528	2140.000000
2227.339212	2141.800000
2228.947583	2080.800000
2230.553968	2169.200000
2232.161715	2085.200000
2233.767477	2170.200000
2235.372927	2107.000000
2236.976392	2186.000000
2238.581220	2113.000000
2240.184064	2162.000000
2241.784925	2125.000000
2243.387149	2136.400000
2244.987391	2206.400000
2246.588995	2156.600000
2248.186946	2132.000000
2249.786260	2112.000000
2251.383594	2118.000000
2252.980620	2109.800000
2254.579008	2153.800000
2256.173747	2171.200000
2257.766509	2200.600000
2259.360634	2182.600000
2260.956120	2120.000000
2262.547961	2149.800000
2264.139496	2150.400000
2265.732393	2145.800000
2267.319980	2158.800000
2268.912263	2164.400000
2270.499240	2139.600000
2272.089244	2164.600000
2273.673944	2170.600000
2275.263338	2183.200000
2276.847430	2125.200000
2278.432882	2112.400000
2280.016366	2157.000000
2281.602875	2129.000000
2283.185751	2103.400000
2284.768324	2110.600000
2286.350593	2146.000000
2287.929232	2127.600000
2289.510896	2129.200000
2291.088931	2134.600000
2292.669989	2107.400000
2294.247420	2102.000000
2295.822888	2096.600000
2297.401378	2132.200000
2298.976244	2117.200000
2300.550809	2120.000000
2302.125073	2088.000000
2303.699038	2135.800000
2305.272701	2095.600000
2306.846065	2125.200000
2308.415810	2105.200000
2309.985256	2191.400000
2311.557720	2097.600000
2313.124910	2118.000000
2314.695118	2153.200000
2316.261711	2156.800000
2317.829664	2170.400000
2319.395661	2096.600000
2320.961361	2141.200000
2322.526763	2164.400000
2324.090212	2125.600000
2325.655020	2135.200000
2327.216220	2138.400000
2328.780434	2154.800000
2330.339386	2099.000000
2331.901352	2183.000000
2333.461368	2209.600000
2335.021089	2141.600000
2336.578860	2171.200000
2338.136336	2165.600000
2339.693518	2190.200000
2341.248752	2179.800000
2342.803693	2172.800000
2344.358339	2166.000000
2345.912692	2158.200000
2347.466751	2165.000000
2349.020517	2168.800000
2350.572338	2163.400000
2352.122217	2132.200000
2353.675103	2145.600000
2355.222746	2119.800000
2356.773398	2141.800000
2358.320458	2144.000000
2359.868876	2146.600000
2361.417003	2163.000000
2362.961541	2155.400000
2364.507437	2134.400000
2366.051395	2147.200000
2367.596709	2152.600000
2369.138440	2193.600000
2370.681527	2184.400000
2372.222678	2169.400000
2373.763540	2137.200000
2375.304113	2151.200000
2376.844397	2145.400000
2378.384392	2123.600000
2379.920809	2124.600000
2381.460227	2202.800000
2382.996067	2138.200000
2384.533265	2141.400000
2386.066887	2173.800000
2387.603509	2173.400000
2389.138201	2160.600000
2390.670963	2143.800000
2392.203438	2105.000000
2393.733985	2133.800000
2395.267530	2164.600000
2396.795864	2138.800000
2398.325554	2166.400000
2399.854959	2158.400000
2401.384079	2092.200000
2402.912913	2129.000000
2404.436543	2151.000000
2405.964808	2136.600000
2407.487871	2206.200000
2409.015567	2176.200000
2410.536424	2173.400000
2412.061913	2162.200000
2413.583843	2199.600000
2415.107127	2118.400000
2416.628491	2208.400000
2418.147935	2155.000000
2419.668734	2140.400000
2421.187614	2166.600000
2422.706213	2160.600000
2424.222894	2179.800000
2425.740929	2122.600000
2427.258683	2139.400000
2428.772885	2176.200000
2430.286808	2150.400000
2431.800450	2168.800000
2433.315447	2202.400000
2434.826895	2119.200000
2436.339697	2182.800000
2437.850587	2183.200000
2439.361198	2211.400000
2440.869897	2196.600000
2442.381582	2185.400000
2443.889724	2145.800000
2445.397588	2183.800000
2446.905174	2148.800000
2448.409219	2191.200000
2449.916249	2194.000000
2451.421371	2237.200000
2452.926216	2223.400000
2454.429154	2217.600000
2455.931816	2163.000000
2457.434201	2214.000000
2458.934681	2169.000000
2460.436514	2192.600000
2461.936442	2197.800000
2463.436095	2222.400000
2464.935473	2187.200000
2466.432948	2185.200000
2467.928521	2230.600000
2469.427074	2190.200000
2470.922099	2197.800000
2472.418476	2223.600000
2473.911327	2178.000000
2475.405531	2216.800000
2476.899461	2173.800000
2478.389867	2201.000000
2479.883251	2224.800000
2481.374737	2200.400000
2482.864326	2221.200000
2484.353643	2193.000000
2485.841064	2228.800000
2487.331461	2249.400000
2488.818340	2154.400000
2490.306570	2226.400000
2491.791283	2226.000000
2493.275727	2184.600000
2494.761521	2204.800000
2496.245424	2172.000000
2497.730677	2183.600000
2499.210797	2203.600000
2500.693890	2202.000000
2502.175092	2207.600000
2503.656025	2223.600000
2505.135069	2250.800000
2506.613844	2191.600000
2508.092351	2231.200000
2509.570590	2217.200000
2511.048560	2204.000000
2512.523025	2182.600000
2514.000460	2186.400000
2515.474391	2164.800000
2516.949672	2159.600000
2518.424686	2148.600000
2519.896199	2140.800000
2521.369063	2171.600000
2522.840044	2154.200000
2524.312375	2128.800000
2525.779592	2164.800000
2527.249776	2171.400000
2528.718079	2161.000000
2530.186117	2113.200000
2531.653890	2157.000000
2533.121398	2090.200000
2534.588641	2119.800000
2536.052392	2155.800000
2537.517493	2183.000000
2538.980717	2029.800000
2540.445290	2154.200000
2541.906375	2102.200000
2543.368809	2145.000000
2544.830980	2093.200000
2546.289665	2157.800000
2547.752921	2192.600000
2549.211082	2161.600000
2550.670591	2135.200000
2552.125006	2179.800000
2553.583992	2132.600000
2555.041106	2163.000000
2556.496348	2166.600000
2557.951330	2181.400000
2559.404443	2140.200000
2560.858903	2173.200000
2562.311495	2142.200000
2563.763827	2161.400000
2565.214292	2150.600000
2566.667712	2196.400000
2568.116050	2139.000000
2569.567343	2116.600000
2571.016771	2137.000000
2572.462726	2136.600000
2573.911636	2181.800000
2575.357076	2185.400000
2576.803863	2178.800000
2578.248787	2190.200000
2579.693454	2180.200000
2581.139468	2194.600000
2582.582016	2165.200000
2584.025911	2159.800000
2585.466340	2184.800000
2586.908118	2166.800000
2588.348036	2164.200000
2589.789301	2148.600000
2591.227104	2154.600000
2592.667857	2152.000000
2594.103548	2187.800000
2595.542188	2203.800000
2596.978970	2186.400000
2598.413897	2184.000000
2599.851771	2174.200000
2601.284588	2216.200000
2602.718752	2212.400000
2604.151062	2181.000000
2605.584718	2199.400000
2607.016521	2190.600000
2608.448070	2187.200000
2609.879367	2146.200000
2611.308811	2248.200000
2612.738003	2173.200000
2614.165345	2162.400000
2615.594032	2154.600000
2617.022468	2214.400000
2618.447456	2189.800000
2619.873791	2250.200000
2621.298277	2212.400000
2622.724109	2171.600000
2624.146497	2198.800000
2625.570231	2159.800000
2626.992118	2164.200000
2628.413756	2192.600000
2629.833548	2153.200000
2631.254686	2151.800000
2632.675574	2184.800000
2634.093023	2213.800000
2635.513413	2166.200000
2636.930365	2195.000000
2638.347068	2186.000000
2639.763523	2195.200000
2641.179730	2183.800000
2642.595689	2183.000000
2644.009807	2153.800000
2645.423677	2218.400000
2646.835709	2217.000000
2648.249084	2187.400000
2649.659030	2212.000000
2651.071912	2200.200000
2652.481365	2213.800000
2653.890572	2172.000000
2655.297943	2224.400000
2656.708248	2196.000000
2658.116718	2214.400000
2659.523352	2206.400000
2660.929741	2232.800000
2662.334296	2223.800000
2663.740195	2230.000000
2665.144261	2185.200000
2666.548082	2157.400000
2667.951659	2196.800000
2669.353405	2216.800000
2670.756494	2151.200000
2672.156165	2247.000000
2673.557180	2189.200000
2674.954779	2233.600000
2676.355307	2208.000000
2677.752421	2231.800000
2679.150878	2214.600000
2680.547508	2216.600000
2681.943895	2204.200000
2683.340040	2227.800000
2684.734359	2213.000000
2686.130021	2182.400000
2687.522274	2205.600000
2688.915869	2214.600000
2690.307640	2182.200000
2691.700754	2230.200000
2693.092044	2184.000000
2694.481511	2201.400000
2695.870738	2129.400000
2697.259726	2172.600000
2698.650055	2209.400000
2700.035401	2199.800000
2701.423670	2141.200000
2702.810119	2208.400000
2704.196329	2181.000000
2705.582300	2198.600000
2706.964873	2185.200000
2708.348788	2193.200000
2709.732465	2211.200000
2711.115903	2228.800000
2712.495946	2217.800000
2713.877331	2208.600000
2715.256901	2176.200000
2716.637811	2226.400000
2718.016907	2189.600000
2719.394189	2241.400000
2720.772812	2217.600000
2722.149621	2218.400000
2723.526195	2212.000000
2724.902533	2252.600000
2726.277060	2265.000000
2727.652927	2270.400000
2729.025407	2164.200000
2730.400803	2230.600000
2731.771239	2233.200000
2733.143016	2271.200000
2734.514558	2235.400000
2735.884292	2242.000000
2737.255367	2296.200000
2738.624633	2259.200000
2739.993666	2224.400000
2741.360893	2249.800000
2742.727886	2258.800000
2744.094647	2224.400000
2745.461176	2250.000000
2746.825899	2250.000000
2748.190390	2247.600000
2749.554650	2249.400000
2750.918677	2278.600000
2752.282473	2275.400000
2753.642895	2304.000000
2755.006227	2255.600000
2756.364617	2278.000000
2757.725917	2289.800000
2759.083847	2272.600000
2760.444685	2261.000000
2761.803724	2248.200000
2763.159394	2283.600000
2764.517972	2299.400000
2765.873183	2252.600000
2767.228165	2294.800000
2768.581350	2287.600000
2769.937442	2325.400000
2771.290170	2275.000000
2772.642670	2307.400000
2773.994941	2254.200000
2775.348550	2265.200000
2776.698799	2322.200000
2778.047253	2286.600000
2779.398612	2298.400000
2780.746613	2284.800000
2782.095951	2354.000000
2783.443497	2317.200000
2784.790817	2289.200000
2786.137910	2271.200000
2787.483211	2260.800000
2788.828287	2265.200000
2790.173137	2286.800000
2791.517761	2329.000000
2792.859033	2311.600000
2794.201643	2296.200000
2795.544027	2309.400000
2796.886186	2322.200000
2798.224996	2316.400000
2799.566706	2278.600000
2800.905067	2310.800000
2802.244766	2280.800000
2803.582680	2318.600000
2804.918809	2362.800000
2806.254714	2366.200000
2807.591957	2297.000000
2808.927416	2359.800000
2810.262652	2310.400000
2811.596105	2356.400000
2812.930895	2343.400000
2814.262345	2366.200000
2815.596690	2412.200000
2816.926137	2334.600000
2818.256920	2440.600000
2819.587483	2377.400000
2820.916266	2321.200000
2822.246385	2411.000000
2823.574726	2390.800000
2824.902846	2357.800000
2826.229188	2328.000000
2827.556867	2380.400000
2828.881212	2407.000000
2830.206894	2399.200000
2831.530800	2332.200000
2832.854486	2388.200000
2834.179509	2332.200000
2835.501201	2376.800000
2836.822675	2349.800000
2838.143930	2397.600000
2839.464966	2410.000000
2840.784229	2342.000000
2842.104828	2340.600000
2843.423656	2340.400000
2844.742265	2370.800000
2846.059103	2405.400000
2847.375724	2357.400000
2848.692128	2364.600000
2850.006762	2335.200000
2851.322732	2365.400000
2852.635381	2376.400000
2853.949365	2384.000000
2855.263133	2334.000000
2856.576684	2305.800000
2857.888469	2342.600000
2859.198487	2369.800000
2860.509840	2356.800000
2861.817878	2373.000000
2863.127250	2353.600000
2864.436408	2387.600000
2865.745350	2401.800000
2867.052528	2401.200000
2868.357944	2407.000000
2869.664693	2450.000000
2870.969681	2407.600000
2872.274454	2441.800000
2873.577467	2474.200000
2874.883360	2415.800000
2876.184399	2375.600000
2877.486772	2427.200000
2878.787385	2388.400000
2880.089332	2411.400000
2881.391065	2403.200000
2882.689495	2433.000000
2883.989258	2392.000000
2885.287264	2362.800000
2886.585058	2412.400000
2887.881096	2407.200000
2889.178467	2356.400000
2890.474082	2385.800000
2891.769486	2388.400000
2893.064679	2386.200000
2894.356575	2356.200000
2895.651347	2399.800000
2896.942822	2404.400000
2898.235630	2414.400000
2899.528228	2347.400000
2900.817532	2382.600000
2902.108168	2388.400000
2903.397053	2387.200000
2904.687270	2365.200000
2905.974196	2404.800000
2907.262454	2390.000000
2908.548963	2386.400000
2909.835263	2397.000000
2911.121356	2398.400000
2912.405700	2376.400000
2913.692915	2427.800000
2914.975304	2370.000000
2916.259025	2386.600000
2917.541000	2370.200000
2918.822767	2370.400000
2920.102789	2393.800000
2921.385682	2386.400000
2922.666829	2331.000000
2923.944694	2351.200000
2925.225428	2366.000000
2926.502881	2375.200000
2927.780128	2393.800000
2929.055633	2323.200000
2930.334006	2385.400000
2931.607565	2336.000000
2932.883991	2346.000000
2934.158676	2371.000000
2935.431620	2346.600000
2936.705896	2323.800000
2937.978432	2322.000000
2939.250763	2343.000000
2940.519822	2335.800000
2941.791746	2337.400000
2943.061932	2360.200000
2944.331914	2325.200000
2945.601693	2315.800000
2946.869736	2342.600000
2948.136042	2291.000000
2949.402147	2381.200000
2950.669581	2374.800000
2951.935280	2371.200000
2953.200778	2299.400000
2954.466073	2339.200000
2955.728103	2295.600000
2956.991463	2380.200000
2958.254622	2321.200000
2959.516049	2342.400000
2960.778805	2321.800000
2962.039829	2358.600000
2963.299123	2356.800000
2964.558217	2312.400000
2965.817110	2320.400000
2967.075803	2360.200000
2968.334296	2289.000000
2969.591060	2364.400000
2970.847624	2324.200000
2972.102460	2348.400000
2973.358626	2359.800000
2974.611537	2383.400000
2975.865777	2322.000000
2977.119817	2357.200000
2978.372132	2340.400000
2979.624249	2347.600000
2980.874641	2357.200000
2982.127888	2328.200000
2983.376358	2341.400000
2984.627683	2353.000000
2985.875758	2356.200000
2987.123636	2372.600000
2988.371318	2362.200000
2989.618802	2404.400000
2990.864565	2346.200000
2992.110132	2341.600000
2993.357026	2378.400000
2994.600676	2298.000000
2995.845654	2374.400000
2997.087388	2378.200000
2998.331974	2397.000000
2999.574841	2348.800000
3000.814467	2398.800000
3002.056943	2361.400000
3003.296179	2369.400000
3004.536743	2371.200000
3005.775590	2356.800000
3007.014243	2418.200000
3008.251180	2379.000000
3009.489445	2369.200000
3010.725994	2451.200000
3011.962350	2422.400000
3013.198512	2421.000000
3014.432960	2422.600000
3015.667216	2398.200000
3016.901278	2436.800000
3018.133627	2357.000000
3019.364266	2416.400000
3020.597750	2340.600000
3021.829522	2412.800000
3023.059584	2434.200000
3024.289453	2428.400000
3025.517613	2425.600000
3026.747100	2393.800000
3027.974877	2438.400000
3029.202463	2408.200000
3030.431375	2431.600000
3031.655546	2409.400000
3032.882559	2438.400000
3034.106348	2397.800000
3035.331464	2438.400000
3036.554873	2414.200000
3037.778092	2369.200000
3038.999606	2430.800000
3040.223961	2390.800000
3041.443581	2461.200000
3042.664527	2406.000000
3043.885284	2444.800000
3045.104337	2487.800000
3046.324715	2451.200000
3047.541877	2416.000000
3048.760365	2471.600000
3049.977150	2472.000000
3051.193748	2476.800000
3052.410157	2526.600000
3053.623353	2475.000000
3054.839388	2451.800000
3056.052210	2435.200000
3057.267869	2422.800000
3058.478805	2471.200000
3059.691066	2432.800000
3060.903140	2492.000000
3062.115028	2496.800000
3063.325219	2530.400000
3064.535223	2423.600000
3065.745041	2529.400000
3066.953163	2493.200000
3068.161100	2488.600000
3069.367341	2460.600000
3070.574907	2485.000000
3071.780778	2492.800000
3072.986465	2500.600000
3074.191966	2495.000000
3075.395774	2527.200000
3076.600906	2501.400000
3077.804345	2583.800000
3079.006093	2524.400000
3080.207656	2548.400000
3081.409036	2495.200000
3082.610232	2506.400000
3083.809738	2483.600000
3085.009061	2540.400000
3086.209707	2443.000000
3087.408663	2525.800000
3088.604425	2558.200000
3089.803016	2523.800000
3090.998413	2484.600000
3092.195133	2533.200000
3093.388661	2525.000000
3094.585017	2546.000000
3095.779686	2494.600000
3096.971165	2504.800000
3098.166976	2539.200000
3099.358092	2498.600000
3100.550532	2565.000000
3101.739784	2579.400000
3102.931861	2537.400000
3104.122255	2496.600000
3105.309463	2498.200000
3106.497993	2536.800000
3107.687846	2520.800000
3108.874515	2519.800000
3110.061003	2573.800000
3111.247313	2536.600000
3112.434944	2460.800000
3113.619393	2550.400000
3114.802163	2562.000000
3115.987755	2553.400000
3117.171668	2492.600000
3118.353902	2530.800000
3119.535957	2522.200000
3120.717834	2572.800000
3121.899533	2534.000000
3123.079555	2588.000000
3124.257900	2542.200000
3125.439065	2544.600000
3126.617055	2516.800000
3127.794868	2516.800000
3128.972504	2518.600000
3130.148466	2563.800000
3131.324250	2517.400000
3132.501356	2565.600000
3133.676787	2547.200000
3134.850545	2557.800000
3136.022630	2507.600000
3137.196037	2565.600000
3138.369267	2556.000000
3139.540826	2557.600000
3140.713705	2547.200000
3141.883417	2574.800000
3143.054450	2522.000000
3144.223813	2605.000000
3145.391505	2541.800000
3146.562013	2566.000000
3147.727863	2595.400000
3148.898021	2539.200000
3150.063523	2541.600000
3151.228850	2562.400000
3152.394004	2579.000000
3153.558985	2540.000000
3154.725285	2583.800000
3155.886933	2549.200000
3157.049900	2557.200000
3158.212695	2510.800000
3159.375317	2525.600000
3160.536273	2522.600000
3161.697058	2527.800000
3162.857670	2501.000000
3164.016618	2482.000000
3165.175395	2469.000000
3166.333999	2505.800000
3167.492432	2471.000000
3168.650694	2518.600000
3169.807293	2492.400000
3170.962231	2486.000000
3172.118488	2458.600000
3173.273084	2474.200000
3174.427510	2538.800000
3175.580276	2500.600000
3176.732871	2521.200000
3177.885297	2467.600000
3179.037553	2543.800000
3180.189638	2487.600000
3181.338577	2493.600000
3182.490324	2499.400000
3183.640412	2505.600000
3184.788844	2555.000000
3185.937106	2492.800000
3187.085200	2582.000000
3188.233125	2501.200000
3189.379394	2551.600000
3190.525495	2560.600000
3191.669942	2560.200000
3192.814221	2586.000000
3193.958332	2603.800000
3195.103760	2570.800000
3196.246050	2600.800000
3197.388173	2532.200000
3198.530128	2604.800000
3199.671916	2620.600000
3200.813537	2590.200000
3201.952023	2586.000000
3203.091826	2586.600000
3204.232946	2571.400000
3205.370933	2598.200000
3206.507270	2629.800000
3207.643441	2593.800000
3208.780929	2595.800000
3209.916769	2552.400000
3211.053926	2559.200000
3212.186470	2572.600000
3213.323296	2526.400000
3214.455510	2525.000000
3215.589041	2600.800000
3216.722408	2543.200000
3217.852647	2594.600000
3218.985684	2535.800000
3220.115595	2474.000000
3221.246822	2495.400000
3222.374925	2549.400000
3223.505824	2529.400000
3224.635079	2518.400000
3225.762691	2533.400000
3226.887180	2539.800000
3228.015945	2514.600000
3229.141588	2453.400000
3230.267069	2512.800000
3231.390907	2494.200000
3232.517541	2531.000000
3233.639577	2559.800000
3234.762929	2534.800000
3235.886119	2538.800000
3237.009146	2462.600000
3238.130535	2527.800000
3239.251761	2544.400000
3240.371350	2545.600000
3241.490777	2481.800000
3242.608566	2552.600000
3243.729147	2509.200000
3244.846615	2570.600000
3245.963922	2537.000000
3247.081069	2552.600000
3248.196579	2545.200000
3249.313405	2606.800000
3250.427121	2577.800000
3251.543626	2589.400000
3252.658497	2578.800000
3253.770258	2618.600000
3254.881861	2676.000000
3255.994779	2535.800000
3257.107537	2597.800000
3258.217189	2562.400000
3259.328156	2584.400000
3260.438964	2600.000000
3261.548140	2604.200000
3262.655685	2606.000000
3263.764545	2610.600000
3264.873247	2664.800000
3265.978846	2593.400000
3267.085759	2646.400000
3268.191043	2586.200000
3269.297641	2680.200000
3270.401139	2601.000000
3271.505952	2601.200000
3272.610606	2528.400000
3273.712163	2655.200000
3274.813563	2618.200000
3275.916277	2628.000000
3277.018835	2621.400000
3278.118296	2606.600000
3279.220541	2612.800000
3280.319690	2637.200000
3281.417215	2641.400000
3282.514584	2657.800000
3283.614735	2644.000000
3284.711794	2643.600000
3285.808697	2621.600000
3286.905445	2700.200000
3287.997634	2586.000000
3289.094073	2620.400000
3290.188889	2610.000000
3291.283551	2687.200000
3292.376591	2611.600000
3293.469476	2633.400000
3294.560741	2582.400000
3295.653319	2650.000000
3296.744277	2626.400000
3297.833615	2662.800000
3298.922800	2688.800000
3300.013298	2639.800000
3301.100711	2616.000000
3302.187971	2605.400000
3303.276544	2699.800000
3304.364964	2698.800000
3305.448838	2642.200000
3306.536953	2624.800000
3307.621986	2661.000000
3308.705404	2667.200000
3309.790134	2641.200000
3310.873248	2644.000000
3311.957675	2637.800000
3313.039023	2663.400000
3314.121683	2700.400000
3315.202729	2661.400000
3316.283624	2698.600000
3317.362905	2661.600000
3318.442036	2667.400000
3319.522479	2678.200000
3320.599847	2654.400000
3321.678527	2702.600000
3322.755595	2699.000000
3323.832514	2753.600000
3324.907821	2686.600000
3325.982979	2732.000000
3327.059448	2605.000000
3328.132847	2663.400000
3329.206096	2706.200000
3330.280657	2731.600000
3331.353609	2682.800000
3332.424952	2660.400000
3333.497606	2724.600000
3334.567194	2668.800000
3335.638092	2662.400000
3336.707383	2692.000000
3337.777985	2660.200000
3338.846980	2702.600000
3339.914369	2694.200000
3340.980153	2637.400000
3342.050163	2639.400000
3343.117110	2677.000000
3344.180995	2655.800000
3345.247647	2711.400000
3346.312696	2657.800000
3347.376141	2707.800000
3348.439440	2670.600000
3349.502592	2694.400000
3350.565598	2687.200000
3351.628458	2649.000000
3352.689716	2657.600000
3353.747917	2663.600000
3354.810338	2689.600000
3355.869704	2734.800000
3356.928924	2686.000000
3357.989453	2686.600000
3359.045474	2672.200000
3360.104258	2752.400000
3361.158535	2729.200000
3362.215576	2772.800000
3363.271018	2740.800000
3364.327770	2774.200000
3365.382923	2754.600000
3366.436479	2759.400000
3367.488439	2711.800000
3368.543160	2759.000000
3369.594832	2791.000000
3370.646361	2734.200000
3371.699198	2783.400000
3372.748988	2800.000000
3373.800087	2760.000000
3374.848140	2739.400000
3375.898952	2758.200000
3376.946720	2811.400000
3377.994344	2770.000000
3379.041827	2774.600000
3380.087717	2789.000000
3381.134915	2762.800000
3382.179071	2780.800000
3383.225985	2776.600000
3384.271307	2774.000000
3385.313588	2801.200000
3386.355728	2755.800000
3387.399177	2842.000000
3388.442484	2724.000000
3389.484201	2778.000000
3390.525778	2802.200000
3391.567213	2777.000000
3392.607060	2809.000000
3393.645318	2782.200000
3394.684884	2803.400000
3395.724310	2846.400000
3396.762148	2844.400000
3397.798399	2833.400000
3398.834511	2799.600000
3399.871930	2861.600000
3400.906316	2770.000000
3401.942009	2815.000000
3402.977563	2744.200000
3404.010086	2777.000000
3405.045362	2815.600000
3406.077607	2818.200000
3407.109714	2830.200000
3408.140237	2870.600000
3409.172067	2802.200000
3410.203759	2856.600000
3411.232423	2820.600000
3412.260950	2823.600000
3413.290783	2852.400000
3414.320479	2831.600000
3415.347149	2820.000000
3416.375125	2893.400000
3417.400078	2874.600000
3418.427780	2833.200000
3419.452459	2863.600000
3420.478444	2859.000000
3421.502849	2945.800000
3422.527118	2841.400000
3423.549808	2879.200000
3424.572362	2856.400000
3425.596222	2884.400000
3426.617062	2888.000000
3427.637766	2901.600000
3428.659777	2874.200000
3429.678769	2805.400000
3430.697625	2906.800000
3431.717788	2841.400000
3432.734934	2888.200000
