-116.521679	14.200000
-113.852079	14.000000
-111.185414	-10.600000
-108.519501	11.200000
-105.856521	20.600000
-103.192110	-11.800000
-100.530630	21.400000
-97.867721	4.000000
-95.209918	8.800000
-92.550686	4.200000
-89.892202	20.400000
-87.236643	-6.200000
-84.579654	7.200000
-81.927764	5.600000
-79.274444	1.800000
-76.624043	32.000000
-73.972214	-14.200000
-71.325474	10.000000
-68.677306	-0.600000
-66.029880	24.200000
-63.385369	4.800000
-60.739428	10.400000
-58.098569	8.000000
-55.456281	-11.200000
-52.816902	31.800000
-50.176093	16.600000
-47.536025	7.800000
-44.901030	2.800000
-42.264605	4.600000
-39.631083	17.800000
-36.996133	0.200000
-34.366248	-12.400000
-31.732771	32.400000
-29.104356	9.800000
-26.476675	19.400000
-23.847565	18.000000
-21.223512	4.400000
-18.595870	-7.600000
-15.973281	4.600000
-13.351424	1.800000
-10.730297	6.200000
-8.109901	36.400000
-5.492392	40.000000
-2.873455	98.200000
-0.257403	135.800000
2.357920	145.600000
4.972515	67.800000
7.584229	21.800000
10.197371	17.800000
12.805479	5.400000
15.417169	11.200000
18.023828	31.600000
20.631915	-8.200000
23.239278	-0.200000
25.841616	21.800000
28.447532	16.800000
31.048426	6.600000
33.650748	8.800000
36.248053	12.200000
38.848933	35.800000
41.444798	-5.400000
44.042092	16.200000
46.638666	25.000000
49.230231	-3.000000
51.823224	20.200000
54.413356	-10.800000
57.004915	7.400000
59.593616	32.000000
62.183743	5.200000
64.768871	8.800000
67.355427	13.400000
69.941269	-16.000000
72.524257	20.200000
75.108671	6.600000
77.685957	-11.600000
80.266809	17.000000
82.844812	17.400000
85.422105	23.400000
88.000824	5.200000
90.574561	21.400000
93.149726	-1.800000
95.722047	-11.600000
98.293660	31.400000
100.862433	35.600000
103.432633	28.400000
105.999994	39.600000
108.568782	12.400000
111.134733	29.800000
113.697849	38.000000
116.264521	65.000000
118.821972	60.400000
121.385108	75.400000
123.943284	103.400000
126.505015	134.400000
129.061789	177.400000
131.619989	292.400000
134.173237	429.200000
136.725787	628.800000
139.281887	867.600000
141.833039	1136.200000
144.383494	1386.600000
146.933251	1574.800000
149.480189	1739.200000
152.026432	1817.600000
154.574100	1875.600000
157.121072	1944.200000
159.663109	1920.400000
162.204452	1920.200000
164.745102	1944.800000
167.287178	1920.600000
169.826442	1915.600000
172.362898	1895.800000
174.898662	1906.200000
177.435852	1861.000000
179.972351	1890.400000
182.506044	1848.000000
185.036933	1863.600000
187.567134	1879.400000
190.098761	1823.200000
192.627586	1868.200000
195.153612	1867.200000
197.678952	1846.200000
200.205717	1845.000000
202.729686	1839.600000
205.252970	1815.000000
207.775569	1879.000000
210.295375	1849.200000
212.814497	1835.400000
215.332938	1826.400000
217.852802	1817.000000
220.365665	1858.200000
222.882059	1823.400000
225.397771	1867.400000
227.908593	1839.400000
230.420840	1816.000000
232.930305	1859.800000
235.439090	1826.600000
237.947198	1852.600000
240.456730	1814.200000
242.961381	1823.800000
245.465356	1845.200000
247.970755	1779.800000
250.471279	1847.400000
252.975326	1831.800000
255.472403	1842.000000
257.973003	1863.200000
260.470831	1852.400000
262.967986	1852.400000
265.464468	1834.000000
267.956087	1820.000000
270.451226	1847.000000
272.943598	1819.000000
275.435300	1850.000000
277.924239	1858.600000
280.414601	1830.400000
282.902202	1804.800000
285.387043	1790.600000
287.875399	1785.600000
290.356815	1793.200000
292.841745	1807.400000
295.321830	1753.200000
297.805427	1801.600000
300.284181	1749.000000
302.764358	1796.400000
305.241784	1787.600000
307.718546	1785.800000
310.194644	1730.600000
312.667995	1724.200000
315.140683	1771.000000
317.612710	1740.400000
320.084076	1814.000000
322.552697	1771.200000
325.020660	1729.400000
327.490044	1801.000000
329.954606	1750.000000
332.422672	1774.400000
334.885918	1760.200000
337.348506	1800.400000
339.810438	1732.400000
342.271713	1788.800000
344.730254	1760.000000
347.190217	1766.000000
349.647447	1760.400000
352.104023	1754.400000
354.559945	1764.000000
357.013137	1760.000000
359.467752	1721.200000
361.917565	1726.000000
364.370874	1760.600000
366.819384	1732.200000
369.267244	1694.400000
371.716526	1733.800000
374.161014	1728.600000
376.606924	1763.000000
379.052184	1745.400000
381.494726	1695.400000
383.936620	1726.800000
386.377867	1709.000000
388.816398	1714.000000
391.256350	1683.200000
393.693590	1710.800000
396.128117	1657.800000
398.566132	1702.400000
400.999370	1696.000000
403.434029	1697.200000
405.863916	1639.200000
408.297288	1675.600000
410.725890	1688.800000
413.153850	1715.200000
415.583232	1687.200000
418.007848	1687.800000
420.433886	1674.600000
422.859283	1677.200000
425.284040	1649.600000
427.704039	1644.800000
430.125458	1713.000000
432.544182	1697.200000
434.964326	1708.400000
437.381775	1723.800000
439.800644	1713.600000
442.216820	1712.600000
444.628248	1738.400000
447.043153	1707.800000
449.455369	1716.200000
451.866950	1680.000000
454.277897	1762.000000
456.686158	1677.800000
459.093786	1700.000000
461.500782	1702.800000
463.907147	1684.000000
466.310829	1678.400000
468.713881	1699.600000
471.116303	1682.600000
473.518095	1714.600000
475.917209	1699.600000
478.317743	1714.600000
480.717648	1651.400000
483.112831	1692.200000
485.511480	1694.400000
487.905408	1694.400000
490.298711	1672.800000
492.691389	1646.800000
495.083441	1676.600000
497.476911	1642.600000
499.865669	1658.600000
502.251761	1666.800000
504.639273	1663.600000
507.026162	1613.400000
509.410387	1618.400000
511.796030	1645.200000
514.179012	1615.200000
516.559333	1627.400000
518.941073	1707.200000
521.320154	1608.800000
523.700654	1646.600000
526.078496	1635.000000
528.453682	1622.400000
530.828252	1607.600000
533.204239	1644.000000
535.577574	1628.600000
537.952326	1641.400000
540.322393	1590.600000
542.691844	1679.000000
545.062713	1619.600000
547.428901	1632.600000
549.796508	1625.000000
552.161470	1598.600000
554.525818	1633.800000
556.889553	1600.200000
559.254706	1590.400000
561.615187	1621.200000
563.977086	1598.000000
566.336344	1619.400000
568.692964	1615.400000
571.053030	1623.600000
573.406404	1583.600000
575.763223	1608.400000
578.117407	1603.800000
580.470982	1628.000000
582.823950	1598.600000
585.174285	1560.600000
587.526038	1587.400000
589.871114	1609.400000
592.221653	1610.200000
594.565520	1628.000000
596.914848	1559.000000
599.259527	1548.000000
601.601582	1594.400000
603.945054	1521.800000
606.285903	1570.400000
608.626149	1516.800000
610.963776	1607.800000
613.304837	1543.800000
615.641260	1546.200000
617.979100	1522.600000
620.314323	1565.000000
622.646930	1572.800000
624.980953	1569.800000
627.312362	1532.200000
629.643173	1563.800000
631.973387	1537.200000
634.303002	1552.600000
636.627994	1484.000000
638.958428	1538.200000
641.284241	1551.600000
643.607446	1488.800000
645.932068	1523.800000
648.254084	1517.600000
650.575506	1518.600000
652.894326	1489.600000
655.214561	1498.800000
657.534203	1529.200000
659.851244	1500.400000
662.167693	1514.000000
664.481544	1542.200000
666.796811	1525.000000
669.109481	1514.400000
671.423566	1494.000000
673.733051	1502.200000
676.043952	1504.000000
678.352260	1533.200000
680.659980	1513.000000
682.969114	1484.600000
685.273656	1514.400000
687.577612	1501.800000
689.880982	1511.400000
692.185766	1551.400000
694.485963	1458.400000
696.787576	1478.400000
699.088603	1514.400000
701.385049	1477.000000
703.682910	1496.200000
705.980187	1504.400000
708.276881	1546.200000
710.568999	1493.200000
712.864528	1467.600000
715.155483	1507.400000
717.447853	1489.400000
719.737648	1500.000000
722.026862	1493.400000
724.315497	1480.800000
726.601559	1458.400000
728.889036	1494.400000
731.173941	1471.200000
733.458269	1434.600000
735.740028	1492.800000
738.023201	1474.400000
740.305797	1499.200000
742.583837	1491.400000
744.863292	1469.400000
747.142170	1519.000000
749.420474	1513.400000
751.694228	1452.600000
753.969395	1466.200000
756.243989	1484.400000
758.516024	1478.400000
760.789472	1475.000000
763.060362	1522.800000
765.328696	1457.600000
767.598443	1449.800000
769.865636	1442.000000
772.132258	1470.800000
774.398310	1428.600000
776.661811	1459.600000
778.926725	1470.600000
781.191069	1487.200000
783.450884	1449.000000
785.712111	1454.000000
787.972771	1490.800000
790.230885	1472.200000
792.486454	1445.800000
794.745414	1447.000000
796.997874	1449.000000
799.255702	1460.800000
801.509011	1455.600000
803.759780	1446.400000
806.011961	1439.000000
808.261603	1463.400000
810.512658	1468.400000
812.759201	1449.600000
815.007156	1427.600000
817.252577	1444.000000
819.499409	1452.000000
821.745680	1448.800000
823.987446	1430.000000
826.232596	1446.800000
828.471273	1465.000000
830.713332	1459.000000
832.950893	1440.200000
835.189866	1433.000000
837.426312	1428.000000
839.664169	1385.600000
841.899501	1448.600000
844.132310	1463.800000
846.366530	1440.400000
848.598227	1407.800000
850.829370	1450.200000
853.059958	1451.400000
855.289992	1430.200000
857.519472	1479.400000
859.744470	1426.800000
861.972843	1472.200000
864.196736	1449.400000
866.422041	1447.600000
868.642870	1440.400000
870.867071	1432.800000
873.086799	1500.000000
875.307937	1477.600000
877.528525	1442.600000
879.746604	1422.200000
881.966092	1458.600000
884.181114	1430.000000
886.395588	1488.200000
888.609515	1446.600000
890.822895	1447.200000
893.035727	1447.800000
895.248013	1410.400000
897.457796	1461.600000
899.667034	1412.800000
901.875727	1451.800000
904.081920	1426.800000
906.289524	1404.400000
908.494629	1419.000000
910.699191	1414.000000
912.901258	1424.400000
915.104734	1433.600000
917.305716	1425.800000
919.506156	1413.400000
921.708005	1390.800000
923.903463	1436.800000
926.102280	1445.000000
928.296658	1453.000000
930.494394	1437.800000
932.687694	1417.800000
934.882403	1419.200000
937.074626	1382.800000
939.266310	1426.000000
941.457457	1391.200000
943.646121	1429.800000
945.834249	1442.800000
948.019896	1418.600000
950.208895	1461.000000
952.393471	1442.400000
954.577512	1450.800000
956.764903	1444.800000
958.943990	1451.200000
961.126428	1456.800000
963.308332	1461.400000
965.487761	1489.400000
967.664718	1495.400000
969.843083	1436.000000
972.022855	1436.600000
974.196278	1432.000000
976.373047	1488.600000
978.545409	1484.200000
980.719179	1504.400000
982.888545	1444.600000
985.061255	1469.400000
987.231500	1481.400000
989.401215	1432.800000
991.570403	1474.200000
993.735193	1447.600000
995.903324	1469.800000
998.067060	1473.200000
1000.232204	1486.800000
1002.394888	1498.200000
1004.557047	1440.600000
1006.716749	1521.200000
1008.875926	1487.200000
1011.036510	1523.400000
1013.194639	1455.000000
1015.352245	1504.200000
1017.509327	1437.000000
1019.665885	1461.600000
1021.818064	1467.800000
1023.971650	1457.400000
1026.124714	1493.600000
1028.275329	1506.000000
1030.427351	1501.600000
1032.574999	1468.400000
1034.725979	1510.200000
1036.872588	1446.600000
1039.018678	1504.000000
1041.164250	1528.600000
1043.311227	1509.400000
1045.451915	1528.600000
1047.595933	1517.200000
1049.737510	1547.600000
1051.878571	1475.400000
1054.021036	1512.000000
1056.157221	1535.800000
1058.296733	1492.000000
1060.431890	1523.800000
1062.570371	1489.800000
1064.704498	1468.800000
1066.838112	1482.600000
1068.973130	1518.000000
1071.103800	1489.200000
1073.235874	1494.800000
1075.365519	1495.800000
1077.494652	1493.400000
1079.623273	1433.200000
1081.751383	1451.000000
1083.877067	1475.000000
1086.002241	1437.600000
1088.128819	1474.000000
1090.251059	1447.600000
1092.374704	1459.000000
1094.494014	1464.200000
1096.618553	1424.200000
1098.736848	1444.000000
1100.856547	1425.200000
1102.973827	1474.600000
1105.090600	1391.800000
1107.206868	1456.200000
1109.320719	1405.600000
1111.435975	1385.200000
1113.546907	1454.400000
1115.661152	1424.600000
1117.771076	1418.400000
1119.882404	1343.800000
1121.993227	1414.600000
1124.099734	1391.000000
1126.209550	1408.000000
1128.315053	1402.400000
1130.421958	1383.600000
1132.522648	1444.800000
1134.628550	1433.000000
1136.730143	1437.400000
1138.833139	1426.200000
1140.935634	1371.000000
1143.031922	1384.600000
1145.133417	1367.000000
1147.230610	1395.800000
1149.327305	1416.400000
1151.423501	1383.400000
1153.519199	1401.000000
1155.614400	1358.200000
1157.707204	1356.600000
1159.801410	1364.200000
1161.889425	1359.400000
1163.982639	1358.800000
1166.069664	1434.600000
1168.159988	1376.400000
1170.246024	1350.600000
1172.335359	1326.200000
1174.418512	1387.800000
1176.503067	1351.800000
1178.589024	1364.400000
1180.670699	1345.000000
1182.753775	1344.600000
1184.834466	1356.200000
1186.914666	1366.000000
1188.994374	1354.400000
1191.073591	1366.800000
1193.150426	1388.000000
1195.224879	1389.000000
1197.302625	1352.400000
1199.376101	1329.600000
1201.450977	1399.400000
1203.521586	1369.200000
1205.593596	1356.800000
1207.663231	1364.000000
1209.734265	1341.000000
1211.804813	1361.600000
1213.871099	1360.600000
1215.938786	1379.400000
1218.004101	1362.800000
1220.070816	1375.400000
1222.133275	1397.600000
1224.199019	1390.600000
1226.260509	1404.800000
1228.323400	1346.000000
1230.383923	1395.800000
1232.443962	1354.600000
1234.503518	1361.000000
1236.560710	1390.600000
1238.617420	1409.600000
1240.671766	1339.000000
1242.729394	1336.800000
1244.784659	1402.400000
1246.835683	1362.000000
1248.888107	1392.800000
1250.940051	1382.800000
1252.989637	1395.400000
1255.038744	1399.000000
1257.087372	1347.200000
1259.135522	1377.800000
1261.183194	1382.000000
1263.226635	1407.200000
1265.273352	1365.200000
1267.317715	1393.800000
1269.361602	1395.800000
1271.403137	1417.400000
1273.442323	1412.400000
1275.484782	1388.000000
1277.523018	1415.000000
1279.562653	1467.800000
1281.601813	1462.000000
1283.636754	1471.800000
1285.673094	1473.200000
1287.707090	1483.800000
1289.742483	1508.000000
1291.773664	1523.400000
1293.806242	1549.600000
1295.838349	1561.200000
1297.868115	1581.800000
1299.899278	1570.200000
1301.926235	1639.600000
1303.954589	1617.200000
1305.978738	1682.600000
1308.006153	1718.000000
1310.029365	1727.000000
1312.053975	1780.600000
1314.076251	1927.400000
1316.099924	1998.200000
1318.121263	2169.400000
1320.142136	2480.600000
1322.162541	2983.600000
1324.178753	4017.000000
1326.196362	6412.400000
1328.211643	12844.400000
1330.230183	26797.000000
1332.244534	45502.200000
1334.256558	47357.400000
1336.271841	29941.400000
1338.282938	11872.600000
1340.295432	5051.600000
1342.303743	3276.400000
1344.315309	2457.400000
1346.320837	2056.800000
1348.329620	1818.600000
1350.334225	1738.000000
1352.342084	1679.600000
1354.349481	1623.000000
1356.350847	1558.400000
1358.353609	1508.200000
1360.355912	1505.200000
1362.357755	1462.400000
1364.359138	1501.600000
1366.358208	1397.000000
1368.356819	1497.200000
1370.354971	1422.600000
1372.352666	1486.000000
1374.346198	1460.800000
1376.341125	1429.800000
1378.335596	1437.000000
1380.329610	1396.800000
1382.321317	1444.000000
1384.312568	1436.200000
1386.301514	1389.400000
1388.291856	1478.400000
1390.281742	1447.600000
1392.269324	1457.800000
1394.256453	1431.800000
1396.241280	1458.000000
1398.227502	1472.400000
1400.211423	1433.600000
1402.194892	1462.600000
1404.177909	1466.600000
1406.158628	1465.200000
1408.140741	1436.600000
1410.120558	1497.800000
1412.099923	1464.000000
1414.075150	1486.200000
1416.053615	1434.600000
1418.029787	1478.400000
1420.005509	1498.000000
1421.980783	1515.400000
1423.953765	1477.200000
1425.926299	1507.800000
1427.898385	1510.800000
1429.870024	1574.200000
1431.837534	1541.600000
1433.810118	1529.800000
1435.774896	1514.000000
1437.744747	1568.200000
1439.710474	1624.000000
1441.677593	1540.200000
1443.642429	1559.800000
1445.603145	1518.200000
1447.568929	1523.000000
1449.528758	1522.800000
1451.489981	1562.400000
1453.452595	1564.800000
1455.411095	1554.000000
1457.369153	1548.000000
1459.326769	1559.200000
1461.283942	1540.800000
1463.238840	1522.600000
1465.195131	1546.000000
1467.149147	1552.800000
1469.102722	1533.800000
1471.054025	1529.000000
1473.006721	1505.800000
1474.957144	1473.400000
1476.907129	1531.400000
1478.856675	1511.800000
1480.803952	1544.600000
1482.748961	1464.200000
1484.695363	1521.800000
1486.641327	1504.000000
1488.586854	1507.000000
1490.530115	1486.000000
1492.472941	1524.200000
1494.413502	1495.800000
1496.355456	1528.600000
1498.295147	1520.400000
1500.234403	1464.800000
1502.173225	1566.000000
1504.109787	1512.400000
1506.047740	1605.800000
1507.983434	1549.600000
1509.918695	1566.000000
1511.851699	1559.600000
1513.784272	1550.600000
1515.716412	1559.400000
1517.648120	1577.200000
1519.577574	1559.600000
1521.508419	1562.400000
1523.438832	1608.400000
1525.365173	1611.200000
1527.292904	1626.400000
1529.218386	1578.200000
1531.143438	1580.000000
1533.068061	1595.800000
1534.992254	1591.800000
1536.914201	1580.000000
1538.837538	1648.200000
1540.758628	1553.000000
1542.677474	1609.400000
1544.597710	1585.000000
1546.515703	1548.000000
1548.433269	1590.600000
1550.348593	1584.400000
1552.265307	1568.400000
1554.177966	1570.600000
1556.093829	1517.000000
1558.007452	1607.000000
1559.918837	1567.600000
1561.831612	1528.200000
1563.740337	1539.800000
1565.650451	1554.400000
1567.560142	1503.200000
1569.469410	1531.200000
1571.376444	1495.000000
1573.281245	1495.600000
1575.187435	1530.600000
1577.091393	1466.800000
1578.994930	1528.000000
1580.898047	1488.800000
1582.798934	1508.400000
1584.701210	1492.600000
1586.601258	1494.000000
1588.502693	1472.200000
1590.400095	1442.800000
1592.297078	1435.000000
1594.193643	1501.200000
1596.091595	1498.000000
1597.983713	1476.200000
1599.879025	1475.400000
1601.773919	1447.400000
1603.666591	1469.200000
1605.558846	1456.400000
1607.448882	1429.200000
1609.338502	1471.400000
1611.227707	1442.600000
1613.116497	1450.600000
1615.003069	1430.400000
1616.891029	1468.200000
1618.774972	1428.600000
1620.660302	1450.000000
1622.545219	1437.800000
1624.427922	1422.800000
1626.312012	1429.400000
1628.192090	1431.600000
1630.073556	1447.400000
1631.952811	1417.800000
1633.833452	1408.200000
1635.708289	1442.200000
1637.588107	1425.200000
1639.463921	1430.800000
1641.339324	1413.000000
1643.216113	1442.200000
1645.087106	1437.800000
1646.961280	1447.000000
1648.831455	1449.400000
1650.704811	1397.800000
1652.575964	1432.200000
1654.444916	1449.800000
1656.315252	1446.600000
1658.181596	1386.000000
1660.049325	1441.200000
1661.914855	1397.600000
1663.781771	1439.600000
1665.644698	1415.800000
1667.509010	1421.400000
1669.371126	1425.000000
1671.232837	1405.000000
1673.095934	1377.600000
1674.956835	1404.200000
1676.815544	1373.200000
1678.673849	1410.200000
1680.533538	1425.000000
1682.387461	1420.400000
1684.244557	1401.800000
1686.101249	1383.000000
1687.953966	1394.400000
1689.809854	1399.200000
1691.661768	1400.800000
1693.513281	1422.000000
1695.364393	1432.000000
1697.215105	1373.600000
1699.065415	1383.400000
1700.913542	1387.800000
1702.763053	1413.400000
1704.606814	1373.600000
1706.455526	1367.400000
1708.298491	1425.000000
1710.144623	1401.800000
1711.986792	1394.000000
1713.832127	1379.800000
1715.671721	1384.400000
1717.512699	1367.400000
1719.355060	1384.200000
1721.193465	1369.200000
1723.033253	1367.200000
1724.870865	1339.200000
1726.708083	1387.600000
1728.543127	1379.600000
1730.379554	1328.600000
1732.213809	1359.000000
1734.047669	1331.600000
1735.881135	1310.000000
1737.710656	1322.800000
1739.543335	1304.600000
1741.372070	1336.600000
1743.203962	1267.400000
1745.031912	1368.600000
1746.859471	1284.800000
1748.686637	1295.600000
1750.513412	1316.600000
1752.339795	1343.400000
1754.162242	1304.800000
1755.987844	1265.400000
1757.809511	1304.600000
1759.632560	1310.000000
1761.453447	1248.400000
1763.273946	1307.400000
1765.095825	1279.000000
1766.912006	1274.000000
1768.731338	1230.400000
1770.546742	1269.800000
1772.365298	1248.600000
1774.179928	1248.000000
1775.994171	1292.200000
1777.808028	1269.400000
1779.621498	1287.000000
1781.432815	1255.800000
1783.245512	1273.000000
1785.057824	1262.800000
1786.866217	1280.600000
1788.675992	1277.000000
1790.481852	1288.800000
1792.290857	1254.600000
1794.095949	1306.400000
1795.902422	1268.400000
1797.708511	1268.000000
1799.510689	1289.600000
1801.316012	1244.200000
1803.117426	1285.600000
1804.920220	1266.600000
1806.719108	1258.800000
1808.519377	1270.200000
1810.319264	1262.400000
1812.117009	1259.000000
1813.914374	1314.000000
1815.711359	1254.800000
1817.507963	1241.600000
1819.302428	1321.400000
1821.098272	1253.600000
1822.888461	1262.400000
1824.683547	1261.800000
1826.472981	1251.600000
1828.265551	1275.600000
1830.055986	1263.200000
1831.844287	1237.600000
1833.635723	1245.800000
1835.421513	1307.600000
1837.208683	1239.000000
1838.993721	1209.200000
1840.781893	1278.200000
1842.566179	1245.600000
1844.348335	1263.000000
1846.131871	1261.000000
1847.913278	1232.200000
1849.696064	1276.600000
1851.474969	1263.000000
1853.255253	1265.400000
1855.033412	1307.200000
1856.812949	1233.000000
1858.590360	1245.800000
1860.365649	1278.000000
1862.142315	1256.800000
1863.916859	1275.200000
1865.692781	1277.200000
1867.463082	1256.400000
1869.236511	1237.400000
1871.007820	1290.800000
1872.778758	1277.400000
1874.551074	1286.800000
1876.317776	1283.000000
1878.087603	1274.600000
1879.853567	1304.200000
1881.622655	1316.600000
1883.387881	1313.800000
1885.152739	1274.000000
1886.918974	1328.600000
1888.681350	1278.000000
1890.443358	1299.200000
1892.205000	1312.800000
1893.966275	1323.400000
1895.727182	1301.600000
1897.487723	1325.200000
1899.246154	1312.800000
1901.004219	1367.400000
1902.760177	1309.000000
1904.517511	1351.600000
1906.274480	1300.800000
1908.029342	1333.400000
1909.782100	1344.000000
1911.534493	1378.600000
1913.288263	1376.200000
1915.039929	1351.400000
1916.789493	1378.400000
1918.540432	1378.200000
1920.291009	1353.600000
1922.037746	1382.800000
1923.785860	1373.800000
1925.531874	1429.200000
1927.279263	1369.000000
1929.024555	1400.400000
1930.767749	1397.000000
1932.512318	1414.200000
1934.254791	1395.600000
1935.996905	1405.200000
1937.738658	1424.600000
1939.480051	1404.200000
1941.219351	1437.800000
1942.958292	1440.800000
1944.696874	1411.800000
1946.433365	1432.800000
1948.169498	1453.500000
1949.907005	1474.200000
1951.640690	1426.800000
1953.375750	1463.800000
1955.108721	1496.200000
1956.841336	1489.200000
1958.573595	1463.800000
1960.305497	1500.000000
1962.035313	1481.200000
1963.763044	1496.800000
1965.492150	1501.400000
1967.220900	1493.000000
1968.947568	1492.200000
1970.673881	1470.400000
1972.401567	1495.200000
1974.123717	1544.200000
1975.848968	1500.800000
1977.570412	1542.200000
1979.294957	1513.400000
1981.017421	1527.800000
1982.736083	1556.400000
1984.457843	1523.000000
1986.175801	1498.400000
1987.895132	1551.600000
1989.610664	1533.600000
1991.331016	1549.800000
1993.047570	1572.400000
1994.760327	1574.800000
1996.476180	1565.600000
1998.189961	1558.600000
1999.903392	1546.800000
2001.614752	1581.000000
2003.327484	1597.400000
2005.036426	1583.000000
2006.748460	1633.400000
2008.454985	1609.400000
2010.164603	1561.400000
2011.872154	1614.400000
2013.579356	1635.200000
2015.284493	1578.600000
2016.989284	1581.600000
2018.695446	1616.200000
2020.397826	1657.000000
2022.101577	1578.800000
2023.803266	1653.400000
2025.504609	1599.200000
2027.205608	1617.000000
2028.904545	1683.800000
2030.604854	1600.000000
2032.301387	1604.400000
2033.999292	1641.800000
2035.695139	1615.800000
2037.394071	1631.200000
2039.087517	1608.600000
2040.782334	1647.600000
2042.476809	1656.600000
2044.167515	1608.400000
2045.861305	1648.400000
2047.551328	1661.200000
2049.242722	1665.000000
2050.932063	1663.400000
2052.622774	1645.600000
2054.309722	1656.800000
2055.996331	1621.000000
2057.684309	1625.600000
2059.368528	1656.800000
2061.054118	1632.000000
2062.739368	1625.800000
2064.422569	1595.400000
2066.107141	1615.200000
2067.786249	1607.200000
2069.470144	1610.600000
2071.148577	1603.200000
2072.830088	1588.600000
2074.507847	1622.000000
2076.185270	1620.800000
2077.864062	1611.800000
2079.540812	1655.400000
2081.215519	1607.800000
2082.891597	1603.200000
2084.565633	1634.200000
2086.239335	1612.600000
2087.912701	1670.200000
2089.584028	1628.000000
2091.255021	1591.800000
2092.925680	1634.800000
2094.596005	1644.800000
2096.265996	1610.000000
2097.933951	1645.400000
2099.601573	1614.200000
2101.267160	1606.200000
2102.934116	1638.400000
2104.599039	1649.000000
2106.263630	1598.800000
2107.926189	1668.400000
2109.590116	1666.600000
2111.252012	1664.200000
2112.913578	1691.600000
2114.574812	1597.200000
2116.234018	1662.600000
2117.892893	1704.600000
2119.551439	1659.000000
2121.209654	1694.400000
2122.864147	1704.800000
2124.521704	1671.400000
2126.178931	1686.200000
2127.832438	1653.200000
2129.487312	1719.800000
2131.138467	1718.400000
2132.792685	1663.400000
2134.443185	1652.600000
2136.095053	1675.800000
2137.741512	1632.200000
2139.392726	1685.000000
2141.040226	1687.600000
2142.689093	1695.400000
2144.335941	1700.000000
2145.982464	1652.400000
2147.628661	1705.400000
2149.271150	1663.600000
2150.916697	1707.000000
2152.558537	1674.400000
2154.203434	1665.400000
2155.844625	1669.000000
2157.485494	1671.000000
2159.126038	1677.000000
2160.764570	1650.000000
2162.404468	1656.600000
2164.040666	1716.000000
2165.678230	1673.200000
2167.315472	1655.000000
2168.950704	1673.800000
2170.585614	1701.600000
2172.220203	1648.200000
2173.854471	1641.600000
2175.485045	1662.400000
2177.118671	1682.200000
2178.748605	1658.400000
2180.379904	1710.200000
2182.009198	1684.400000
2183.638173	1703.200000
2185.266828	1687.600000
2186.895164	1693.400000
2188.521498	1666.600000
2190.147513	1685.800000
2191.771526	1665.600000
2193.396905	1686.600000
2195.020283	1667.200000
2196.645026	1689.800000
2198.266088	1670.000000
2199.886833	1691.400000
2201.508942	1697.600000
2203.129054	1733.200000
2204.747170	1697.800000
2206.364970	1714.000000
2207.982455	1653.600000
2209.599624	1657.800000
2211.216478	1709.600000
2212.833016	1679.600000
2214.447562	1688.800000
2216.060115	1681.400000
2217.674032	1749.000000
2219.285958	1727.200000
2220.899247	1658.200000
2222.510546	1755.000000
2224.119855	1691.800000
2225.730528	1677.800000
2227.339212	1720.200000
2228.947583	1685.600000
2230.553968	1661.400000
2232.161715	1722.600000
2233.767477	1715.800000
2235.372927	1754.600000
2236.976392	1677.400000
2238.581220	1732.400000
2240.184064	1775.200000
2241.784925	1692.000000
2243.387149	1723.600000
2244.987391	1767.200000
2246.588995	1711.200000
2248.186946	1786.400000
2249.786260	1772.600000
2251.383594	1818.200000
2252.980620	1724.600000
2254.579008	1779.600000
2256.173747	1765.600000
2257.766509	1722.000000
2259.360634	1801.800000
2260.956120	1717.200000
2262.547961	1723.200000
2264.139496	1733.800000
2265.732393	1727.600000
2267.319980	1787.600000
2268.912263	1739.800000
2270.499240	1822.800000
2272.089244	1760.400000
2273.673944	1736.200000
2275.263338	1795.000000
2276.847430	1754.200000
2278.432882	1745.600000
2280.016366	1754.800000
2281.602875	1694.800000
2283.185751	1748.800000
2284.768324	1742.600000
2286.350593	1780.200000
2287.929232	1750.600000
2289.510896	1686.600000
2291.088931	1743.800000
2292.669989	1699.000000
2294.247420	1711.100000
2295.822888	1723.200000
2297.401378	1725.200000
2298.976244	1707.600000
2300.550809	1732.000000
2302.125073	1683.200000
2303.699038	1738.400000
2305.272701	1709.200000
2306.846065	1722.800000
2308.415810	1714.800000
2309.985256	1734.200000
2311.557720	1721.400000
2313.124910	1748.200000
2314.695118	1703.000000
2316.261711	1709.000000
2317.829664	1733.600000
2319.395661	1739.800000
2320.961361	1725.000000
2322.526763	1755.000000
2324.090212	1700.800000
2325.655020	1764.400000
2327.216220	1759.600000
2328.780434	1731.200000
2330.339386	1772.200000
2331.901352	1731.800000
2333.461368	1792.600000
2335.021089	1701.600000
2336.578860	1804.800000
2338.136336	1763.200000
2339.693518	1764.000000
2341.248752	1757.200000
2342.803693	1810.000000
2344.358339	1773.800000
2345.912692	1764.200000
2347.466751	1787.800000
2349.020517	1820.000000
2350.572338	1751.200000
2352.122217	1792.200000
2353.675103	1783.200000
2355.222746	1735.200000
2356.773398	1750.600000
2358.320458	1767.800000
2359.868876	1788.600000
2361.417003	1797.000000
2362.961541	1751.200000
2364.507437	1724.200000
2366.051395	1747.000000
2367.596709	1754.600000
2369.138440	1779.000000
2370.681527	1775.800000
2372.222678	1793.800000
2373.763540	1793.600000
2375.304113	1777.200000
2376.844397	1768.800000
2378.384392	1773.400000
2379.920809	1806.600000
2381.460227	1754.600000
2382.996067	1816.600000
2384.533265	1811.000000
2386.066887	1786.400000
2387.603509	1778.000000
2389.138201	1772.800000
2390.670963	1765.600000
2392.203438	1795.000000
2393.733985	1824.200000
2395.267530	1782.800000
2396.795864	1760.600000
2398.325554	1807.600000
2399.854959	1777.200000
2401.384079	1812.200000
2402.912913	1794.000000
2404.436543	1807.200000
2405.964808	1786.800000
2407.487871	1858.200000
2409.015567	1817.400000
2410.536424	1780.200000
2412.061913	1853.800000
2413.583843	1779.000000
2415.107127	1819.000000
2416.628491	1850.400000
2418.147935	1817.200000
2419.668734	1858.200000
2421.187614	1865.800000
2422.706213	1808.200000
2424.222894	1814.000000
2425.740929	1869.400000
2427.258683	1830.200000
2428.772885	1864.400000
2430.286808	1868.000000
2431.800450	1828.600000
2433.315447	1844.800000
2434.826895	1822.800000
2436.339697	1882.800000
2437.850587	1869.200000
2439.361198	1870.200000
2440.869897	1855.000000
2442.381582	1880.200000
2443.889724	1839.000000
2445.397588	1884.400000
2446.905174	1871.200000
2448.409219	1898.000000
2449.916249	1873.400000
2451.421371	1942.600000
2452.926216	1924.800000
2454.429154	1974.600000
2455.931816	1933.800000
2457.434201	1944.600000
2458.934681	1984.000000
2460.436514	1897.600000
2461.936442	1922.400000
2463.436095	1924.200000
2464.935473	1944.000000
2466.432948	1961.200000
2467.928521	1924.400000
2469.427074	1959.800000
2470.922099	1934.000000
2472.418476	1946.200000
2473.911327	1946.200000
2475.405531	1943.000000
2476.899461	1908.400000
2478.389867	1931.800000
2479.883251	1926.600000
2481.374737	1922.600000
2482.864326	1931.400000
2484.353643	1945.400000
2485.841064	1920.400000
2487.331461	1962.800000
2488.818340	1946.000000
2490.306570	1927.400000
2491.791283	1945.800000
2493.275727	1913.400000
2494.761521	1921.400000
2496.245424	1928.200000
2497.730677	1901.200000
2499.210797	1920.000000
2500.693890	1914.200000
2502.175092	1903.800000
2503.656025	1956.400000
2505.135069	1959.400000
2506.613844	1894.400000
2508.092351	1881.400000
2509.570590	1897.000000
2511.048560	1887.600000
2512.523025	1877.200000
2514.000460	1899.400000
2515.474391	1924.000000
2516.949672	1882.000000
2518.424686	1868.200000
2519.896199	1889.400000
2521.369063	1945.400000
2522.840044	1938.200000
2524.312375	1894.200000
2525.779592	1870.200000
2527.249776	1886.400000
2528.718079	1865.600000
2530.186117	1904.200000
2531.653890	1921.800000
2533.121398	1902.800000
2534.588641	1898.600000
2536.052392	1903.200000
2537.517493	1909.600000
2538.980717	1930.200000
2540.445290	1902.200000
2541.906375	1988.400000
2543.368809	1918.800000
2544.830980	1929.800000
2546.289665	1892.400000
2547.752921	1923.600000
2549.211082	1924.000000
2550.670591	1869.600000
2552.125006	1953.400000
2553.583992	1914.600000
2555.041106	1928.000000
2556.496348	1847.600000
2557.951330	1922.400000
2559.404443	1953.400000
2560.858903	1925.000000
2562.311495	1928.400000
2563.763827	1920.200000
2565.214292	1970.000000
2566.667712	1930.000000
2568.116050	1909.800000
2569.567343	1928.400000
2571.016771	2014.000000
2572.462726	1932.600000
2573.911636	1939.600000
2575.357076	1962.600000
2576.803863	1930.400000
2578.248787	1939.600000
2579.693454	2006.000000
2581.139468	1976.600000
2582.582016	2001.600000
2584.025911	2031.400000
2585.466340	2005.000000
2586.908118	2036.000000
2588.348036	2002.200000
2589.789301	1949.400000
2591.227104	1991.800000
2592.667857	2024.600000
2594.103548	1995.600000
2595.542188	2063.200000
2596.978970	2031.800000
2598.413897	2008.400000
2599.851771	2043.200000
2601.284588	2036.000000
2602.718752	1986.000000
2604.151062	2072.800000
2605.584718	2030.000000
2607.016521	2009.400000
2608.448070	2047.400000
2609.879367	2024.800000
2611.308811	1990.200000
2612.738003	2049.000000
2614.165345	2038.800000
2615.594032	2038.600000
2617.022468	2106.800000
2618.447456	2092.400000
2619.873791	2048.400000
2621.298277	2076.400000
2622.724109	2083.800000
2624.146497	2094.400000
2625.570231	2044.200000
2626.992118	2114.600000
2628.413756	2067.600000
2629.833548	2048.000000
2631.254686	2068.400000
2632.675574	2051.400000
2634.093023	2077.600000
2635.513413	2096.800000
2636.930365	2100.400000
2638.347068	2113.800000
2639.763523	2099.400000
2641.179730	2100.000000
2642.595689	2122.800000
2644.009807	2126.400000
2645.423677	2145.600000
2646.835709	2109.600000
2648.249084	2126.200000
2649.659030	2096.800000
2651.071912	2061.800000
2652.481365	2135.200000
2653.890572	2191.400000
2655.297943	2087.600000
2656.708248	2031.000000
2658.116718	2134.800000
2659.523352	2132.400000
2660.929741	2129.800000
2662.334296	2149.800000
2663.740195	2109.000000
2665.144261	2208.800000
2666.548082	2142.400000
2667.951659	2169.000000
2669.353405	2164.200000
2670.756494	2117.000000
2672.156165	2102.000000
2673.557180	2107.400000
2674.954779	2110.600000
2676.355307	2132.800000
2677.752421	2094.000000
2679.150878	2092.600000
2680.547508	2102.800000
2681.943895	2127.400000
2683.340040	2132.600000
2684.734359	2132.200000
2686.130021	2139.400000
2687.522274	2112.600000
2688.915869	2100.200000
2690.307640	2104.800000
2691.700754	2110.000000
2693.092044	2125.800000
2694.481511	2158.600000
2695.870738	2121.000000
2697.259726	2153.000000
2698.650055	2141.600000
2700.035401	2136.200000
2701.423670	2182.200000
2702.810119	2066.600000
2704.196329	2102.000000
2705.582300	2116.400000
2706.964873	2175.200000
2708.348788	2113.800000
2709.732465	2139.200000
2711.115903	2136.400000
2712.495946	2183.000000
2713.877331	2189.600000
2715.256901	2151.800000
2716.637811	2144.000000
2718.016907	2206.800000
2719.394189	2145.600000
2720.772812	2191.800000
2722.149621	2195.400000
2723.526195	2225.600000
2724.902533	2212.200000
2726.277060	2238.200000
2727.652927	2223.600000
2729.025407	2211.800000
2730.400803	2272.800000
2731.771239	2261.200000
2733.143016	2175.400000
2734.514558	2261.400000
2735.884292	2209.800000
2737.255367	2268.600000
2738.624633	2294.200000
2739.993666	2281.600000
2741.360893	2290.800000
2742.727886	2265.600000
2744.094647	2211.600000
2745.461176	2243.000000
2746.825899	2271.800000
2748.190390	2304.400000
2749.554650	2332.200000
2750.918677	2308.600000
2752.282473	2289.400000
2753.642895	2306.400000
2755.006227	2302.800000
2756.364617	2317.200000
2757.725917	2340.000000
2759.083847	2342.400000
2760.444685	2308.200000
2761.803724	2272.800000
2763.159394	2365.200000
2764.517972	2364.200000
2765.873183	2321.800000
2767.228165	2290.000000
2768.581350	2286.400000
2769.937442	2331.000000
2771.290170	2328.600000
2772.642670	2320.200000
2773.994941	2314.000000
2775.348550	2271.800000
2776.698799	2347.400000
2778.047253	2346.000000
2779.398612	2334.800000
2780.746613	2366.800000
2782.095951	2363.000000
2783.443497	2357.800000
2784.790817	2362.200000
2786.137910	2366.200000
2787.483211	2396.800000
2788.828287	2358.800000
2790.173137	2385.000000
2791.517761	2401.600000
2792.859033	2341.200000
2794.201643	2355.200000
2795.544027	2405.800000
2796.886186	2433.200000
2798.224996	2419.000000
2799.566706	2440.000000
2800.905067	2418.600000
2802.244766	2389.400000
2803.582680	2431.000000
2804.918809	2426.400000
2806.254714	2470.000000
2807.591957	2447.200000
2808.927416	2458.600000
2810.262652	2515.400000
2811.596105	2449.000000
2812.930895	2473.800000
2814.262345	2487.800000
2815.596690	2486.000000
2816.926137	2437.800000
2818.256920	2517.000000
2819.587483	2462.000000
2820.916266	2470.800000
2822.246385	2530.000000
2823.574726	2484.200000
2824.902846	2471.800000
2826.229188	2479.600000
2827.556867	2515.400000
2828.881212	2519.000000
2830.206894	2493.000000
2831.530800	2467.200000
2832.854486	2495.400000
2834.179509	2479.800000
2835.501201	2470.200000
2836.822675	2531.400000
2838.143930	2498.200000
2839.464966	2495.400000
2840.784229	2521.000000
2842.104828	2538.000000
2843.423656	2445.200000
2844.742265	2539.800000
2846.059103	2531.600000
2847.375724	2525.600000
2848.692128	2479.600000
2850.006762	2467.800000
2851.322732	2481.400000
2852.635381	2601.800000
2853.949365	2549.000000
2855.263133	2518.800000
2856.576684	2510.400000
2857.888469	2472.800000
2859.198487	2546.200000
2860.509840	2501.000000
2861.817878	2560.400000
2863.127250	2546.800000
2864.436408	2537.800000
2865.745350	2483.600000
2867.052528	2574.000000
2868.357944	2576.800000
2869.664693	2561.200000
2870.969681	2547.800000
2872.274454	2515.800000
2873.577467	2555.200000
2874.883360	2560.000000
2876.184399	2579.600000
2877.486772	2560.200000
2878.787385	2587.800000
2880.089332	2541.000000
2881.391065	2596.200000
2882.689495	2574.000000
2883.989258	2535.000000
2885.287264	2540.200000
2886.585058	2520.600000
2887.881096	2568.200000
2889.178467	2591.000000
2890.474082	2582.000000
2891.769486	2582.600000
2893.064679	2559.600000
2894.356575	2614.000000
2895.651347	2552.000000
2896.942822	2564.600000
2898.235630	2526.000000
2899.528228	2577.400000
2900.817532	2555.000000
2902.108168	2570.000000
2903.397053	2606.600000
2904.687270	2531.400000
2905.974196	2564.600000
2907.262454	2614.600000
2908.548963	2572.200000
2909.835263	2578.000000
2911.121356	2604.200000
2912.405700	2568.000000
2913.692915	2545.600000
2914.975304	2558.200000
2916.259025	2568.800000
2917.541000	2591.600000
2918.822767	2564.600000
2920.102789	2570.800000
2921.385682	2610.200000
2922.666829	2562.000000
2923.944694	2557.400000
2925.225428	2575.400000
2926.502881	2550.800000
2927.780128	2547.400000
2929.055633	2514.400000
2930.334006	2533.200000
2931.607565	2488.400000
2932.883991	2552.800000
2934.158676	2556.200000
2935.431620	2575.600000
2936.705896	2526.800000
2937.978432	2540.600000
2939.250763	2527.600000
2940.519822	2522.200000
2941.791746	2504.000000
2943.061932	2524.800000
2944.331914	2518.000000
2945.601693	2512.800000
2946.869736	2531.600000
2948.136042	2602.400000
2949.402147	2536.600000
2950.669581	2559.000000
2951.935280	2503.400000
2953.200778	2514.800000
2954.466073	2556.400000
2955.728103	2520.800000
2956.991463	2556.600000
2958.254622	2540.800000
2959.516049	2545.000000
2960.778805	2459.200000
2962.039829	2500.600000
2963.299123	2538.000000
2964.558217	2540.000000
2965.817110	2575.200000
2967.075803	2552.400000
2968.334296	2528.600000
2969.591060	2542.600000
2970.847624	2581.600000
2972.102460	2571.400000
2973.358626	2580.400000
2974.611537	2585.600000
2975.865777	2590.000000
2977.119817	2577.000000
2978.372132	2563.000000
2979.624249	2593.000000
2980.874641	2591.400000
2982.127888	2613.400000
2983.376358	2572.200000
2984.627683	2637.400000
2985.875758	2620.800000
2987.123636	2605.000000
2988.371318	2610.600000
2989.618802	2673.400000
2990.864565	2621.800000
2992.110132	2678.800000
2993.357026	2614.600000
2994.600676	2582.800000
2995.845654	2643.000000
2997.087388	2661.000000
2998.331974	2660.800000
2999.574841	2661.200000
3000.814467	2635.400000
3002.056943	2659.200000
3003.296179	2661.800000
3004.536743	2709.000000
3005.775590	2671.400000
3007.014243	2689.400000
3008.251180	2641.200000
3009.489445	2672.000000
3010.725994	2696.800000
3011.962350	2655.200000
3013.198512	2681.000000
3014.432960	2663.600000
3015.667216	2712.000000
3016.901278	2669.800000
3018.133627	2662.800000
3019.364266	2732.200000
3020.597750	2723.200000
3021.829522	2724.200000
3023.059584	2691.400000
3024.289453	2722.800000
3025.517613	2716.400000
3026.747100	2708.200000
3027.974877	2728.000000
3029.202463	2701.200000
3030.431375	2749.000000
3031.655546	2704.400000
3032.882559	2741.800000
3034.106348	2700.000000
3035.331464	2743.000000
3036.554873	2717.800000
3037.778092	2759.400000
3038.999606	2750.800000
3040.223961	2791.800000
3041.443581	2767.600000
3042.664527	2728.800000
3043.885284	2796.000000
3045.104337	2772.400000
3046.324715	2771.400000
3047.541877	2837.400000
3048.760365	2757.400000
3049.977150	2841.200000
3051.193748	2844.800000
3052.410157	2842.200000
3053.623353	2818.400000
3054.839388	2880.000000
3056.052210	2837.200000
3057.267869	2828.400000
3058.478805	2869.200000
3059.691066	2857.400000
3060.903140	2836.200000
3062.115028	2791.400000
3063.325219	2870.800000
3064.535223	2905.400000
3065.745041	2893.000000
3066.953163	2884.000000
3068.161100	2852.600000
3069.367341	2897.200000
3070.574907	2926.200000
3071.780778	2935.600000
3072.986465	2945.000000
3074.191966	2946.200000
3075.395774	3000.200000
3076.600906	2971.000000
3077.804345	2995.400000
3079.006093	2948.400000
3080.207656	2976.000000
3081.409036	2960.000000
3082.610232	3003.400000
3083.809738	2970.800000
3085.009061	3002.000000
3086.209707	3011.400000
3087.408663	2977.000000
3088.604425	3000.200000
3089.803016	2977.000000
3090.998413	2982.000000
3092.195133	2984.400000
3093.388661	2995.200000
3094.585017	3003.600000
3095.779686	2960.600000
3096.971165	3040.200000
3098.166976	3023.400000
3099.358092	3001.800000
3100.550532	3078.800000
3101.739784	3005.400000
3102.931861	3020.800000
3104.122255	3043.600000
3105.309463	3045.800000
3106.497993	3066.600000
3107.687846	3057.400000
3108.874515	3069.400000
3110.061003	3122.400000
3111.247313	3030.800000
3112.434944	3082.800000
3113.619393	3085.400000
3114.802163	3061.800000
3115.987755	3048.400000
3117.171668	3027.000000
3118.353902	3056.200000
3119.535957	3102.200000
3120.717834	3096.800000
3121.899533	3099.800000
3123.079555	3022.200000
3124.257900	3029.800000
3125.439065	3119.200000
3126.617055	3130.600000
3127.794868	3142.400000
3128.972504	3103.400000
3130.148466	3085.200000
3131.324250	3114.800000
3132.501356	3105.000000
3133.676787	3044.200000
3134.850545	3089.600000
3136.022630	3086.200000
3137.196037	3067.800000
3138.369267	3103.800000
3139.540826	3108.200000
3140.713705	3091.800000
3141.883417	3128.400000
3143.054450	3125.600000
3144.223813	3140.400000
3145.391505	3151.000000
3146.562013	3149.000000
3147.727863	3141.600000
3148.898021	3070.800000
3150.063523	3113.400000
3151.228850	3158.600000
3152.394004	3175.600000
3153.558985	3086.600000
3154.725285	3164.200000
3155.886933	3166.200000
3157.049900	3060.400000
3158.212695	3117.200000
3159.375317	3096.600000
3160.536273	3057.600000
3161.697058	3081.200000
3162.857670	3070.000000
3164.016618	3093.400000
3165.175395	3133.200000
3166.333999	3087.200000
3167.492432	3040.200000
3168.650694	3115.000000
3169.807293	3136.600000
3170.962231	3045.000000
3172.118488	3069.000000
3173.273084	3081.200000
3174.427510	3097.000000
3175.580276	3077.200000
3176.732871	3092.600000
3177.885297	3049.600000
3179.037553	3095.200000
3180.189638	3075.200000
3181.338577	3075.400000
3182.490324	3113.800000
3183.640412	3105.400000
3184.788844	3165.600000
3185.937106	3108.400000
3187.085200	3160.800000
3188.233125	3140.200000
3189.379394	3113.400000
3190.525495	3154.400000
3191.669942	3172.800000
3192.814221	3274.000000
3193.958332	3247.000000
3195.103760	3222.600000
3196.246050	3211.200000
3197.388173	3243.200000
3198.530128	3216.200000
3199.671916	3211.600000
3200.813537	3249.000000
3201.952023	3244.600000
3203.091826	3205.400000
3204.232946	3280.000000
3205.370933	3264.200000
3206.507270	3237.400000
3207.643441	3280.200000
3208.780929	3240.600000
3209.916769	3279.800000
3211.053926	3226.200000
3212.186470	3235.000000
3213.323296	3238.600000
3214.455510	3234.600000
3215.589041	3230.800000
3216.722408	3186.600000
3217.852647	3260.600000
3218.985684	3225.000000
3220.115595	3241.800000
3221.246822	3185.200000
3222.374925	3292.200000
3223.505824	3218.800000
3224.635079	3181.600000
3225.762691	3241.400000
3226.887180	3202.400000
3228.015945	3266.200000
3229.141588	3258.600000
3230.267069	3182.000000
3231.390907	3212.400000
3232.517541	3258.600000
3233.639577	3228.400000
3234.762929	3253.200000
3235.886119	3261.200000
3237.009146	3260.800000
3238.130535	3250.800000
3239.251761	3214.400000
3240.371350	3249.000000
3241.490777	3183.200000
3242.608566	3202.400000
3243.729147	3199.800000
3244.846615	3266.400000
3245.963922	3310.200000
3247.081069	3286.000000
3248.196579	3295.400000
3249.313405	3239.200000
3250.427121	3256.800000
3251.543626	3307.200000
3252.658497	3321.400000
3253.770258	3350.800000
3254.881861	3322.400000
3255.994779	3347.400000
3257.107537	3336.000000
3258.217189	3243.600000
3259.328156	3308.400000
3260.438964	3302.200000
3261.548140	3345.600000
3262.655685	3322.000000
3263.764545	3307.200000
3264.873247	3328.200000
3265.978846	3372.800000
3267.085759	3320.000000
3268.191043	3350.800000
3269.297641	3383.200000
3270.401139	3311.400000
3271.505952	3374.600000
3272.610606	3253.000000
3273.712163	3379.000000
3274.813563	3354.400000
3275.916277	3408.200000
3277.018835	3406.600000
3278.118296	3442.000000
3279.220541	3394.400000
3280.319690	3422.000000
3281.417215	3410.000000
3282.514584	3426.000000
3283.614735	3417.800000
3284.711794	3369.000000
3285.808697	3472.400000
3286.905445	3435.600000
3287.997634	3416.600000
3289.094073	3384.200000
3290.188889	3384.000000
3291.283551	3458.800000
3292.376591	3427.800000
3293.469476	3498.800000
3294.560741	3409.400000
3295.653319	3385.000000
3296.744277	3469.000000
3297.833615	3431.600000
3298.922800	3430.200000
3300.013298	3431.200000
3301.100711	3462.400000
3302.187971	3440.000000
3303.276544	3371.000000
3304.364964	3511.800000
3305.448838	3399.600000
3306.536953	3516.400000
3307.621986	3527.000000
3308.705404	3529.000000
3309.790134	3532.800000
3310.873248	3553.800000
3311.957675	3496.400000
3313.039023	3533.000000
3314.121683	3566.000000
3315.202729	3508.600000
3316.283624	3662.400000
3317.362905	3536.400000
3318.442036	3577.000000
3319.522479	3572.400000
3320.599847	3525.800000
3321.678527	3502.200000
3322.755595	3532.000000
3323.832514	3567.800000
3324.907821	3566.800000
3325.982979	3579.000000
3327.059448	3610.200000
3328.132847	3553.000000
3329.206096	3557.200000
3330.280657	3583.000000
3331.353609	3619.600000
3332.424952	3596.600000
3333.497606	3612.000000
3334.567194	3527.600000
3335.638092	3600.600000
3336.707383	3589.400000
3337.777985	3530.600000
3338.846980	3580.200000
3339.914369	3556.600000
3340.980153	3596.000000
3342.050163	3539.600000
3343.117110	3613.600000
3344.180995	3504.200000
3345.247647	3572.800000
3346.312696	3499.600000
3347.376141	3635.200000
3348.439440	3619.000000
3349.502592	3539.800000
3350.565598	3558.800000
3351.628458	3562.600000
3352.689716	3577.400000
3353.747917	3628.000000
3354.810338	3545.000000
3355.869704	3613.800000
3356.928924	3585.000000
3357.989453	3568.800000
3359.045474	3591.600000
3360.104258	3630.200000
3361.158535	3681.000000
3362.215576	3674.000000
3363.271018	3667.200000
3364.327770	3683.800000
3365.382923	3677.800000
3366.436479	3675.000000
3367.488439	3670.200000
3368.543160	3687.200000
3369.594832	3730.000000
3370.646361	3659.000000
3371.699198	3725.400000
3372.748988	3697.800000
3373.800087	3706.000000
3374.848140	3716.000000
3375.898952	3730.000000
3376.946720	3686.000000
3377.994344	3770.400000
3379.041827	3709.200000
3380.087717	3737.800000
3381.134915	3672.200000
3382.179071	3767.000000
3383.225985	3744.800000
3384.271307	3798.200000
3385.313588	3824.800000
3386.355728	3799.400000
3387.399177	3793.600000
3388.442484	3787.800000
3389.484201	3767.800000
3390.525778	3811.200000
3391.567213	3786.200000
3392.607060	3803.400000
3393.645318	3779.200000
3394.684884	3867.400000
3395.724310	3859.400000
3396.762148	3820.600000
3397.798399	3865.400000
3398.834511	3855.400000
3399.871930	3870.000000
3400.906316	3837.600000
3401.942009	3831.200000
3402.977563	3869.400000
3404.010086	3920.600000
3405.045362	3884.600000
3406.077607	3871.000000
3407.109714	3874.800000
3408.140237	3924.600000
3409.172067	3819.000000
3410.203759	3912.200000
3411.232423	3913.000000
3412.260950	3974.400000
3413.290783	3901.200000
3414.320479	3930.400000
3415.347149	3875.200000
3416.375125	3960.800000
3417.400078	3924.800000
3418.427780	4013.600000
3419.452459	3995.400000
3420.478444	3972.400000
3421.502849	4022.800000
3422.527118	3991.800000
3423.549808	4001.000000
3424.572362	3982.600000
3425.596222	4026.600000
3426.617062	4063.400000
3427.637766	3946.600000
3428.659777	3990.000000
3429.678769	3915.800000
3430.697625	4050.000000
3431.717788	3959.600000
3432.734934	4007.000000
