-118.702670	-16.591209
-116.033069	-0.200000
-113.366404	9.411389
-110.700491	13.490509
-108.037511	13.284915
-105.373100	10.042158
-102.711620	5.009790
-100.048711	1.876923
-97.390908	-3.918881
-94.731676	-4.619580
-92.073192	-4.755245
-89.417633	-2.830769
-86.760644	-3.862937
-84.108754	0.825175
-81.455434	4.563636
-78.805033	6.467133
-76.153204	7.253147
-73.506465	7.918881
-70.858296	6.418182
-68.210870	7.499301
-65.566359	1.748252
-62.920418	2.518881
-60.279559	-1.271329
-57.637271	-4.888112
-54.997892	-9.488112
-52.357084	-8.348252
-49.717015	-7.218182
-47.082020	-5.805594
-44.445595	-1.755245
-41.812073	-0.194406
-39.177123	4.037762
-36.547239	9.241958
-33.913761	14.239161
-31.285346	16.809790
-28.657665	12.727273
-26.028555	3.788811
-23.404503	-15.608392
-20.776860	-66.535664
-18.154272	-148.275524
-15.532414	-140.693706
-12.911287	178.903497
-10.290891	729.995804
-7.673382	1199.103497
-5.054445	1524.309091
-2.438394	1705.401399
0.176930	1732.841958
2.791525	1618.027972
5.403239	1358.373427
8.016381	971.237762
10.624489	484.665734
13.236178	13.391608
15.842837	-241.634965
18.450925	-175.523077
21.058287	-21.820979
23.660625	8.365035
26.266542	8.848951
28.867436	9.260140
31.469758	5.517483
34.067062	5.683916
36.667943	3.149650
39.263808	2.806993
41.861101	-1.928671
44.457675	-7.815385
47.049240	-6.678322
49.642234	-3.118881
52.232366	-1.502098
54.823925	1.546853
57.412626	-0.005594
60.002753	0.760839
62.587881	5.138462
65.174437	5.448951
67.760278	3.492308
70.343266	2.930070
72.927681	0.876923
75.504967	-1.006993
78.085818	-0.444755
80.663822	-1.299301
83.241114	-8.406993
85.819834	-9.972028
88.393571	-8.387413
90.968735	-5.012587
93.541056	1.037762
96.112670	4.269930
98.681443	5.619580
101.251643	8.924476
103.819004	9.402797
106.387792	10.461538
108.953743	10.932867
111.516859	11.655944
114.083531	8.955245
116.640981	12.460140
119.204117	14.320280
121.762294	18.311888
124.324025	25.661538
126.880799	35.767832
129.438999	50.688112
131.992247	73.099301
134.544797	101.342657
137.100897	133.727273
139.652049	171.278322
142.202504	208.513287
144.752261	243.349650
147.299199	272.064336
149.845442	293.483916
152.393110	311.067133
154.940082	318.558042
157.482118	319.946853
160.023462	319.027972
162.564112	313.394406
165.106187	308.893706
167.645452	303.686713
170.181907	300.025175
172.717672	294.057343
175.254862	297.773427
177.791361	294.848951
180.325054	294.892308
182.855943	298.906294
185.386144	301.518881
187.917771	301.380420
190.446596	296.986014
192.972622	293.029371
195.497962	291.215385
198.024727	286.746853
200.548696	281.861538
203.071979	276.460140
205.594578	281.648951
208.114384	275.637762
210.633507	276.917483
213.151947	278.620979
215.671812	279.749650
218.184674	279.995804
220.701068	278.976224
223.216781	278.215385
225.727603	277.390210
228.239850	273.993007
230.749314	272.619580
233.258100	271.622378
235.766208	273.001399
238.275740	266.739860
240.780391	268.819580
243.284366	266.590210
245.789765	268.081119
248.290289	270.272727
250.794336	275.176224
253.291413	277.110490
255.792012	278.752448
258.289840	283.542657
260.786995	289.804196
263.283478	298.619580
265.775097	312.570629
268.270236	323.328671
270.762608	341.400000
273.254310	357.205594
275.743249	365.897902
278.233611	364.581818
280.721212	348.869930
283.206053	345.205594
285.694409	488.092308
288.175825	920.667133
290.660755	1576.668531
293.140839	2233.841958
295.624436	2736.362238
298.103191	3040.076923
300.583368	3115.552448
303.060794	2964.925874
305.537556	2594.002797
308.013654	2047.318881
310.487004	1395.793007
312.959693	778.309091
315.431720	383.746853
317.903085	289.837762
320.371707	336.993007
322.839669	367.467133
325.309054	363.914685
327.773616	361.072727
330.241682	344.097902
332.704927	334.324476
335.167516	326.765035
337.629448	325.113287
340.090723	332.762238
342.549263	334.506294
345.009226	341.128671
347.466457	343.440559
349.923033	335.744056
352.378955	332.551049
354.832147	330.176224
357.286762	331.032168
359.736575	325.994406
362.189884	320.461538
364.638394	315.937063
367.086254	313.779021
369.535536	311.025175
371.980023	303.869930
374.425933	302.917483
376.871194	295.609790
379.313736	288.111888
381.755630	282.584615
384.196876	281.555245
386.635408	279.563636
389.075360	276.233566
391.512599	276.885315
393.947127	278.906294
396.385141	283.146853
398.818380	280.165035
401.253039	279.395804
403.682926	282.173427
406.116298	283.997203
408.544900	281.413986
410.972860	281.468531
413.402241	280.060140
415.826858	280.362238
418.252895	284.209790
420.678293	288.678322
423.103050	292.220979
425.523048	293.962238
427.944468	293.987413
430.363192	294.644755
432.783335	295.605594
435.200784	293.193007
437.619654	289.314685
440.035829	287.341259
442.447258	286.766434
444.862163	291.289510
447.274378	290.065734
449.685960	294.204196
452.096907	295.717483
454.505167	299.220979
456.912796	301.372028
459.319792	303.545455
461.726157	302.903497
464.129839	295.925874
466.532891	293.706294
468.935313	289.956643
471.337105	285.416783
473.736219	284.423776
476.136753	278.503497
478.536658	280.928671
480.931841	280.779021
483.330489	283.023776
485.724418	276.447552
488.117721	274.255944
490.510399	265.323077
492.902451	255.241958
495.295921	249.241958
497.684679	240.227972
500.070771	229.609790
502.458283	222.062937
504.845172	214.496503
507.229396	215.760839
509.615040	214.632168
511.998022	214.125874
514.378342	213.627972
516.760083	213.388811
519.139164	209.272727
521.519663	202.408392
523.897506	197.657343
526.272692	193.784615
528.647261	190.925874
531.023249	186.248951
533.396584	188.107692
535.771336	196.359441
538.141402	200.188811
540.510854	208.711888
542.881723	212.697902
545.247911	215.981818
547.615518	218.187413
549.980479	213.006993
552.344828	216.019580
554.708563	217.493706
557.073716	215.464336
559.434197	214.513287
561.796095	215.893706
564.155354	220.651748
566.511974	220.724476
568.872040	216.324476
571.225414	212.465734
573.582233	213.995804
575.936417	216.558042
578.289992	210.857343
580.642960	212.074126
582.993295	212.900699
585.345048	211.697902
587.690124	215.409790
590.040663	214.850350
592.384530	212.717483
594.733858	205.780420
597.078537	196.317483
599.420592	195.320280
601.764064	192.271329
604.104913	187.767832
606.445159	176.398601
608.782785	171.980420
611.123846	167.879720
613.460270	166.781818
615.798110	163.460140
618.133333	158.651748
620.465939	154.387413
622.799963	152.744056
625.131372	151.955245
627.462183	153.689510
629.792396	152.602797
632.122012	150.854545
634.447004	144.416783
636.777438	146.780420
639.103251	144.534266
641.426456	147.897902
643.751078	141.605594
646.073094	141.910490
648.394516	144.590210
650.713335	145.904895
653.033571	145.479720
655.353212	147.815385
657.670254	151.205594
659.986703	153.674126
662.300554	152.960839
664.615821	155.953846
666.928491	154.202797
669.242576	153.313287
671.552061	146.527273
673.862962	144.535664
676.171270	143.137063
678.478989	140.690909
680.788124	138.690909
683.092666	138.604196
685.396622	138.406993
687.699991	140.467133
690.004776	142.945455
692.304973	139.479720
694.606586	140.641958
696.907613	136.233566
699.204059	136.047552
701.501920	133.159441
703.799197	133.142657
706.095891	131.562238
708.388009	129.251748
710.683538	131.683916
712.974493	134.413986
715.266863	137.986014
717.556657	141.151049
719.845872	141.688112
722.134507	148.046154
724.420569	149.103497
726.708045	151.760839
728.992951	149.085315
731.277279	148.780420
733.559038	145.202797
735.842211	142.548252
738.124807	141.184615
740.402847	139.363636
742.682301	138.553846
744.961180	140.288112
747.239484	140.769231
749.513237	143.895105
751.788405	139.732867
754.062999	138.644755
756.335034	138.190210
758.608482	140.748252
760.879372	145.004196
763.147706	145.647552
765.417453	149.625175
767.684645	154.758042
769.951268	157.918881
772.217320	155.331469
774.480821	152.678322
776.745734	151.271329
779.010079	146.346853
781.269893	147.141259
783.531121	144.081119
785.791781	146.627972
788.049895	148.864336
790.305464	147.524476
792.564423	150.560839
794.816884	149.054545
797.074712	145.502098
799.328021	145.054545
801.578790	146.570629
803.830971	145.141259
806.080613	144.047552
808.331667	143.763636
810.578210	144.805594
812.826166	145.279720
815.071586	142.416783
817.318419	143.335664
819.564689	140.627972
821.806456	143.167832
824.051605	145.513287
826.290283	149.737063
828.532342	152.488112
830.769903	153.513287
833.008876	152.008392
835.245322	149.888112
837.483179	146.320280
839.718511	140.029371
841.951320	138.462937
844.185539	137.581818
846.417237	130.471329
848.648380	129.351049
850.878968	131.248951
853.109002	132.932867
855.338481	136.222378
857.563480	142.486713
859.791852	139.573427
862.015746	139.513287
864.241051	136.531469
866.461880	140.724476
868.686081	144.317483
870.905809	141.023776
873.126947	138.461538
875.347535	143.748252
877.565614	145.053147
879.785102	145.372028
882.000124	144.983217
884.214598	148.548252
886.428525	146.632168
888.641904	149.658741
890.854737	146.813986
893.067022	146.158042
895.276806	139.855944
897.486044	137.062937
899.694737	137.050350
901.900930	136.991608
904.108533	128.022378
906.313639	126.520280
908.518201	125.646154
910.720268	129.177622
912.923744	133.475524
915.124726	137.202797
917.325166	136.808392
919.527015	136.695105
921.722473	136.009790
923.921289	138.109091
926.115668	137.977622
928.313404	139.169231
930.506704	137.216783
932.701413	138.556643
934.893635	140.475524
937.085320	138.497902
939.276467	139.951049
941.465131	138.330070
943.653259	138.542657
945.838905	138.020979
948.027905	141.744056
950.212480	143.478322
952.396521	146.079720
954.583913	151.130070
956.763000	149.483916
958.945438	151.405594
961.127342	156.013986
963.306771	157.261538
965.483728	162.767832
967.662093	163.290909
969.841865	166.064336
972.015288	165.083916
974.192057	170.461538
976.364419	169.423776
978.538189	165.987413
980.707555	161.593007
982.880265	157.746853
985.050510	159.215385
987.220225	161.110490
989.389412	163.475524
991.554202	164.415385
993.722334	166.172028
995.886070	168.925874
998.051214	169.843357
1000.213898	172.918881
1002.376057	172.595804
1004.535759	168.409790
1006.694936	166.832168
1008.855520	169.517483
1011.013649	167.219580
1013.171255	165.780420
1015.328337	166.702098
1017.484895	165.693706
1019.637074	166.331469
1021.790660	169.627972
1023.943724	175.517483
1026.094339	177.945455
1028.246360	177.152448
1030.394009	175.888112
1032.544989	179.047552
1034.691598	180.962238
1036.837688	178.485315
1038.983260	182.504895
1041.130237	182.405594
1043.270925	184.727273
1045.414942	188.302098
1047.556520	192.728671
1049.697580	195.167832
1051.840046	193.107692
1053.976231	188.169231
1056.115743	192.064336
1058.250899	193.641958
1060.389380	191.909091
1062.523508	190.288112
1064.657122	194.531469
1066.792140	190.541259
1068.922810	188.535664
1071.054884	187.461538
1073.184528	181.643357
1075.313661	178.672727
1077.442283	175.697902
1079.570393	172.723077
1081.696077	176.018182
1083.821251	177.879720
1085.947829	175.615385
1088.070069	176.678322
1090.193714	176.735664
1092.313024	174.819580
1094.437563	171.062937
1096.555858	171.446154
1098.675556	166.295105
1100.792837	169.013986
1102.909610	165.753846
1105.025877	164.700699
1107.139729	166.474126
1109.254984	169.651748
1111.365917	168.874126
1113.480162	171.662937
1115.590086	171.812587
1117.701413	173.222378
1119.812237	170.345455
1121.918744	170.812587
1124.028560	168.690909
1126.134062	167.439161
1128.240968	160.815385
1130.341658	155.735664
1132.447560	150.709091
1134.549153	150.882517
1136.652148	149.509091
1138.754644	149.594406
1140.850932	151.144056
1142.952427	153.025175
1145.049620	154.948252
1147.146314	157.255944
1149.242511	160.860140
1151.338209	156.809790
1153.433410	156.594406
1155.526214	156.346853
1157.620420	155.458741
1159.708435	157.170629
1161.801648	154.086713
1163.888674	154.744056
1165.978998	155.019580
1168.065034	154.953846
1170.154368	157.951049
1172.237521	161.464336
1174.322077	163.867133
1176.408034	161.588811
1178.489709	162.966434
1180.572785	164.667133
1182.653476	164.144056
1184.733676	158.539860
1186.813384	156.304895
1188.892601	151.836364
1190.969435	149.973427
1193.043889	147.565035
1195.121635	152.376224
1197.195110	154.668531
1199.269987	154.251748
1201.340596	152.223776
1203.412606	152.563636
1205.482240	153.696503
1207.553275	152.597203
1209.623822	147.765035
1211.690109	148.862937
1213.757796	144.062937
1215.823110	146.016783
1217.889825	144.974825
1219.952284	145.980420
1222.018029	144.413986
1224.079519	144.488112
1226.142410	143.525874
1228.202932	144.886713
1230.262972	146.327273
1232.322528	144.193007
1234.379720	141.654545
1236.436429	141.700699
1238.490776	139.639161
1240.548403	138.781818
1242.603668	138.156643
1244.654693	135.300699
1246.707117	133.865734
1248.759061	133.499301
1250.808647	134.514685
1252.857754	139.004196
1254.906382	140.478322
1256.954532	139.137063
1259.002204	142.172028
1261.045645	141.167832
1263.092362	140.907692
1265.136725	137.233566
1267.180611	135.165035
1269.222147	135.260140
1271.261333	138.103497
1273.303792	140.323077
1275.342028	143.225175
1277.381663	145.823776
1279.420822	143.300699
1281.455764	146.404196
1283.492104	150.393007
1285.526100	145.584615
1287.561493	144.090909
1289.592673	138.986014
1291.625252	137.862937
1293.657359	140.655944
1295.687125	145.372028
1297.718288	146.401399
1299.745244	146.793007
1301.773599	148.111888
1303.797748	149.784615
1305.825163	156.724476
1307.848375	159.128671
1309.872985	155.647552
1311.895260	155.372028
1313.918933	151.772028
1315.940273	150.440559
1317.961146	148.868531
1319.981551	147.474126
1321.997763	146.152448
1324.015372	143.619580
1326.030653	141.577622
1328.049193	143.664336
1330.063543	144.676923
1332.075568	145.987413
1334.090851	143.377622
1336.101948	144.707692
1338.114441	143.861538
1340.122752	144.186014
1342.134319	142.786014
1344.139847	140.619580
1346.148630	140.746853
1348.153235	139.138462
1350.161094	139.023776
1352.168491	140.853147
1354.169857	138.116084
1356.172619	139.476923
1358.174922	141.710490
1360.176765	145.669930
1362.178148	149.310490
1364.177217	151.169231
1366.175828	149.718881
1368.173981	146.125874
1370.171676	147.380420
1372.165208	147.068531
1374.160135	144.988811
1376.154606	144.923077
1378.148620	140.797203
1380.140327	141.537063
1382.131578	144.006993
1384.120524	140.552448
1386.110865	145.383217
1388.100752	142.781818
1390.088334	138.690909
1392.075463	138.608392
1394.060290	140.165035
1396.046512	139.772028
1398.030433	141.068531
1400.013902	147.551049
1401.996919	149.661538
1403.977638	152.103497
1405.959751	150.593007
1407.939567	145.275524
1409.918933	148.363636
1411.894160	142.268531
1413.872625	142.254545
1415.848797	145.090909
1417.824519	141.482517
1419.799792	141.239161
1421.772775	145.184615
1423.745309	148.583217
1425.717395	149.342657
1427.689034	149.717483
1429.656544	147.346853
1431.629128	144.910490
1433.593906	145.412587
1435.563757	142.390210
1437.529483	143.272727
1439.496603	146.475524
1441.461439	143.362238
1443.422155	145.583217
1445.387939	145.876923
1447.347768	144.916084
1449.308991	144.951049
1451.271605	146.180420
1453.230105	145.137063
1455.188163	144.826573
1457.145779	144.471329
1459.102952	146.255944
1461.057850	148.546853
1463.014141	149.251748
1464.968157	148.288112
1466.921732	153.946853
1468.873035	153.053147
1470.825730	154.212587
1472.776154	157.106294
1474.726139	159.865734
1476.675685	159.579021
1478.622962	155.097902
1480.567971	153.457343
1482.514373	155.855944
1484.460337	151.952448
1486.405864	147.688112
1488.349125	147.039161
1490.291950	151.395804
1492.232512	150.393007
1494.174466	149.594406
1496.114157	154.034965
1498.053413	156.581818
1499.992235	154.219580
1501.928797	148.717483
1503.866750	151.402797
1505.802444	152.331469
1507.737705	147.029371
1509.670709	148.464336
1511.603281	150.997203
1513.535421	154.672727
1515.467129	154.344056
1517.396584	150.117483
1519.327429	152.427972
1521.257842	151.615385
1523.184183	148.482517
1525.111914	148.790210
1527.037396	147.082517
1528.962448	145.113287
1530.887070	147.525874
1532.811264	152.560839
1534.733211	156.116084
1536.656548	157.739860
1538.577638	155.023776
1540.496484	150.503497
1542.416720	146.917483
1544.334712	144.233566
1546.252278	140.579021
1548.167603	144.306294
1550.084317	144.623776
1551.996975	147.703497
1553.912838	151.632168
1555.826462	156.324476
1557.737847	160.398601
1559.650622	162.920280
1561.559347	160.234965
1563.469461	158.413986
1565.379152	153.518881
1567.288420	151.395804
1569.195453	148.153846
1571.100254	153.793007
1573.006444	152.714685
1574.910403	150.450350
1576.813940	149.009790
1578.717057	150.822378
1580.617944	151.015385
1582.520220	151.370629
1584.420267	149.565035
1586.321703	148.013986
1588.219104	148.051748
1590.116088	146.072727
1592.012653	143.630769
1593.910605	145.246154
1595.802723	144.846154
1597.698035	146.244755
1599.592928	144.579021
1601.485601	147.406993
1603.377856	148.124476
1605.267892	149.040559
1607.157512	148.379021
1609.046717	147.539860
1610.935506	146.627972
1612.822079	144.683916
1614.710039	144.606993
1616.593982	146.090909
1618.479312	148.820979
1620.364229	150.455944
1622.246932	150.102098
1624.131022	152.829371
1626.011100	152.072727
1627.892566	151.204196
1629.771820	149.208392
1631.652462	146.173427
1633.527299	144.910490
1635.407117	146.692308
1637.282930	148.352448
1639.158334	149.423776
1641.035123	149.507692
1642.906115	150.151049
1644.780290	152.538462
1646.650465	149.041958
1648.523821	142.979021
1650.394974	139.128671
1652.263925	137.074126
1654.134262	133.293706
1656.000606	135.090909
1657.868335	138.124476
1659.733865	139.095105
1661.600781	145.962238
1663.463707	145.290909
1665.328020	151.637762
1667.190136	154.102098
1669.051847	152.538462
1670.914943	152.167832
1672.775845	151.783217
1674.634554	150.345455
1676.492859	148.218182
1678.352548	149.573427
1680.206471	149.566434
1682.063567	149.241958
1683.920259	148.398601
1685.772976	141.700699
1687.628864	141.186014
1689.480778	141.934266
1691.332291	147.039161
1693.183403	151.051748
1695.034114	151.412587
1696.884425	151.647552
1698.732552	152.257343
1700.582063	151.422378
1702.425824	149.552448
1704.274536	149.495105
1706.117501	145.900699
1707.963632	143.400000
1709.805802	145.710490
1711.651137	146.777622
1713.490730	149.204196
1715.331709	146.949650
1717.174070	144.639161
1719.012474	141.651748
1720.852262	138.358042
1722.689875	137.805594
1724.527093	139.142657
1726.362137	140.737063
1728.198564	145.923077
1730.032818	148.311888
1731.866679	153.202797
1733.700145	151.531469
1735.529665	154.660140
1737.362345	151.622378
1739.191079	149.660140
1741.022972	145.180420
1742.850922	143.867133
1744.678480	143.418182
1746.505647	139.738462
1748.332422	135.910490
1750.158805	134.577622
1751.981252	134.758042
1753.806854	138.174825
1755.628520	140.485315
1757.451569	146.665734
1759.272457	149.293706
1761.092955	148.956643
1762.914835	149.069930
1764.731015	150.890909
1766.550347	149.418182
1768.365752	147.139860
1770.184308	143.330070
1771.998938	139.493706
1773.813181	137.100699
1775.627038	137.972028
1777.440508	140.530070
1779.251824	144.700699
1781.064522	147.204196
1782.876834	147.823776
1784.685227	149.734266
1786.495002	150.732867
1788.300861	151.009790
1790.109867	148.844755
1791.914959	145.882517
1793.721432	145.812587
1795.527520	143.780420
1797.329699	142.465734
1799.135021	140.250350
1800.936435	140.100699
1802.739230	136.573427
1804.538118	137.657343
1806.338387	134.653147
1808.138274	132.834965
1809.936019	131.078322
1811.733384	131.251748
1813.530368	137.117483
1815.326972	143.275524
1817.121437	143.580420
1818.917282	147.120280
1820.707471	147.261538
1822.502557	148.025175
1824.291990	144.514685
1826.084561	148.830769
1827.874996	149.013986
1829.663296	148.046154
1831.454732	144.616783
1833.240523	144.334266
1835.027692	144.436364
1836.812731	145.720280
1838.600902	142.341259
1840.385188	145.935664
1842.167345	145.734266
1843.950881	144.387413
1845.732288	142.584615
1847.515073	145.398601
1849.293979	146.102098
1851.074263	142.309091
1852.852422	138.765035
1854.631958	136.942657
1856.409370	139.465734
1858.184659	142.597203
1859.961325	141.786014
1861.735869	145.951049
1863.511790	150.640559
1865.282092	150.211189
1867.055521	152.237762
1868.826830	151.090909
1870.597768	148.193007
1872.370084	147.763636
1874.136786	145.546853
1875.906613	145.493706
1877.672577	145.191608
1879.441665	143.469930
1881.206891	141.741259
1882.971749	138.699301
1884.737983	138.650350
1886.500359	138.843357
1888.262368	140.804196
1890.024010	139.574825
1891.785284	140.123077
1893.546192	139.681119
1895.306732	140.766434
1897.065164	140.893706
1898.823229	139.348252
1900.579187	142.439161
1902.336521	139.700699
1904.093490	139.293706
1905.848352	141.734266
1907.601109	145.097902
1909.353503	146.528671
1911.107273	145.927273
1912.858939	143.956643
1914.608502	139.604196
1916.359442	138.704895
1918.110018	136.313287
1919.856756	137.913287
1921.604869	141.886713
1923.350883	139.646154
1925.098273	144.034965
1926.843564	144.310490
1928.586758	147.997203
1930.331328	147.558042
1932.073801	144.718881
1933.815914	144.902098
1935.557668	141.054545
1937.299061	135.732867
1939.038361	133.078322
1940.777302	134.598601
1942.515884	133.535664
1944.252375	130.250350
1945.988507	130.690909
1947.726015	128.618182
1949.459700	131.584615
1951.194760	132.323077
1952.927731	132.903497
1954.660346	136.776224
1956.392604	137.801399
1958.124506	135.146853
1959.854323	137.980420
1961.582054	139.622378
1963.311160	138.355245
1965.039910	136.402797
1966.766577	136.813986
1968.492890	134.716084
1970.220577	136.627972
1971.942727	138.654545
1973.667978	137.416783
1975.389422	141.152448
1977.113966	145.914685
1978.836431	144.605594
1980.555092	146.925874
1982.276852	146.048951
1983.994811	142.331469
1985.714142	140.429371
1987.429674	141.296503
1989.150026	139.879720
1990.866580	137.721678
1992.579337	136.188811
1994.295190	133.602797
1996.008971	139.489510
1997.722402	145.085315
1999.433762	142.636364
2001.146494	144.158042
2002.855435	140.479720
2004.567470	137.506294
2006.273995	140.429371
2007.983613	141.320280
2009.691163	139.783217
2011.398366	135.079720
2013.103503	135.818182
2014.808293	138.758042
2016.514456	143.363636
2018.216835	146.655944
2019.920587	145.693706
2021.622276	148.144056
2023.323619	145.972028
2025.024618	144.015385
2026.723555	146.934266
2028.423864	148.295105
2030.120397	146.728671
2031.818302	146.952448
2033.514149	145.660140
2035.213081	145.960839
2036.906527	144.567832
2038.601344	142.255944
2040.295818	141.213986
2041.986525	138.904895
2043.680314	138.823776
2045.370338	135.720280
2047.061731	141.276923
2048.751072	145.563636
2050.441784	141.458741
2052.128732	145.588811
2053.815340	142.567832
2055.503319	141.323077
2057.187538	137.756643
2058.873127	138.076923
2060.558377	138.358042
2062.241579	136.625175
2063.926151	139.569231
2065.605259	140.769231
2067.289154	144.359441
2068.967587	147.600000
2070.649098	143.581818
2072.326857	145.566434
2074.004280	142.181818
2075.683072	138.339860
2077.359821	137.439161
2079.034529	137.379021
2080.710607	135.458741
2082.384643	136.627972
2084.058345	138.714685
2085.731711	142.095105
2087.403038	144.495105
2089.074031	144.299301
2090.744690	141.181818
2092.415015	140.005594
2094.085006	138.904895
2095.752960	138.170629
2097.420582	138.653147
2099.086170	138.086713
2100.753126	137.443357
2102.418049	139.500699
2104.082640	141.397203
2105.745199	144.711888
2107.409126	147.286713
2109.071022	145.717483
2110.732587	148.158042
2112.393822	148.974825
2114.053027	147.717483
2115.711903	149.391608
2117.370448	147.900699
2119.028664	147.640559
2120.683157	142.464336
2122.340714	140.383217
2123.997941	139.283916
2125.651448	141.135664
2127.306322	139.918881
2128.957477	137.847552
2130.611695	140.246154
2132.262195	140.246154
2133.914063	140.548252
2135.560522	146.830769
2137.211735	148.169231
2138.859236	145.802797
2140.508103	145.015385
2142.154951	142.545455
2143.801474	141.068531
2145.447671	139.233566
2147.090159	133.148252
2148.735706	131.591608
2150.377546	132.619580
2152.022443	135.223776
2153.663635	138.843357
2155.304503	144.067133
2156.945048	145.040559
2158.583580	143.907692
2160.223478	148.741259
2161.859676	145.702098
2163.497240	145.727273
2165.134482	140.662937
2166.769714	136.958042
2168.404624	135.721678
2170.039213	138.716084
2171.673481	137.427972
2173.304055	135.921678
2174.937681	135.773427
2176.567614	135.386014
2178.198914	137.099301
2179.828208	138.123077
2181.457183	137.732867
2183.085838	140.288112
2184.714174	134.443357
2186.340507	136.486713
2187.966522	137.041958
2189.590536	137.306294
2191.215915	130.590210
2192.839293	126.836364
2194.464036	125.518881
2196.085098	123.248951
2197.705843	127.068531
2199.327952	123.608392
2200.948064	129.148252
2202.566180	131.125874
2204.183980	129.629371
2205.801464	135.430769
2207.418634	132.832168
2209.035487	134.036364
2210.652026	134.370629
2212.266571	135.391608
2213.879125	137.506294
2215.493042	134.725874
2217.104968	135.937063
2218.718257	132.149650
2220.329555	132.075524
2221.938865	131.186014
2223.549537	129.706294
2225.158221	130.422378
2226.766593	130.591608
2228.372978	132.660140
2229.980725	134.124476
2231.586487	134.206993
2233.191937	136.113287
2234.795402	136.949650
2236.400230	140.840559
2238.003074	140.041958
2239.603935	137.202797
2241.206159	141.567832
2242.806401	140.776224
2244.408005	142.615385
2246.005956	138.865734
2247.605270	136.826573
2249.202604	134.872727
2250.799630	134.398601
2252.398017	138.664336
2253.992757	145.044755
2255.585519	145.331469
2257.179644	144.455944
2258.775130	141.278322
2260.366971	144.471329
2261.958506	143.079720
2263.551402	140.944056
2265.138990	137.695105
2266.731273	137.753846
2268.318249	130.679720
2269.908254	130.910490
2271.492954	132.237762
2273.082348	132.923077
2274.666439	129.773427
2276.251892	131.220979
2277.835376	131.065734
2279.421885	137.268531
2281.004761	135.853147
2282.587334	135.065734
2284.169603	135.984615
2285.748242	136.475524
2287.329906	130.468531
2288.907941	130.412587
2290.488999	130.716084
2292.066430	129.103497
2293.641898	131.653147
2295.220388	133.749650
2296.795254	133.833566
2298.369819	134.826573
2299.944083	132.528671
2301.518047	129.205594
2303.091711	128.363636
2304.665075	129.748252
2306.234820	126.499301
2307.804266	128.530070
2309.376730	128.539860
2310.943920	128.223776
2312.514127	130.644755
2314.080721	132.265734
2315.648673	133.772028
2317.214671	137.653147
2318.780371	139.567832
2320.345773	139.981818
2321.909222	141.072727
2323.474030	147.622378
2325.035229	147.395804
2326.599443	144.553846
2328.158396	136.759441
2329.720362	135.436364
2331.280378	134.400000
2332.840098	134.871329
2334.397870	132.843357
2335.955346	129.030769
2337.512528	126.633566
2339.067762	126.848951
2340.622702	126.337063
2342.177349	129.927273
2343.731702	126.390210
2345.285761	129.737063
2346.839527	126.404196
2348.391348	129.802797
2349.941226	131.723077
2351.494113	129.720280
2353.041756	126.699301
2354.592407	126.275524
2356.139468	127.476923
2357.687886	129.076923
2359.236013	127.174825
2360.780551	129.667133
2362.326447	128.083916
2363.870404	129.440559
2365.415719	125.993007
2366.957449	125.011189
2368.500537	125.920280
2370.041688	127.230769
2371.582550	129.744056
2373.123123	135.917483
2374.663407	135.433566
2376.203402	139.334266
2377.739818	135.850350
2379.279236	136.044755
2380.815077	130.732867
2382.352275	129.685315
2383.885897	128.255944
2385.422519	123.213986
2386.957211	119.141259
2388.489972	117.709091
2390.022448	115.416783
2391.552995	118.513287
2393.086540	118.713287
2394.614874	123.948252
2396.144564	125.251748
2397.673969	125.643357
2399.203089	129.404196
2400.731923	129.848951
2402.255553	131.247552
2403.783818	133.026573
2405.306880	129.179021
2406.834577	132.303497
2408.355434	132.760839
2409.880923	131.586014
2411.402853	130.393007
2412.926137	127.205594
2414.447501	124.675524
2415.966945	119.383217
2417.487744	119.627972
2419.006624	114.907692
2420.525223	115.390210
2422.041903	118.914685
2423.559939	116.176224
2425.077693	116.615385
2426.591895	116.751049
2428.105818	115.951049
2429.619460	119.240559
2431.134456	119.857343
2432.645905	124.713287
2434.158707	127.227972
2435.669597	130.296503
2437.180208	129.383217
2438.688907	126.030769
2440.200592	125.485315
2441.708734	124.331469
2443.216598	121.767832
2444.724183	122.124476
2446.228229	123.741259
2447.735259	122.302098
2449.240381	119.676923
2450.745226	124.155245
2452.248164	126.113287
2453.750825	125.787413
2455.253211	124.809790
2456.753690	120.246154
2458.255524	122.177622
2459.755452	124.528671
2461.255105	120.676923
2462.754483	119.862937
2464.251958	119.650350
2465.747531	112.344056
2467.246084	109.468531
2468.741109	112.141259
2470.237486	111.958042
2471.730337	112.004196
2473.224541	115.117483
2474.718471	114.241958
2476.208877	116.949650
2477.702261	116.786014
2479.193747	115.167832
2480.683336	114.812587
2482.172653	114.583217
2483.660074	111.067133
2485.150471	109.398601
2486.637350	114.156643
2488.125580	117.282517
2489.610293	120.844755
2491.094736	121.423776
2492.580531	119.997203
2494.064434	119.450350
2495.549687	120.103497
2497.029807	120.946853
2498.512899	120.661538
2499.994102	122.023776
2501.475035	119.339860
2502.954078	117.598601
2504.432854	120.581818
2505.911361	117.083916
2507.389599	116.201399
2508.867570	112.546853
2510.342035	111.281119
2511.819470	114.572028
2513.293400	116.241958
2514.768682	121.930070
2516.243696	125.959441
2517.715209	130.279720
2519.188073	130.917483
2520.659054	129.819580
2522.131385	128.462937
2523.598602	124.370629
2525.068786	125.177622
2526.537089	121.552448
2528.005126	118.829371
2529.472899	120.830769
2530.940407	117.416783
2532.407651	120.002797
2533.871402	120.204196
2535.336503	121.548252
2536.799727	120.897902
2538.264300	121.236364
2539.725385	123.130070
2541.187819	123.434965
2542.649990	125.457343
2544.108674	125.065734
2545.571931	124.843357
2547.030091	125.903497
2548.489601	122.208392
2549.944016	124.825175
2551.403002	122.202797
2552.860116	122.980420
2554.315358	121.851748
2555.770340	126.097902
2557.223452	126.475524
2558.677913	123.902098
2560.130505	122.169231
2561.582837	119.397203
2563.033301	118.847552
2564.486722	120.752448
2565.935060	121.190210
2567.386353	122.711888
2568.835780	120.474126
2570.281736	119.746853
2571.730646	119.530070
2573.176085	120.001399
2574.622873	114.219580
2576.067797	113.509091
2577.512464	110.665734
2578.958478	109.090909
2580.401025	112.623776
2581.844920	117.155245
2583.285350	120.913287
2584.727128	123.769231
2586.167046	123.204196
2587.608311	122.772028
2589.046114	124.064336
2590.486867	120.941259
2591.922558	116.078322
2593.361197	117.893706
2594.797980	116.337063
2596.232907	116.265734
2597.670781	117.444755
2599.103598	118.285315
2600.537762	120.805594
2601.970071	118.107692
2603.403728	114.486713
2604.835530	113.979021
2606.267080	110.723077
2607.698376	107.060140
2609.127821	102.727273
2610.557013	106.044755
2611.984354	107.258741
2613.413042	109.397203
2614.841477	114.464336
2616.266466	115.001399
2617.692800	117.015385
2619.117287	117.882517
2620.543118	118.981818
2621.965507	115.934266
2623.389240	112.552448
2624.811128	109.000000
2626.232765	105.615385
2627.652558	106.731469
2629.073696	110.262937
2630.494584	112.483916
2631.912033	112.541259
2633.332422	112.759441
2634.749374	115.587413
2636.166078	115.622378
2637.582533	112.885315
2638.998740	112.518881
2640.414699	110.777622
2641.828817	109.683916
2643.242687	109.145455
2644.654718	108.383217
2646.068094	108.107692
2647.478040	106.443357
2648.890922	107.037762
2650.300375	107.176224
2651.709582	107.813986
2653.116953	106.593007
2654.527258	108.170629
2655.935727	112.951049
2657.342362	112.815385
2658.748750	113.058741
2660.153306	111.499301
2661.559205	112.201399
2662.963270	112.213986
2664.367092	113.222378
2665.770669	116.959441
2667.172415	116.830769
2668.575504	122.135664
2669.975175	124.404196
2671.376190	124.745455
2672.773789	123.644755
2674.174317	123.039161
2675.571431	124.527273
2676.969888	120.872727
2678.366517	121.620979
2679.762905	123.749650
2681.159050	119.002797
2682.553369	117.825175
2683.949031	114.032168
2685.341284	113.591608
2686.734879	109.655944
2688.126650	107.255944
2689.519764	107.018182
2690.911053	106.507692
2692.300521	110.123077
2693.689748	109.467133
2695.078735	114.611189
2696.469065	118.516084
2697.854411	114.388811
2699.242680	116.699301
2700.629129	115.717483
2702.015339	115.510490
2703.401310	113.737063
2704.783883	113.458741
2706.167798	114.476923
2707.551474	110.437762
2708.934913	113.920280
2710.314956	114.040559
2711.696341	112.651748
2713.075910	107.355245
2714.456821	106.141259
2715.835917	107.034965
2717.213199	103.627972
2718.591822	103.314685
2719.968631	101.878322
2721.345205	102.903497
2722.721543	107.777622
2724.096069	110.581818
2725.471936	114.619580
2726.844416	118.595804
2728.219813	119.062937
2729.590249	119.846154
2730.962025	118.413986
2732.333568	114.790210
2733.703302	112.594406
2735.074376	112.895105
2736.443643	108.047552
2737.812676	106.103497
2739.179903	105.181818
2740.546896	104.233566
2741.913657	102.707692
2743.280185	107.117483
2744.644909	107.685315
2746.009400	108.384615
2747.373659	107.074126
2748.737687	106.268531
2750.101482	106.847552
2751.461905	108.272727
2752.825237	107.820979
2754.183627	112.142657
2755.544927	111.820979
2756.902857	113.418182
2758.263695	114.342657
2759.622733	120.193007
2760.978403	117.881119
2762.336982	117.230769
2763.692193	116.506294
2765.047175	112.485315
2766.400360	108.587413
2767.756452	111.135664
2769.109180	116.481119
2770.461679	119.443357
2771.813951	111.506294
2773.167560	109.413986
2774.517808	105.763636
2775.866263	106.151049
2777.217622	103.924476
2778.565622	99.409790
2779.914961	96.606993
2781.262507	92.911888
2782.609827	94.471329
2783.956919	102.135664
2785.302221	105.110490
2786.647297	102.323077
2787.992147	96.483916
2789.336771	100.745455
2790.678043	101.563636
2792.020652	103.118881
2793.363037	105.005594
2794.705196	102.946853
2796.044006	106.373427
2797.385716	104.924476
2798.724077	107.535664
2800.063776	110.186014
2801.401689	107.233566
2802.737818	103.239161
2804.073724	106.620979
2805.410967	108.355245
2806.746425	103.518881
2808.081661	101.986014
2809.415115	99.794406
2810.749905	100.765035
2812.081354	103.446154
2813.415699	100.716084
2814.745146	100.096503
2816.075930	102.686713
2817.406492	101.776224
2818.735275	103.331469
2820.065395	109.681119
2821.393736	106.437762
2822.721855	103.690909
2824.048198	104.475524
2825.375876	102.184615
2826.700222	104.471329
2828.025904	107.250350
2829.349810	103.791608
2830.673496	101.846154
2831.998518	99.632168
2833.320211	98.525874
2834.641685	99.302098
2835.962939	101.165035
2837.283975	96.264336
2838.603239	99.351049
2839.923838	103.784615
2841.242665	104.104895
2842.561274	107.602797
2843.878113	109.013986
2845.194734	105.093706
2846.511138	103.805594
2847.825772	98.377622
2849.141741	98.427972
2850.454391	99.798601
2851.768375	99.711888
2853.082143	96.200000
2854.395694	97.678322
2855.707479	95.777622
2857.017497	96.549650
2858.328850	98.461538
2859.636888	100.427972
2860.946260	100.254545
2862.255417	102.839161
2863.564359	100.467133
2864.871538	98.261538
2866.176953	98.441958
2867.483703	98.288112
2868.788691	96.486713
2870.093464	91.248951
2871.396477	91.248951
2872.702370	94.808392
2874.003409	98.274126
2875.305781	99.862937
2876.606395	101.440559
2877.908341	103.640559
2879.210075	102.746853
2880.508505	98.518881
2881.808268	97.267133
2883.106274	94.885315
2884.404068	93.446154
2885.700105	90.158042
2886.997476	89.022378
2888.293092	89.172028
2889.588496	92.598601
2890.883689	94.230769
2892.175585	98.773427
2893.470356	101.320280
2894.761832	104.454545
2896.054640	102.818182
2897.347238	100.212587
2898.636541	99.163636
2899.927178	96.260140
2901.216063	95.016783
2902.506280	91.222378
2903.793206	93.074126
2905.081464	93.083916
2906.367973	96.967832
2907.654273	95.447552
2908.940365	96.783217
2910.224709	98.100699
2911.511925	96.234965
2912.794314	97.004196
2914.078035	100.693706
2915.360009	97.967832
2916.641777	96.625175
2917.921799	95.493706
2919.204691	95.008392
2920.485838	92.920280
2921.763703	93.973427
2923.044437	88.504895
2924.321890	90.692308
2925.599138	88.468531
2926.874643	87.393007
2928.153016	89.963636
2929.426575	95.158042
2930.703001	98.541259
2931.977685	98.580420
2933.250630	100.865734
2934.524906	98.530070
2935.797441	97.994406
2937.069773	96.002797
2938.338832	93.139860
2939.610756	91.616783
2940.880942	87.285315
2942.150924	86.521678
2943.420703	85.896503
2944.688746	86.674126
2945.955052	88.107692
2947.221156	87.718881
2948.488591	87.888112
2949.754290	89.152448
2951.019788	92.555245
2952.285083	96.805594
2953.547113	98.924476
2954.810473	100.634965
2956.073632	104.713287
2957.335058	105.213986
2958.597815	102.800000
2959.858839	100.883916
2961.118133	101.605594
2962.377226	100.725874
2963.636120	96.587413
2964.894812	97.001399
2966.153305	90.779021
2967.410069	91.439161
2968.666634	88.523077
2969.921470	85.738462
2971.177636	86.255944
2972.430547	84.990210
2973.684786	86.353846
2974.938827	92.724476
2976.191142	92.325874
2977.443259	92.232168
2978.693651	89.755245
2979.946898	94.451748
2981.195368	89.983217
2982.446693	92.920280
2983.694768	93.036364
2984.942646	91.018182
2986.190328	92.941259
2987.437812	94.725874
2988.683575	95.000000
2989.929141	95.351049
2991.176036	92.283916
2992.419686	93.489510
2993.664663	91.388811
2994.906398	94.853147
2996.150984	92.949650
2997.393851	93.520280
2998.633477	96.644755
2999.875953	94.205594
3001.115189	93.593007
3002.355753	98.288112
3003.594600	95.658741
3004.833253	95.572028
3006.070190	96.850350
3007.308455	95.973427
3008.545004	92.546853
3009.781360	90.707692
3011.017522	89.114685
3012.251970	83.696503
3013.486225	83.471329
3014.720287	79.637762
3015.952637	78.688112
3017.183275	79.616783
3018.416759	78.938462
3019.648532	80.664336
3020.878593	83.795804
3022.108463	85.359441
3023.336623	84.365035
3024.566110	83.181818
3025.793887	85.798601
3027.021473	85.173427
3028.250385	88.009790
3029.474555	86.556643
3030.701568	85.104895
3031.925358	85.944056
3033.150473	89.061538
3034.373883	89.446154
3035.597102	90.509091
3036.818616	92.144056
3038.042971	94.076923
3039.262591	95.623776
3040.483537	97.780420
3041.704293	94.734266
3042.923347	92.243357
3044.143725	90.577622
3045.360887	89.246154
3046.579374	90.257343
3047.796160	90.289510
3049.012757	95.048951
3050.229167	94.227972
3051.442363	95.577622
3052.658397	98.004196
3053.871219	95.478322
3055.086878	93.539860
3056.297814	91.394406
3057.510076	88.492308
3058.722150	85.854545
3059.934038	85.409790
3061.144229	88.337063
3062.354233	92.459441
3063.564051	96.622378
3064.772173	92.541958
3065.980110	91.283916
3067.186351	91.958741
3068.393917	94.474126
3069.599788	97.313986
3070.805474	98.130070
3072.010976	92.943357
3073.214784	92.756643
3074.419916	95.698601
3075.623355	99.099301
3076.825102	97.627273
3078.026666	98.923077
3079.228046	94.881119
3080.429242	91.699301
3081.628748	89.630769
3082.828071	89.802797
3084.028717	84.951049
3085.227673	79.158042
3086.423434	74.962238
3087.622025	74.047552
3088.817422	73.591608
3090.014143	75.767832
3091.207671	76.945455
3092.404027	83.227972
3093.598696	84.882517
3094.790175	87.261538
3095.985986	89.260140
3097.177102	90.163636
3098.369542	88.521678
3099.558793	84.945455
3100.750871	84.930070
3101.941265	82.058741
3103.128473	80.176224
3104.317003	81.591608
3105.506856	83.220979
3106.693524	88.299301
3107.880013	88.216783
3109.066323	87.815385
3110.253954	88.204196
3111.438403	84.790210
3112.621173	81.759441
3113.806765	80.840559
3114.990678	82.711888
3116.172911	84.586014
3117.354967	84.563636
3118.536844	89.676923
3119.718543	93.949650
3120.898565	95.548252
3122.076910	95.348252
3123.258075	95.304895
3124.436065	93.541259
3125.613878	89.451748
3126.791514	84.658741
3127.967475	80.707692
3129.143260	80.963636
3130.320365	80.724476
3131.495797	76.900699
3132.669555	77.707692
3133.841640	75.731469
3135.015046	76.072727
3136.188277	77.858741
3137.359836	75.794406
3138.532715	77.469930
3139.702427	77.644755
3140.873460	76.586014
3142.042822	80.735664
3143.210515	83.531469
3144.381023	84.753846
3145.546872	83.208392
3146.717031	81.987413
3147.882532	82.190210
3149.047860	85.384615
3150.213014	79.443357
3151.377995	78.060140
3152.544295	78.090909
3153.705942	74.488112
3154.868910	71.191608
3156.031705	74.156643
3157.194326	71.567832
3158.355283	71.282517
3159.516068	72.135664
3160.676680	67.822378
3161.835628	69.022378
3162.994405	70.332867
3164.153009	67.555245
3165.311442	70.634965
3166.469703	73.993007
3167.626303	74.386014
3168.781241	74.372028
3169.937498	77.212587
3171.092094	76.079720
3172.246520	76.890909
3173.399285	78.942657
3174.551881	77.022378
3175.704307	80.626573
3176.856562	80.534266
3178.008648	79.532867
3179.157587	82.131469
3180.309333	82.981818
3181.459422	81.734266
3182.607853	78.513287
3183.756116	77.149650
3184.904210	78.869930
3186.052135	83.881119
3187.198404	86.902098
3188.344505	90.246154
3189.488952	91.488112
3190.633230	92.881119
3191.777341	95.916084
3192.922770	94.020979
3194.065060	89.766434
3195.207182	86.351049
3196.349138	80.528671
3197.490926	76.931469
3198.632547	79.373427
3199.771033	80.493706
3200.910836	78.321678
3202.051956	77.528671
3203.189943	77.269930
3204.326279	76.518881
3205.462451	76.465734
3206.599939	73.562238
3207.735779	74.394406
3208.872936	73.783217
3210.005480	71.514685
3211.142305	70.988811
3212.274520	76.472727
3213.408051	76.502098
3214.541417	74.570629
3215.671657	74.416783
3216.804694	70.930070
3217.934605	61.890909
3219.065832	64.237762
3220.193934	64.489510
3221.324834	63.297902
3222.454089	61.779021
3223.581701	61.353846
3224.706190	62.081119
3225.834955	66.731469
3226.960598	68.355245
3228.086078	70.383217
3229.209917	74.078322
3230.336551	74.387413
3231.458587	72.864336
3232.581939	76.338462
3233.705128	74.507692
3234.828156	73.581818
3235.949544	69.711888
3237.070771	70.808392
3238.190359	71.114685
3239.309786	69.977622
3240.427576	69.271329
3241.548157	71.629371
3242.665625	70.186014
3243.782932	71.951049
3244.900079	72.897902
3246.015589	76.443357
3247.132415	77.632168
3248.246130	77.772028
3249.362636	77.016783
3250.477506	78.109091
3251.589268	76.801399
3252.700871	74.015385
3253.813789	74.067133
3254.926547	71.194406
3256.036199	68.222378
3257.147166	70.683916
3258.257974	68.605594
3259.367150	69.874126
3260.474695	69.374825
3261.583555	68.886713
3262.692256	75.304895
3263.797855	75.984615
3264.904769	78.948252
3266.010053	80.837762
3267.116651	81.264336
3268.220149	75.951049
3269.324961	70.777622
3270.429616	65.760839
3271.531173	60.600000
3272.632573	60.313287
3273.735287	60.345455
3274.837845	58.939860
3275.937306	68.219580
3277.039551	66.186014
3278.138700	67.928671
3279.236224	67.502098
3280.333594	68.924476
3281.433745	68.783217
3282.530804	63.932867
3283.627707	65.538462
3284.724455	65.769231
3285.816644	66.749650
3286.913083	69.443357
3288.007899	71.917483
3289.102560	74.949650
3290.195600	70.429371
3291.288486	73.180420
3292.379751	74.713287
3293.472329	75.404196
3294.563287	74.394406
3295.652625	68.616783
3296.741810	70.644755
3297.832307	66.504895
3298.919721	65.451748
3300.006981	64.906294
3301.095554	64.303497
3302.183974	63.479720
3303.267848	63.018182
3304.355963	68.395804
3305.440996	72.092308
3306.524414	70.465734
3307.609144	71.577622
3308.692258	72.542657
3309.776684	76.451748
3310.858033	74.314685
3311.940693	72.446154
3313.021738	70.685315
3314.102633	71.650350
3315.181915	73.636364
3316.261046	71.896503
3317.341489	72.805594
3318.418857	72.960839
3319.497537	70.391608
3320.574605	69.941259
3321.651523	67.398601
3322.726831	67.633566
3323.801989	65.406993
3324.878458	63.265734
3325.951857	64.174825
3327.025106	67.327273
3328.099667	71.455944
3329.172619	69.881119
3330.243962	71.054545
3331.316616	70.559441
3332.386203	71.702098
3333.457101	71.763636
3334.526393	69.476923
3335.596994	69.356643
3336.665989	69.269930
3337.733379	67.015385
3338.799163	64.167832
3339.869173	63.830769
3340.936120	67.400000
3342.000005	66.688112
3343.066657	65.545455
3344.131706	67.111888
3345.195151	68.953846
3346.258450	69.430769
3347.321602	69.453147
3348.384608	68.335664
3349.447468	66.830769
3350.508725	64.506294
3351.566926	60.141259
3352.629348	60.916084
3353.688714	64.606993
3354.747934	65.292308
3355.808463	65.360839
3356.864484	68.993007
3357.923268	67.128671
3358.977545	67.938462
3360.034586	70.883916
3361.090028	68.155245
3362.146780	68.384615
3363.201933	63.359441
3364.255489	60.668531
3365.307448	56.141259
3366.362170	58.121678
3367.413842	61.106294
3368.465370	64.935664
3369.518208	69.156643
3370.567998	70.471329
3371.619097	77.618182
3372.667149	80.047552
3373.717962	78.660140
3374.765729	77.331469
3375.813354	70.248951
3376.860837	66.057343
3377.906727	58.881119
3378.953925	60.409790
3379.998080	59.998601
3381.044995	61.952448
3382.090317	61.462937
3383.132598	59.220979
3384.174738	62.776224
3385.218187	64.956643
3386.261494	67.232168
3387.303211	69.541259
3388.344788	67.489510
3389.386223	68.064336
3390.426070	65.946853
3391.464328	66.605594
3392.503894	62.818182
3393.543320	62.994406
3394.581158	62.605594
3395.617409	60.841958
3396.653520	60.973427
3397.690939	63.899301
3398.725325	63.372028
3399.761019	59.074126
3400.796573	57.741259
3401.829095	56.620979
3402.864371	49.967832
3403.896617	53.181818
3404.928723	52.503497
3405.959247	54.320280
3406.991077	56.162238
3408.022769	56.902098
3409.051433	56.885315
3410.079960	61.608392
3411.109793	61.661538
3412.139489	62.030769
3413.166159	66.695105
3414.194135	66.759441
3415.219087	64.710490
3416.246790	70.044755
3417.271468	63.822378
3418.297453	61.239161
3419.321859	59.169231
3420.346128	56.959441
3421.368818	56.911888
3422.391372	60.490909
3423.415232	59.882517
3424.436072	64.953846
3425.456776	67.323077
3426.478786	68.324725
3427.497778	67.362637
3428.516635	63.840659
3429.536798	57.162637
3430.553944	46.732418
