-118.702670	-3.600000
-116.033069	11.400000
-113.366404	7.400000
-110.700491	-24.800000
-108.037511	-10.800000
-105.373100	-2.200000
-102.711620	-7.400000
-100.048711	-8.600000
-97.390908	9.800000
-94.731676	0.000000
-92.073192	-22.200000
-89.417633	-6.600000
-86.760644	-9.400000
-84.108754	-0.800000
-81.455434	5.200000
-78.805033	-9.600000
-76.153204	-4.600000
-73.506465	2.000000
-70.858296	-8.800000
-68.210870	-2.600000
-65.566359	2.600000
-62.920418	-10.600000
-60.279559	15.000000
-57.637271	3.800000
-54.997892	-22.000000
-52.357084	7.600000
-49.717015	18.000000
-47.082020	-1.200000
-44.445595	-10.800000
-41.812073	-25.800000
-39.177123	2.200000
-36.547239	-3.800000
-33.913761	8.200000
-31.285346	24.400000
-28.657665	-0.400000
-26.028555	7.000000
-23.404503	12.800000
-20.776860	1.000000
-18.154272	32.800000
-15.532414	18.000000
-12.911287	33.000000
-10.290891	114.000000
-7.673382	323.600000
-5.054445	1120.200000
-2.438394	2842.600000
0.176930	3786.800000
2.791525	2225.200000
5.403239	340.600000
8.016381	41.200000
10.624489	7.600000
13.236178	27.800000
15.842837	4.600000
18.450925	2.000000
21.058287	-11.800000
23.660625	30.600000
26.266542	-5.000000
28.867436	1.600000
31.469758	-28.000000
34.067062	23.800000
36.667943	-12.600000
39.263808	-16.400000
41.861101	4.800000
44.457675	-5.400000
47.049240	-4.000000
49.642234	3.000000
52.232366	-18.000000
54.823925	12.400000
57.412626	5.600000
60.002753	-14.800000
62.587881	-10.400000
65.174437	-13.800000
67.760278	-0.400000
70.343266	-13.800000
72.927681	1.400000
75.504967	10.200000
78.085818	-7.600000
80.663822	-1.000000
83.241114	-24.600000
85.819834	-9.200000
88.393571	-13.800000
90.968735	-12.200000
93.541056	0.600000
96.112670	-9.800000
98.681443	5.000000
101.251643	-7.000000
103.819004	-20.000000
106.387792	-12.400000
108.953743	8.200000
111.516859	-5.400000
114.083531	10.600000
116.640981	-8.200000
119.204117	-2.000000
121.762294	12.800000
124.324025	13.600000
126.880799	22.400000
129.438999	38.800000
131.992247	56.400000
134.544797	122.200000
137.100897	143.400000
139.652049	164.400000
142.202504	203.400000
144.752261	238.800000
147.299199	284.200000
149.845442	327.000000
152.393110	317.400000
154.940082	326.800000
157.482118	338.600000
160.023462	303.400000
162.564112	336.800000
165.106187	314.000000
167.645452	318.800000
170.181907	308.600000
172.717672	290.200000
175.254862	305.400000
177.791361	335.200000
180.325054	311.400000
182.855943	322.600000
185.386144	310.000000
187.917771	298.200000
190.446596	289.800000
192.972622	272.400000
195.497962	274.400000
198.024727	273.400000
200.548696	317.800000
203.071979	307.600000
205.594578	296.800000
208.114384	274.000000
210.633507	321.800000
213.151947	269.000000
215.671812	260.800000
218.184674	297.800000
220.701068	296.600000
223.216781	312.000000
225.727603	272.200000
228.239850	289.600000
230.749314	315.800000
233.258100	276.400000
235.766208	295.200000
238.275740	264.200000
240.780391	278.000000
243.284366	274.200000
245.789765	286.000000
248.290289	328.200000
250.794336	305.000000
253.291413	303.000000
255.792012	267.800000
258.289840	304.600000
260.786995	311.800000
263.283478	315.600000
265.775097	311.000000
268.270236	318.400000
270.762608	342.000000
273.254310	375.400000
275.743249	383.600000
278.233611	405.800000
280.721212	429.200000
283.206053	486.000000
285.694409	579.000000
288.175825	671.600000
290.660755	928.000000
293.140839	1504.600000
295.624436	2475.200000
298.103191	3905.200000
300.583368	4716.600000
303.060794	3898.400000
305.537556	2175.600000
308.013654	1164.000000
310.487004	804.000000
312.959693	589.400000
315.431720	496.800000
317.903085	487.200000
320.371707	486.000000
322.839669	448.800000
325.309054	383.600000
327.773616	359.800000
330.241682	362.400000
332.704927	332.400000
335.167516	334.200000
337.629448	335.800000
340.090723	343.200000
342.549263	348.200000
345.009226	299.600000
347.466457	373.000000
349.923033	365.200000
352.378955	321.400000
354.832147	308.800000
357.286762	309.800000
359.736575	319.200000
362.189884	347.200000
364.638394	294.000000
367.086254	322.800000
369.535536	304.800000
371.980023	297.000000
374.425933	303.400000
376.871194	278.200000
379.313736	314.000000
381.755630	330.800000
384.196876	286.400000
386.635408	327.800000
389.075360	284.000000
391.512599	338.800000
393.947127	284.400000
396.385141	313.400000
398.818380	296.200000
401.253039	280.400000
403.682926	327.800000
406.116298	283.600000
408.544900	287.800000
410.972860	266.800000
413.402241	306.600000
415.826858	307.000000
418.252895	290.600000
420.678293	279.400000
423.103050	312.400000
425.523048	288.000000
427.944468	312.200000
430.363192	268.400000
432.783335	297.000000
435.200784	294.800000
437.619654	289.000000
440.035829	306.000000
442.447258	289.200000
444.862163	299.000000
447.274378	296.200000
449.685960	296.800000
452.096907	310.600000
454.505167	297.000000
456.912796	320.400000
459.319792	311.200000
461.726157	299.000000
464.129839	297.600000
466.532891	313.000000
468.935313	309.400000
471.337105	294.200000
473.736219	300.200000
476.136753	292.600000
478.536658	287.600000
480.931841	266.000000
483.330489	296.200000
485.724418	269.000000
488.117721	282.800000
490.510399	278.600000
492.902451	280.000000
495.295921	261.600000
497.684679	243.800000
500.070771	255.800000
502.458283	265.000000
504.845172	253.200000
507.229396	213.000000
509.615040	232.000000
511.998022	223.200000
514.378342	216.000000
516.760083	205.800000
519.139164	213.000000
521.519663	194.200000
523.897506	213.800000
526.272692	220.600000
528.647261	206.000000
531.023249	211.200000
533.396584	219.400000
535.771336	200.200000
538.141402	189.800000
540.510854	218.600000
542.881723	208.000000
545.247911	215.200000
547.615518	224.400000
549.980479	235.400000
552.344828	254.600000
554.708563	220.000000
557.073716	229.000000
559.434197	227.400000
561.796095	259.000000
564.155354	229.400000
566.511974	253.800000
568.872040	232.400000
571.225414	236.200000
573.582233	230.000000
575.936417	222.400000
578.289992	223.400000
580.642960	239.400000
582.993295	238.800000
585.345048	216.400000
587.690124	219.200000
590.040663	211.800000
592.384530	228.600000
594.733858	219.800000
597.078537	221.600000
599.420592	197.800000
601.764064	179.200000
604.104913	200.200000
606.445159	193.000000
608.782785	173.600000
611.123846	159.800000
613.460270	189.400000
615.798110	178.200000
618.133333	186.400000
620.465939	173.200000
622.799963	171.200000
625.131372	175.600000
627.462183	156.800000
629.792396	171.400000
632.122012	185.800000
634.447004	170.200000
636.777438	168.600000
639.103251	197.200000
641.426456	175.000000
643.751078	154.400000
646.073094	174.200000
648.394516	166.000000
650.713335	150.800000
653.033571	155.600000
655.353212	174.600000
657.670254	127.800000
659.986703	160.800000
662.300554	150.200000
664.615821	154.400000
666.928491	157.600000
669.242576	167.000000
671.552061	191.600000
673.862962	167.400000
676.171270	154.600000
678.478989	172.800000
680.788124	158.000000
683.092666	142.600000
685.396622	170.400000
687.699991	168.400000
690.004776	136.800000
692.304973	148.400000
694.606586	173.200000
696.907613	159.000000
699.204059	196.800000
701.501920	142.800000
703.799197	171.600000
706.095891	159.800000
708.388009	162.800000
710.683538	149.200000
712.974493	177.000000
715.266863	198.600000
717.556657	139.000000
719.845872	154.000000
722.134507	176.200000
724.420569	172.600000
726.708045	160.600000
728.992951	162.400000
731.277279	153.600000
733.559038	142.800000
735.842211	169.000000
738.124807	177.600000
740.402847	157.200000
742.682301	160.800000
744.961180	191.400000
747.239484	176.600000
749.513237	169.800000
751.788405	168.800000
754.062999	128.400000
756.335034	113.000000
758.608482	177.800000
760.879372	169.200000
763.147706	156.200000
765.417453	179.000000
767.684645	165.200000
769.951268	129.400000
772.217320	172.600000
774.480821	188.800000
776.745734	134.800000
779.010079	171.000000
781.269893	146.000000
783.531121	165.000000
785.791781	156.800000
788.049895	170.800000
790.305464	157.400000
792.564423	183.400000
794.816884	191.600000
797.074712	165.800000
799.328021	171.600000
801.578790	136.600000
803.830971	160.000000
806.080613	173.200000
808.331667	148.400000
810.578210	174.800000
812.826166	181.000000
815.071586	187.200000
817.318419	149.000000
819.564689	159.600000
821.806456	175.400000
824.051605	154.400000
826.290283	158.000000
828.532342	179.600000
830.769903	165.400000
833.008876	150.600000
835.245322	150.400000
837.483179	158.000000
839.718511	182.600000
841.951320	145.800000
844.185539	183.000000
846.417237	146.800000
848.648380	168.000000
850.878968	143.400000
853.109002	142.800000
855.338481	130.000000
857.563480	162.800000
859.791852	164.800000
862.015746	139.600000
864.241051	148.800000
866.461880	159.200000
868.686081	169.400000
870.905809	140.800000
873.126947	157.000000
875.347535	128.600000
877.565614	171.800000
879.785102	161.600000
882.000124	173.000000
884.214598	142.200000
886.428525	166.200000
888.641904	145.000000
890.854737	159.800000
893.067022	140.000000
895.276806	136.200000
897.486044	166.000000
899.694737	148.400000
901.900930	165.000000
904.108533	151.200000
906.313639	148.400000
908.518201	188.800000
910.720268	151.800000
912.923744	152.400000
915.124726	177.000000
917.325166	144.600000
919.527015	150.200000
921.722473	153.800000
923.921289	166.200000
926.115668	159.000000
928.313404	129.600000
930.506704	171.200000
932.701413	133.000000
934.893635	171.000000
937.085320	178.200000
939.276467	152.400000
941.465131	157.200000
943.653259	131.200000
945.838905	160.000000
948.027905	157.600000
950.212480	170.200000
952.396521	193.200000
954.583913	161.400000
956.763000	142.600000
958.945438	170.000000
961.127342	183.600000
963.306771	163.600000
965.483728	142.800000
967.662093	155.200000
969.841865	192.800000
972.015288	203.800000
974.192057	187.600000
976.364419	174.800000
978.538189	179.000000
980.707555	183.400000
982.880265	203.000000
985.050510	168.000000
987.220225	205.800000
989.389412	180.800000
991.554202	197.800000
993.722334	191.400000
995.886070	158.400000
998.051214	164.000000
1000.213898	183.600000
1002.376057	189.200000
1004.535759	208.000000
1006.694936	193.000000
1008.855520	199.800000
1011.013649	206.400000
1013.171255	218.800000
1015.328337	207.800000
1017.484895	175.600000
1019.637074	211.600000
1021.790660	206.400000
1023.943724	179.800000
1026.094339	214.800000
1028.246360	185.600000
1030.394009	201.400000
1032.544989	196.400000
1034.691598	196.800000
1036.837688	198.800000
1038.983260	195.800000
1041.130237	225.400000
1043.270925	217.200000
1045.414942	218.000000
1047.556520	221.000000
1049.697580	207.800000
1051.840046	208.800000
1053.976231	203.600000
1056.115743	223.400000
1058.250899	211.000000
1060.389380	228.600000
1062.523508	189.000000
1064.657122	213.200000
1066.792140	215.800000
1068.922810	214.600000
1071.054884	196.400000
1073.184528	223.600000
1075.313661	192.600000
1077.442283	198.400000
1079.570393	209.800000
1081.696077	200.400000
1083.821251	217.200000
1085.947829	213.000000
1088.070069	194.400000
1090.193714	193.600000
1092.313024	170.800000
1094.437563	197.200000
1096.555858	181.600000
1098.675556	189.200000
1100.792837	176.000000
1102.909610	200.800000
1105.025877	181.600000
1107.139729	180.200000
1109.254984	197.400000
1111.365917	194.200000
1113.480162	183.400000
1115.590086	176.400000
1117.701413	183.800000
1119.812237	165.800000
1121.918744	170.200000
1124.028560	183.200000
1126.134062	194.400000
1128.240968	177.800000
1130.341658	154.600000
1132.447560	178.400000
1134.549153	184.200000
1136.652148	187.200000
1138.754644	199.200000
1140.850932	186.800000
1142.952427	170.600000
1145.049620	162.400000
1147.146314	172.600000
1149.242511	184.800000
1151.338209	163.000000
1153.433410	162.600000
1155.526214	175.600000
1157.620420	202.200000
1159.708435	168.600000
1161.801648	188.200000
1163.888674	167.000000
1165.978998	199.600000
1168.065034	190.400000
1170.154368	195.400000
1172.237521	143.600000
1174.322077	172.400000
1176.408034	203.200000
1178.489709	131.600000
1180.572785	171.000000
1182.653476	186.200000
1184.733676	181.800000
1186.813384	165.800000
1188.892601	185.200000
1190.969435	176.400000
1193.043889	170.800000
1195.121635	179.800000
1197.195110	174.000000
1199.269987	161.600000
1201.340596	143.400000
1203.412606	189.200000
1205.482240	169.400000
1207.553275	168.200000
1209.623822	180.200000
1211.690109	158.600000
1213.757796	178.800000
1215.823110	192.000000
1217.889825	168.600000
1219.952284	184.800000
1222.018029	198.400000
1224.079519	198.000000
1226.142410	166.400000
1228.202932	170.600000
1230.262972	148.400000
1232.322528	182.000000
1234.379720	168.400000
1236.436429	169.000000
1238.490776	159.200000
1240.548403	178.200000
1242.603668	174.200000
1244.654693	155.200000
1246.707117	171.800000
1248.759061	175.600000
1250.808647	152.800000
1252.857754	168.800000
1254.906382	168.800000
1256.954532	160.800000
1259.002204	174.800000
1261.045645	173.400000
1263.092362	123.800000
1265.136725	156.400000
1267.180611	176.600000
1269.222147	157.800000
1271.261333	160.200000
1273.303792	163.000000
1275.342028	165.800000
1277.381663	158.000000
1279.420822	180.800000
1281.455764	169.400000
1283.492104	157.800000
1285.526100	183.000000
1287.561493	181.000000
1289.592673	167.600000
1291.625252	163.400000
1293.657359	154.200000
1295.687125	159.400000
1297.718288	169.000000
1299.745244	150.600000
1301.773599	152.400000
1303.797748	165.000000
1305.825163	168.600000
1307.848375	167.600000
1309.872985	171.600000
1311.895260	147.000000
1313.918933	167.200000
1315.940273	152.400000
1317.961146	170.800000
1319.981551	181.400000
1321.997763	176.200000
1324.015372	147.200000
1326.030653	179.600000
1328.049193	161.600000
1330.063543	151.800000
1332.075568	176.600000
1334.090851	171.000000
1336.101948	158.200000
1338.114441	161.600000
1340.122752	167.600000
1342.134319	138.400000
1344.139847	155.000000
1346.148630	199.800000
1348.153235	147.000000
1350.161094	178.400000
1352.168491	145.400000
1354.169857	143.000000
1356.172619	166.600000
1358.174922	174.400000
1360.176765	164.200000
1362.178148	177.000000
1364.177217	185.200000
1366.175828	161.000000
1368.173981	173.000000
1370.171676	180.600000
1372.165208	160.800000
1374.160135	164.600000
1376.154606	152.400000
1378.148620	158.200000
1380.140327	160.600000
1382.131578	165.000000
1384.120524	167.600000
1386.110865	155.000000
1388.100752	167.200000
1390.088334	147.400000
1392.075463	168.400000
1394.060290	161.000000
1396.046512	149.400000
1398.030433	157.600000
1400.013902	168.000000
1401.996919	137.800000
1403.977638	163.400000
1405.959751	156.000000
1407.939567	178.200000
1409.918933	157.600000
1411.894160	173.000000
1413.872625	143.400000
1415.848797	177.200000
1417.824519	166.400000
1419.799792	187.200000
1421.772775	155.800000
1423.745309	155.000000
1425.717395	154.600000
1427.689034	152.000000
1429.656544	158.400000
1431.629128	168.000000
1433.593906	159.800000
1435.563757	158.800000
1437.529483	173.000000
1439.496603	153.000000
1441.461439	176.400000
1443.422155	175.600000
1445.387939	164.800000
1447.347768	176.400000
1449.308991	155.200000
1451.271605	161.400000
1453.230105	191.800000
1455.188163	184.400000
1457.145779	181.200000
1459.102952	159.800000
1461.057850	177.400000
1463.014141	162.000000
1464.968157	149.000000
1466.921732	176.800000
1468.873035	179.000000
1470.825730	154.400000
1472.776154	152.200000
1474.726139	166.000000
1476.675685	174.200000
1478.622962	151.400000
1480.567971	169.000000
1482.514373	175.800000
1484.460337	155.200000
1486.405864	192.800000
1488.349125	157.000000
1490.291950	161.800000
1492.232512	185.600000
1494.174466	173.200000
1496.114157	170.200000
1498.053413	176.200000
1499.992235	153.800000
1501.928797	158.200000
1503.866750	179.000000
1505.802444	159.400000
1507.737705	159.600000
1509.670709	151.200000
1511.603281	174.600000
1513.535421	181.600000
1515.467129	168.600000
1517.396584	164.000000
1519.327429	163.000000
1521.257842	165.000000
1523.184183	162.200000
1525.111914	172.600000
1527.037396	147.400000
1528.962448	156.000000
1530.887070	173.600000
1532.811264	145.200000
1534.733211	160.000000
1536.656548	156.800000
1538.577638	172.000000
1540.496484	164.800000
1542.416720	183.800000
1544.334712	172.600000
1546.252278	190.000000
1548.167603	163.800000
1550.084317	174.600000
1551.996975	158.400000
1553.912838	205.600000
1555.826462	186.200000
1557.737847	219.400000
1559.650622	175.200000
1561.559347	170.200000
1563.469461	185.800000
1565.379152	179.000000
1567.288420	161.800000
1569.195453	149.200000
1571.100254	178.400000
1573.006444	180.600000
1574.910403	181.600000
1576.813940	182.400000
1578.717057	169.800000
1580.617944	141.600000
1582.520220	179.400000
1584.420267	165.400000
1586.321703	176.000000
1588.219104	172.800000
1590.116088	162.200000
1592.012653	175.600000
1593.910605	186.200000
1595.802723	181.800000
1597.698035	201.000000
1599.592928	155.400000
1601.485601	146.600000
1603.377856	172.000000
1605.267892	159.400000
1607.157512	175.400000
1609.046717	167.400000
1610.935506	171.800000
1612.822079	176.400000
1614.710039	164.800000
1616.593982	134.200000
1618.479312	168.000000
1620.364229	173.400000
1622.246932	161.200000
1624.131022	160.800000
1626.011100	158.400000
1627.892566	149.800000
1629.771820	150.200000
1631.652462	146.600000
1633.527299	176.800000
1635.407117	164.800000
1637.282930	192.800000
1639.158334	170.800000
1641.035123	166.400000
1642.906115	153.000000
1644.780290	169.400000
1646.650465	157.000000
1648.523821	185.200000
1650.394974	152.800000
1652.263925	145.600000
1654.134262	162.000000
1656.000606	173.800000
1657.868335	169.000000
1659.733865	189.600000
1661.600781	180.000000
1663.463707	172.600000
1665.328020	164.600000
1667.190136	179.000000
1669.051847	184.800000
1670.914943	175.800000
1672.775845	182.800000
1674.634554	152.200000
1676.492859	163.600000
1678.352548	180.600000
1680.206471	192.600000
1682.063567	147.200000
1683.920259	163.600000
1685.772976	152.200000
1687.628864	161.600000
1689.480778	146.600000
1691.332291	163.200000
1693.183403	170.600000
1695.034114	181.000000
1696.884425	154.600000
1698.732552	175.600000
1700.582063	143.200000
1702.425824	176.000000
1704.274536	163.200000
1706.117501	151.600000
1707.963632	143.000000
1709.805802	180.800000
1711.651137	143.600000
1713.490730	175.600000
1715.331709	163.400000
1717.174070	166.000000
1719.012474	158.600000
1720.852262	161.400000
1722.689875	178.800000
1724.527093	162.800000
1726.362137	152.400000
1728.198564	176.600000
1730.032818	158.200000
1731.866679	136.800000
1733.700145	138.200000
1735.529665	161.000000
1737.362345	179.000000
1739.191079	160.400000
1741.022972	177.400000
1742.850922	171.200000
1744.678480	137.200000
1746.505647	183.800000
1748.332422	171.000000
1750.158805	141.800000
1751.981252	178.800000
1753.806854	152.000000
1755.628520	195.400000
1757.451569	165.400000
1759.272457	155.800000
1761.092955	163.000000
1762.914835	159.600000
1764.731015	174.800000
1766.550347	187.800000
1768.365752	155.600000
1770.184308	151.400000
1771.998938	165.000000
1773.813181	149.200000
1775.627038	157.000000
1777.440508	159.800000
1779.251824	160.000000
1781.064522	174.800000
1782.876834	157.600000
1784.685227	162.400000
1786.495002	170.200000
1788.300861	159.000000
1790.109867	144.000000
1791.914959	175.400000
1793.721432	158.800000
1795.527520	154.400000
1797.329699	146.000000
1799.135021	187.400000
1800.936435	164.200000
1802.739230	154.200000
1804.538118	161.600000
1806.338387	159.600000
1808.138274	170.200000
1809.936019	171.000000
1811.733384	143.000000
1813.530368	183.200000
1815.326972	136.200000
1817.121437	157.200000
1818.917282	151.400000
1820.707471	206.600000
1822.502557	146.000000
1824.291990	182.400000
1826.084561	154.800000
1827.874996	157.800000
1829.663296	141.800000
1831.454732	164.000000
1833.240523	189.200000
1835.027692	172.400000
1836.812731	180.400000
1838.600902	167.800000
1840.385188	156.000000
1842.167345	176.600000
1843.950881	153.200000
1845.732288	141.400000
1847.515073	179.000000
1849.293979	159.000000
1851.074263	138.000000
1852.852422	180.600000
1854.631958	187.800000
1856.409370	148.200000
1858.184659	158.000000
1859.961325	133.600000
1861.735869	131.400000
1863.511790	173.000000
1865.282092	194.000000
1867.055521	143.000000
1868.826830	178.000000
1870.597768	176.400000
1872.370084	146.000000
1874.136786	131.800000
1875.906613	169.800000
1877.672577	159.800000
1879.441665	127.000000
1881.206891	165.000000
1882.971749	169.200000
1884.737983	147.400000
1886.500359	162.600000
1888.262368	153.000000
1890.024010	145.600000
1891.785284	160.000000
1893.546192	160.200000
1895.306732	149.400000
1897.065164	137.600000
1898.823229	141.400000
1900.579187	147.000000
1902.336521	145.400000
1904.093490	148.200000
1905.848352	164.400000
1907.601109	140.000000
1909.353503	153.600000
1911.107273	145.600000
1912.858939	149.400000
1914.608502	159.600000
1916.359442	153.800000
1918.110018	183.000000
1919.856756	167.600000
1921.604869	172.800000
1923.350883	150.400000
1925.098273	165.400000
1926.843564	167.400000
1928.586758	142.400000
1930.331328	149.400000
1932.073801	154.600000
1933.815914	134.200000
1935.557668	161.800000
1937.299061	161.200000
1939.038361	169.800000
1940.777302	142.600000
1942.515884	151.000000
1944.252375	171.000000
1945.988507	166.400000
1947.726015	161.800000
1949.459700	163.400000
1951.194760	170.200000
1952.927731	130.600000
1954.660346	174.600000
1956.392604	160.600000
1958.124506	154.800000
1959.854323	144.000000
1961.582054	161.000000
1963.311160	144.400000
1965.039910	174.600000
1966.766577	149.400000
1968.492890	183.200000
1970.220577	147.800000
1971.942727	139.000000
1973.667978	145.000000
1975.389422	145.400000
1977.113966	157.800000
1978.836431	189.200000
1980.555092	157.600000
1982.276852	163.200000
1983.994811	170.400000
1985.714142	156.000000
1987.429674	163.000000
1989.150026	152.600000
1990.866580	144.200000
1992.579337	145.200000
1994.295190	135.800000
1996.008971	173.400000
1997.722402	162.400000
1999.433762	162.800000
2001.146494	182.600000
2002.855435	155.800000
2004.567470	145.000000
2006.273995	149.200000
2007.983613	155.000000
2009.691163	173.200000
2011.398366	170.800000
2013.103503	154.000000
2014.808293	165.000000
2016.514456	152.600000
2018.216835	166.400000
2019.920587	165.000000
2021.622276	140.200000
2023.323619	159.600000
2025.024618	169.600000
2026.723555	163.800000
2028.423864	161.600000
2030.120397	152.200000
2031.818302	164.600000
2033.514149	160.400000
2035.213081	176.600000
2036.906527	139.800000
2038.601344	148.200000
2040.295818	157.800000
2041.986525	182.000000
2043.680314	177.000000
2045.370338	144.600000
2047.061731	152.200000
2048.751072	141.400000
2050.441784	153.400000
2052.128732	170.800000
2053.815340	167.000000
2055.503319	157.000000
2057.187538	144.400000
2058.873127	167.400000
2060.558377	155.600000
2062.241579	146.400000
2063.926151	156.400000
2065.605259	157.800000
2067.289154	159.000000
2068.967587	156.600000
2070.649098	158.400000
2072.326857	141.000000
2074.004280	153.600000
2075.683072	175.600000
2077.359821	137.600000
2079.034529	192.000000
2080.710607	164.800000
2082.384643	150.600000
2084.058345	166.200000
2085.731711	153.400000
2087.403038	180.400000
2089.074031	127.200000
2090.744690	143.600000
2092.415015	157.400000
2094.085006	146.800000
2095.752960	143.400000
2097.420582	126.600000
2099.086170	161.800000
2100.753126	141.800000
2102.418049	164.800000
2104.082640	136.600000
2105.745199	160.000000
2107.409126	173.400000
2109.071022	149.000000
2110.732587	165.400000
2112.393822	163.400000
2114.053027	179.000000
2115.711903	137.400000
2117.370448	169.200000
2119.028664	162.800000
2120.683157	153.000000
2122.340714	153.600000
2123.997941	155.800000
2125.651448	152.000000
2127.306322	157.000000
2128.957477	166.000000
2130.611695	182.000000
2132.262195	156.400000
2133.914063	182.800000
2135.560522	172.400000
2137.211735	155.200000
2138.859236	193.200000
2140.508103	162.000000
2142.154951	163.200000
2143.801474	168.200000
2145.447671	141.000000
2147.090159	163.000000
2148.735706	145.000000
2150.377546	152.800000
2152.022443	158.200000
2153.663635	170.200000
2155.304503	166.000000
2156.945048	178.000000
2158.583580	132.200000
2160.223478	154.200000
2161.859676	143.200000
2163.497240	170.200000
2165.134482	181.600000
2166.769714	136.000000
2168.404624	192.400000
2170.039213	200.800000
2171.673481	162.200000
2173.304055	155.600000
2174.937681	153.400000
2176.567614	161.600000
2178.198914	139.000000
2179.828208	128.600000
2181.457183	155.200000
2183.085838	147.000000
2184.714174	143.800000
2186.340507	147.400000
2187.966522	183.400000
2189.590536	137.200000
2191.215915	152.600000
2192.839293	152.600000
2194.464036	169.400000
2196.085098	144.200000
2197.705843	154.200000
2199.327952	174.800000
2200.948064	165.600000
2202.566180	147.600000
2204.183980	164.000000
2205.801464	172.800000
2207.418634	185.200000
2209.035487	140.800000
2210.652026	159.600000
2212.266571	188.600000
2213.879125	148.000000
2215.493042	159.200000
2217.104968	142.200000
2218.718257	137.600000
2220.329555	141.000000
2221.938865	159.000000
2223.549537	188.200000
2225.158221	133.800000
2226.766593	158.600000
2228.372978	160.000000
2229.980725	171.600000
2231.586487	164.000000
2233.191937	147.000000
2234.795402	168.200000
2236.400230	157.600000
2238.003074	160.200000
2239.603935	156.600000
2241.206159	159.200000
2242.806401	175.800000
2244.408005	138.400000
2246.005956	144.600000
2247.605270	180.600000
2249.202604	171.800000
2250.799630	136.800000
2252.398017	149.800000
2253.992757	129.200000
2255.585519	142.000000
2257.179644	184.000000
2258.775130	147.600000
2260.366971	168.400000
2261.958506	154.200000
2263.551402	168.600000
2265.138990	133.600000
2266.731273	154.200000
2268.318249	151.200000
2269.908254	153.000000
2271.492954	161.400000
2273.082348	156.800000
2274.666439	158.200000
2276.251892	153.600000
2277.835376	169.800000
2279.421885	166.600000
2281.004761	137.200000
2282.587334	144.000000
2284.169603	160.000000
2285.748242	153.000000
2287.329906	149.400000
2288.907941	162.600000
2290.488999	145.800000
2292.066430	144.800000
2293.641898	143.800000
2295.220388	148.000000
2296.795254	164.000000
2298.369819	131.000000
2299.944083	142.600000
2301.518047	141.200000
2303.091711	145.600000
2304.665075	135.000000
2306.234820	151.000000
2307.804266	129.600000
2309.376730	179.400000
2310.943920	149.800000
2312.514127	137.600000
2314.080721	145.200000
2315.648673	138.200000
2317.214671	143.800000
2318.780371	162.000000
2320.345773	119.800000
2321.909222	153.200000
2323.474030	141.400000
2325.035229	155.800000
2326.599443	153.600000
2328.158396	165.400000
2329.720362	168.200000
2331.280378	166.800000
2332.840098	148.000000
2334.397870	134.800000
2335.955346	152.000000
2337.512528	145.600000
2339.067762	145.200000
2340.622702	142.800000
2342.177349	136.400000
2343.731702	125.800000
2345.285761	144.000000
2346.839527	167.000000
2348.391348	145.800000
2349.941226	149.000000
2351.494113	149.400000
2353.041756	135.000000
2354.592407	154.800000
2356.139468	136.400000
2357.687886	147.000000
2359.236013	148.600000
2360.780551	155.200000
2362.326447	160.600000
2363.870404	135.600000
2365.415719	151.400000
2366.957449	142.200000
2368.500537	144.400000
2370.041688	160.400000
2371.582550	144.600000
2373.123123	153.200000
2374.663407	164.600000
2376.203402	166.000000
2377.739818	149.600000
2379.279236	120.000000
2380.815077	136.800000
2382.352275	137.200000
2383.885897	148.000000
2385.422519	146.000000
2386.957211	125.800000
2388.489972	140.200000
2390.022448	140.800000
2391.552995	144.800000
2393.086540	145.600000
2394.614874	154.000000
2396.144564	135.800000
2397.673969	127.800000
2399.203089	146.400000
2400.731923	158.800000
2402.255553	148.200000
2403.783818	162.600000
2405.306880	149.400000
2406.834577	142.400000
2408.355434	136.400000
2409.880923	169.400000
2411.402853	153.000000
2412.926137	146.200000
2414.447501	161.400000
2415.966945	143.600000
2417.487744	127.000000
2419.006624	134.000000
2420.525223	152.800000
2422.041903	132.200000
2423.559939	165.400000
2425.077693	153.000000
2426.591895	132.000000
2428.105818	138.800000
2429.619460	144.000000
2431.134456	121.800000
2432.645905	146.600000
2434.158707	143.400000
2435.669597	146.200000
2437.180208	109.400000
2438.688907	120.800000
2440.200592	153.400000
2441.708734	129.600000
2443.216598	138.400000
2444.724183	137.600000
2446.228229	139.000000
2447.735259	127.000000
2449.240381	163.400000
2450.745226	145.400000
2452.248164	145.400000
2453.750825	139.400000
2455.253211	132.400000
2456.753690	148.400000
2458.255524	145.400000
2459.755452	146.400000
2461.255105	145.800000
2462.754483	149.600000
2464.251958	123.400000
2465.747531	142.000000
2467.246084	126.200000
2468.741109	141.400000
2470.237486	154.400000
2471.730337	153.600000
2473.224541	134.800000
2474.718471	147.200000
2476.208877	126.000000
2477.702261	146.000000
2479.193747	127.800000
2480.683336	130.400000
2482.172653	149.800000
2483.660074	163.800000
2485.150471	123.600000
2486.637350	143.800000
2488.125580	145.000000
2489.610293	132.400000
2491.094736	125.600000
2492.580531	119.800000
2494.064434	127.000000
2495.549687	158.400000
2497.029807	145.000000
2498.512899	168.400000
2499.994102	140.200000
2501.475035	124.200000
2502.954078	129.200000
2504.432854	125.200000
2505.911361	130.200000
2507.389599	125.400000
2508.867570	140.000000
2510.342035	145.400000
2511.819470	141.800000
2513.293400	152.600000
2514.768682	149.000000
2516.243696	123.800000
2517.715209	123.600000
2519.188073	135.800000
2520.659054	138.800000
2522.131385	119.400000
2523.598602	148.200000
2525.068786	125.400000
2526.537089	118.600000
2528.005126	116.600000
2529.472899	139.200000
2530.940407	120.400000
2532.407651	157.800000
2533.871402	139.400000
2535.336503	130.000000
2536.799727	130.400000
2538.264300	121.200000
2539.725385	141.200000
2541.187819	121.600000
2542.649990	140.600000
2544.108674	117.200000
2545.571931	140.000000
2547.030091	135.200000
2548.489601	124.200000
2549.944016	145.400000
2551.403002	132.600000
2552.860116	104.200000
2554.315358	158.800000
2555.770340	132.400000
2557.223452	130.800000
2558.677913	152.800000
2560.130505	120.200000
2561.582837	135.000000
2563.033301	127.200000
2564.486722	144.400000
2565.935060	140.800000
2567.386353	122.000000
2568.835780	132.800000
2570.281736	141.400000
2571.730646	139.400000
2573.176085	126.400000
2574.622873	120.000000
2576.067797	140.400000
2577.512464	130.600000
2578.958478	143.800000
2580.401025	126.800000
2581.844920	129.800000
2583.285350	144.800000
2584.727128	136.800000
2586.167046	120.800000
2587.608311	127.800000
2589.046114	130.000000
2590.486867	103.200000
2591.922558	126.400000
2593.361197	128.600000
2594.797980	139.400000
2596.232907	133.800000
2597.670781	132.800000
2599.103598	126.000000
2600.537762	130.200000
2601.970071	129.800000
2603.403728	122.000000
2604.835530	144.400000
2606.267080	112.000000
2607.698376	123.800000
2609.127821	135.200000
2610.557013	139.800000
2611.984354	146.200000
2613.413042	124.400000
2614.841477	115.600000
2616.266466	113.600000
2617.692800	148.800000
2619.117287	143.400000
2620.543118	116.200000
2621.965507	147.200000
2623.389240	132.000000
2624.811128	116.200000
2626.232765	135.200000
2627.652558	110.200000
2629.073696	119.200000
2630.494584	119.800000
2631.912033	125.800000
2633.332422	132.200000
2634.749374	112.200000
2636.166078	107.000000
2637.582533	122.400000
2638.998740	114.600000
2640.414699	131.000000
2641.828817	99.400000
2643.242687	123.400000
2644.654718	119.200000
2646.068094	147.200000
2647.478040	129.800000
2648.890922	133.800000
2650.300375	134.200000
2651.709582	140.000000
2653.116953	108.400000
2654.527258	113.600000
2655.935727	130.800000
2657.342362	118.600000
2658.748750	125.800000
2660.153306	111.200000
2661.559205	138.200000
2662.963270	136.600000
2664.367092	150.600000
2665.770669	129.800000
2667.172415	123.600000
2668.575504	121.200000
2669.975175	131.200000
2671.376190	135.400000
2672.773789	125.400000
2674.174317	144.200000
2675.571431	113.000000
2676.969888	106.800000
2678.366517	147.200000
2679.762905	127.200000
2681.159050	111.800000
2682.553369	136.000000
2683.949031	127.400000
2685.341284	133.600000
2686.734879	126.800000
2688.126650	124.000000
2689.519764	118.600000
2690.911053	119.800000
2692.300521	120.000000
2693.689748	110.600000
2695.078735	132.200000
2696.469065	129.000000
2697.854411	124.600000
2699.242680	134.800000
2700.629129	146.200000
2702.015339	124.800000
2703.401310	111.800000
2704.783883	133.200000
2706.167798	145.600000
2707.551474	115.600000
2708.934913	137.800000
2710.314956	142.400000
2711.696341	114.600000
2713.075910	122.200000
2714.456821	116.600000
2715.835917	157.200000
2717.213199	125.600000
2718.591822	127.600000
2719.968631	129.400000
2721.345205	104.800000
2722.721543	126.000000
2724.096069	121.800000
2725.471936	140.000000
2726.844416	109.200000
2728.219813	136.800000
2729.590249	102.800000
2730.962025	139.600000
2732.333568	121.200000
2733.703302	113.800000
2735.074376	126.400000
2736.443643	113.600000
2737.812676	134.800000
2739.179903	134.600000
2740.546896	116.600000
2741.913657	119.800000
2743.280185	89.000000
2744.644909	112.600000
2746.009400	108.400000
2747.373659	119.800000
2748.737687	144.400000
2750.101482	129.000000
2751.461905	128.600000
2752.825237	134.800000
2754.183627	108.600000
2755.544927	141.200000
2756.902857	131.400000
2758.263695	141.000000
2759.622733	122.600000
2760.978403	124.400000
2762.336982	123.400000
2763.692193	124.200000
2765.047175	130.200000
2766.400360	133.600000
2767.756452	126.000000
2769.109180	126.600000
2770.461679	126.800000
2771.813951	93.400000
2773.167560	105.400000
2774.517808	108.400000
2775.866263	120.800000
2777.217622	121.200000
2778.565622	116.400000
2779.914961	107.000000
2781.262507	117.800000
2782.609827	120.800000
2783.956919	130.200000
2785.302221	95.400000
2786.647297	142.000000
2787.992147	130.000000
2789.336771	120.800000
2790.678043	135.000000
2792.020652	135.000000
2793.363037	141.600000
2794.705196	123.200000
2796.044006	107.000000
2797.385716	106.400000
2798.724077	101.600000
2800.063776	137.400000
2801.401689	135.000000
2802.737818	133.000000
2804.073724	119.200000
2805.410967	103.600000
2806.746425	101.000000
2808.081661	106.600000
2809.415115	117.800000
2810.749905	98.000000
2812.081354	112.000000
2813.415699	133.800000
2814.745146	109.200000
2816.075930	110.600000
2817.406492	119.800000
2818.735275	120.800000
2820.065395	113.800000
2821.393736	87.200000
2822.721855	137.200000
2824.048198	104.000000
2825.375876	121.200000
2826.700222	102.600000
2828.025904	123.600000
2829.349810	115.000000
2830.673496	118.200000
2831.998518	124.800000
2833.320211	103.000000
2834.641685	129.200000
2835.962939	123.600000
2837.283975	112.000000
2838.603239	139.400000
2839.923838	128.000000
2841.242665	123.800000
2842.561274	121.000000
2843.878113	127.600000
2845.194734	105.600000
2846.511138	104.400000
2847.825772	115.800000
2849.141741	96.000000
2850.454391	120.000000
2851.768375	108.000000
2853.082143	111.200000
2854.395694	108.000000
2855.707479	78.400000
2857.017497	110.800000
2858.328850	114.000000
2859.636888	102.000000
2860.946260	131.400000
2862.255417	125.200000
2863.564359	144.400000
2864.871538	134.400000
2866.176953	134.800000
2867.483703	127.800000
2868.788691	105.400000
2870.093464	102.200000
2871.396477	110.200000
2872.702370	122.800000
2874.003409	122.400000
2875.305781	120.200000
2876.606395	78.400000
2877.908341	84.000000
2879.210075	112.200000
2880.508505	105.800000
2881.808268	147.400000
2883.106274	107.600000
2884.404068	102.600000
2885.700105	101.600000
2886.997476	109.400000
2888.293092	89.200000
2889.588496	124.000000
2890.883689	118.000000
2892.175585	121.800000
2893.470356	113.800000
2894.761832	116.600000
2896.054640	117.000000
2897.347238	91.600000
2898.636541	115.000000
2899.927178	122.600000
2901.216063	63.800000
2902.506280	102.800000
2903.793206	116.400000
2905.081464	81.400000
2906.367973	125.200000
2907.654273	119.000000
2908.940365	111.000000
2910.224709	123.200000
2911.511925	100.600000
2912.794314	133.800000
2914.078035	115.400000
2915.360009	116.800000
2916.641777	73.800000
2917.921799	116.600000
2919.204691	87.800000
2920.485838	84.400000
2921.763703	91.000000
2923.044437	102.800000
2924.321890	107.600000
2925.599138	92.400000
2926.874643	109.600000
2928.153016	121.800000
2929.426575	101.400000
2930.703001	136.000000
2931.977685	94.600000
2933.250630	121.800000
2934.524906	96.800000
2935.797441	115.200000
2937.069773	92.400000
2938.338832	95.400000
2939.610756	107.600000
2940.880942	121.000000
2942.150924	95.800000
2943.420703	91.600000
2944.688746	129.600000
2945.955052	108.600000
2947.221156	90.600000
2948.488591	70.000000
2949.754290	119.200000
2951.019788	109.600000
2952.285083	94.800000
2953.547113	102.000000
2954.810473	112.400000
2956.073632	123.600000
2957.335058	79.000000
2958.597815	111.400000
2959.858839	102.800000
2961.118133	115.400000
2962.377226	96.400000
2963.636120	91.600000
2964.894812	127.000000
2966.153305	101.600000
2967.410069	86.800000
2968.666634	103.600000
2969.921470	100.400000
2971.177636	90.600000
2972.430547	110.200000
2973.684786	111.400000
2974.938827	92.200000
2976.191142	93.400000
2977.443259	116.600000
2978.693651	102.000000
2979.946898	114.400000
2981.195368	57.800000
2982.446693	125.200000
2983.694768	107.400000
2984.942646	124.200000
2986.190328	91.200000
2987.437812	100.000000
2988.683575	106.600000
2989.929141	89.000000
2991.176036	95.400000
2992.419686	108.800000
2993.664663	99.000000
2994.906398	100.400000
2996.150984	108.800000
2997.393851	97.200000
2998.633477	92.000000
2999.875953	91.800000
3001.115189	100.800000
3002.355753	92.400000
3003.594600	109.800000
3004.833253	88.000000
3006.070190	104.400000
3007.308455	103.000000
3008.545004	89.000000
3009.781360	111.200000
3011.017522	94.000000
3012.251970	86.800000
3013.486225	108.200000
3014.720287	114.200000
3015.952637	97.400000
3017.183275	103.800000
3018.416759	97.200000
3019.648532	99.800000
3020.878593	96.600000
3022.108463	106.200000
3023.336623	108.200000
3024.566110	103.400000
3025.793887	105.400000
3027.021473	114.600000
3028.250385	105.800000
3029.474555	96.800000
3030.701568	67.000000
3031.925358	84.800000
3033.150473	86.600000
3034.373883	111.600000
3035.597102	96.800000
3036.818616	122.800000
3038.042971	83.200000
3039.262591	75.800000
3040.483537	95.600000
3041.704293	91.400000
3042.923347	108.000000
3044.143725	76.800000
3045.360887	120.000000
3046.579374	100.800000
3047.796160	94.200000
3049.012757	100.600000
3050.229167	106.600000
3051.442363	76.000000
3052.658397	78.600000
3053.871219	88.400000
3055.086878	98.600000
3056.297814	88.200000
3057.510076	89.000000
3058.722150	81.000000
3059.934038	85.200000
3061.144229	95.400000
3062.354233	81.800000
3063.564051	74.600000
3064.772173	99.000000
3065.980110	75.400000
3067.186351	111.400000
3068.393917	113.400000
3069.599788	103.900000
3070.805474	94.400000
3072.010976	101.600000
3073.214784	97.200000
3074.419916	102.800000
3075.623355	118.200000
3076.825102	81.600000
3078.026666	105.800000
3079.228046	106.600000
3080.429242	107.800000
3081.628748	99.600000
3082.828071	95.600000
3084.028717	100.800000
3085.227673	78.800000
3086.423434	92.000000
3087.622025	82.400000
3088.817422	92.200000
3090.014143	69.800000
3091.207671	92.200000
3092.404027	90.000000
3093.598696	89.400000
3094.790175	104.000000
3095.985986	76.000000
3097.177102	98.200000
3098.369542	99.600000
3099.558793	102.800000
3100.750871	110.200000
3101.941265	69.400000
3103.128473	77.400000
3104.317003	99.800000
3105.506856	102.200000
3106.693524	75.000000
3107.880013	55.200000
3109.066323	98.200000
3110.253954	76.800000
3111.438403	83.600000
3112.621173	92.200000
3113.806765	101.200000
3114.990678	92.800000
3116.172911	122.200000
3117.354967	69.600000
3118.536844	82.200000
3119.718543	97.400000
3120.898565	91.800000
3122.076910	91.000000
3123.258075	99.600000
3124.436065	109.800000
3125.613878	114.800000
3126.791514	98.600000
3127.967475	98.200000
3129.143260	84.800000
3130.320365	98.000000
3131.495797	88.200000
3132.669555	90.400000
3133.841640	104.800000
3135.015046	88.400000
3136.188277	102.000000
3137.359836	86.800000
3138.532715	95.000000
3139.702427	88.000000
3140.873460	91.400000
3142.042822	101.200000
3143.210515	68.600000
3144.381023	84.200000
3145.546872	84.200000
3146.717031	84.600000
3147.882532	80.200000
3149.047860	61.400000
3150.213014	85.800000
3151.377995	102.200000
3152.544295	96.400000
3153.705942	73.600000
3154.868910	82.600000
3156.031705	80.600000
3157.194326	85.400000
3158.355283	92.000000
3159.516068	81.400000
3160.676680	81.800000
3161.835628	80.600000
3162.994405	84.400000
3164.153009	71.200000
3165.311442	88.000000
3166.469703	98.000000
3167.626303	90.600000
3168.781241	88.000000
3169.937498	89.600000
3171.092094	85.600000
3172.246520	98.800000
3173.399285	87.800000
3174.551881	87.200000
3175.704307	77.000000
3176.856562	112.400000
3178.008648	81.200000
3179.157587	83.400000
3180.309333	99.000000
3181.459422	101.000000
3182.607853	67.200000
3183.756116	88.600000
3184.904210	93.800000
3186.052135	58.800000
3187.198404	82.000000
3188.344505	89.800000
3189.488952	62.400000
3190.633230	91.400000
3191.777341	83.800000
3192.922770	61.400000
3194.065060	77.000000
3195.207182	112.400000
3196.349138	71.200000
3197.490926	101.600000
3198.632547	92.800000
3199.771033	51.600000
3200.910836	74.400000
3202.051956	69.000000
3203.189943	56.600000
3204.326279	90.800000
3205.462451	74.000000
3206.599939	75.000000
3207.735779	71.200000
3208.872936	94.400000
3210.005480	86.600000
3211.142305	83.600000
3212.274520	113.200000
3213.408051	83.200000
3214.541417	81.400000
3215.671657	75.800000
3216.804694	89.400000
3217.934605	109.800000
3219.065832	74.200000
3220.193934	103.400000
3221.324834	76.000000
3222.454089	58.600000
3223.581701	77.800000
3224.706190	61.600000
3225.834955	101.400000
3226.960598	74.200000
3228.086078	84.800000
3229.209917	89.600000
3230.336551	60.000000
3231.458587	66.000000
3232.581939	89.800000
3233.705128	70.400000
3234.828156	75.000000
3235.949544	57.600000
3237.070771	71.800000
3238.190359	99.800000
3239.309786	85.600000
3240.427576	68.600000
3241.548157	66.000000
3242.665625	72.400000
3243.782932	66.600000
3244.900079	78.000000
3246.015589	79.200000
3247.132415	80.800000
3248.246130	99.400000
3249.362636	57.200000
3250.477506	81.400000
3251.589268	63.600000
3252.700871	54.200000
3253.813789	83.800000
3254.926547	55.600000
3256.036199	77.600000
3257.147166	92.000000
3258.257974	76.800000
3259.367150	82.800000
3260.474695	76.600000
3261.583555	95.600000
3262.692256	60.800000
3263.797855	89.400000
3264.904769	81.200000
3266.010053	63.600000
3267.116651	78.400000
3268.220149	73.000000
3269.324961	67.200000
3270.429616	67.800000
3271.531173	89.400000
3272.632573	61.200000
3273.735287	96.400000
3274.837845	71.600000
3275.937306	68.600000
3277.039551	86.400000
3278.138700	85.200000
3279.236224	81.800000
3280.333594	75.000000
3281.433745	90.400000
3282.530804	84.000000
3283.627707	68.600000
3284.724455	58.600000
3285.816644	87.800000
3286.913083	68.000000
3288.007899	58.600000
3289.102560	72.800000
3290.195600	82.200000
3291.288486	70.200000
3292.379751	80.400000
3293.472329	91.600000
3294.563287	88.800000
3295.652625	94.000000
3296.741810	81.800000
3297.832307	51.800000
3298.919721	99.600000
3300.006981	91.400000
3301.095554	59.800000
3302.183974	60.400000
3303.267848	67.000000
3304.355963	57.800000
3305.440996	57.800000
3306.524414	80.200000
3307.609144	91.000000
3308.692258	54.600000
3309.776684	84.400000
3310.858033	85.000000
3311.940693	66.600000
3313.021738	52.200000
3314.102633	78.000000
3315.181915	76.800000
3316.261046	67.800000
3317.341489	64.600000
3318.418857	68.400000
3319.497537	66.000000
3320.574605	92.400000
3321.651523	78.600000
3322.726831	87.800000
3323.801989	58.800000
3324.878458	48.200000
3325.951857	77.600000
3327.025106	70.600000
3328.099667	67.600000
3329.172619	64.400000
3330.243962	46.000000
3331.316616	70.600000
3332.386203	74.800000
3333.457101	74.000000
3334.526393	81.600000
3335.596994	72.600000
3336.665989	61.000000
3337.733379	59.600000
3338.799163	69.800000
3339.869173	62.600000
3340.936120	87.400000
3342.000005	54.200000
3343.066657	44.200000
3344.131706	78.000000
3345.195151	60.600000
3346.258450	61.600000
3347.321602	67.200000
3348.384608	83.400000
3349.447468	95.400000
3350.508725	75.600000
3351.566926	47.000000
3352.629348	89.400000
3353.688714	59.800000
3354.747934	95.200000
3355.808463	70.800000
3356.864484	74.600000
3357.923268	87.000000
3358.977545	65.200000
3360.034586	76.600000
3361.090028	42.200000
3362.146780	94.800000
3363.201933	63.800000
3364.255489	55.800000
3365.307448	81.400000
3366.362170	83.200000
3367.413842	48.800000
3368.465370	42.800000
3369.518208	98.400000
3370.567998	81.200000
3371.619097	85.800000
3372.667149	70.600000
3373.717962	75.000000
3374.765729	65.200000
3375.813354	71.400000
3376.860837	38.600000
3377.906727	75.600000
3378.953925	79.400000
3379.998080	54.600000
3381.044995	82.200000
3382.090317	64.200000
3383.132598	78.800000
3384.174738	77.000000
3385.218187	52.800000
3386.261494	55.000000
3387.303211	72.800000
3388.344788	49.600000
3389.386223	44.200000
3390.426070	86.400000
3391.464328	67.400000
3392.503894	81.800000
3393.543320	47.600000
3394.581158	72.000000
3395.617409	93.400000
3396.653520	47.600000
3397.690939	96.600000
3398.725325	60.200000
3399.761019	98.800000
3400.796573	69.400000
3401.829095	69.200000
3402.864371	69.400000
3403.896617	51.400000
3404.928723	55.800000
3405.959247	62.200000
3406.991077	56.600000
3408.022769	77.000000
3409.051433	75.600000
3410.079960	79.400000
3411.109793	63.800000
3412.139489	89.200000
3413.166159	55.800000
3414.194135	91.000000
3415.219087	52.200000
3416.246790	83.200000
3417.271468	74.000000
3418.297453	59.200000
3419.321859	73.000000
3420.346128	53.800000
3421.368818	84.600000
3422.391372	69.200000
3423.415232	81.000000
3424.436072	47.800000
3425.456776	87.200000
3426.478786	54.400000
3427.497778	78.400000
3428.516635	57.200000
3429.536798	45.800000
3430.553944	83.200000
