-118.702670	28.201099
-116.033069	21.265934
-113.366404	16.403596
-110.700491	13.204995
-108.037511	11.261039
-105.373100	10.162637
-102.711620	9.500699
-100.048711	6.441958
-97.390908	4.107692
-94.731676	4.773427
-92.073192	5.044755
-89.417633	3.732867
-86.760644	4.247552
-84.108754	3.051748
-81.455434	0.418182
-78.805033	0.272727
-76.153204	1.937063
-73.506465	4.619580
-70.858296	3.103497
-68.210870	-1.093706
-65.566359	0.567832
-62.920418	1.068531
-60.279559	4.583217
-57.637271	5.601399
-54.997892	7.707692
-52.357084	9.593007
-49.717015	7.767832
-47.082020	7.970629
-44.445595	8.468531
-41.812073	4.633566
-39.177123	1.159441
-36.547239	-2.601399
-33.913761	-1.479720
-31.285346	-3.194406
-28.657665	-0.888112
-26.028555	-4.815385
-23.404503	-3.481119
-20.776860	-4.601399
-18.154272	-9.012587
-15.532414	-4.274126
-12.911287	6.546853
-10.290891	17.422378
-7.673382	29.379021
-5.054445	35.612587
-2.438394	41.152448
0.176930	43.369231
2.791525	41.544056
5.403239	35.152448
8.016381	28.047552
10.624489	18.355245
13.236178	11.609790
15.842837	12.613986
18.450925	15.195804
21.058287	14.818182
23.660625	9.927273
26.266542	7.556643
28.867436	4.556643
31.469758	5.100699
34.067062	6.559441
36.667943	4.314685
39.263808	6.288112
41.861101	5.422378
44.457675	7.918881
47.049240	7.956643
49.642234	6.846154
52.232366	4.839161
54.823925	2.556643
57.412626	1.973427
60.002753	-3.829371
62.587881	-3.600000
65.174437	-2.313287
67.760278	-4.869930
70.343266	-1.345455
72.927681	-3.008392
75.504967	2.400000
78.085818	3.211189
80.663822	3.616783
83.241114	4.777622
85.819834	7.264336
88.393571	6.065734
90.968735	7.988811
93.541056	13.067133
96.112670	16.970629
98.681443	14.549650
101.251643	15.286713
103.819004	13.660140
106.387792	16.323077
108.953743	12.248951
111.516859	9.264336
114.083531	6.330070
116.640981	5.965035
119.204117	6.117483
121.762294	15.418182
124.324025	25.602797
126.880799	31.234965
129.438999	46.815385
131.992247	72.311888
134.544797	97.597203
137.100897	132.587413
139.652049	164.911888
142.202504	197.567832
144.752261	224.779021
147.299199	251.517483
149.845442	272.630769
152.393110	288.120280
154.940082	290.429371
157.482118	290.970629
160.023462	293.763636
162.564112	292.762238
165.106187	285.538462
167.645452	290.696503
170.181907	290.815385
172.717672	292.858741
175.254862	296.791608
177.791361	298.286713
180.325054	300.012587
182.855943	298.763636
185.386144	298.051748
187.917771	300.044755
190.446596	293.539860
192.972622	289.969231
195.497962	288.261538
198.024727	287.580420
200.548696	284.608392
203.071979	285.046154
205.594578	284.738462
208.114384	278.800000
210.633507	282.218182
213.151947	285.362238
215.671812	288.121678
218.184674	291.660140
220.701068	290.156643
223.216781	293.348252
225.727603	298.413986
228.239850	295.302098
230.749314	292.604196
233.258100	293.022378
235.766208	293.075524
238.275740	287.676923
240.780391	289.613986
243.284366	289.977622
245.789765	290.004196
248.290289	294.226573
250.794336	294.384615
253.291413	297.667133
255.792012	299.234965
258.289840	298.170629
260.786995	295.314685
263.283478	297.440559
265.775097	298.855944
268.270236	295.981818
270.762608	293.165035
273.254310	293.096503
275.743249	292.906294
278.233611	298.660140
280.721212	299.053147
283.206053	294.939860
285.694409	294.559441
288.175825	296.086713
290.660755	291.608392
293.140839	289.815385
295.624436	292.239161
298.103191	290.702098
300.583368	287.146853
303.060794	286.496503
305.537556	287.176224
308.013654	293.695105
310.487004	293.307692
312.959693	292.489510
315.431720	295.521678
317.903085	299.370629
320.371707	297.020979
322.839669	293.879720
325.309054	295.626573
327.773616	297.223776
330.241682	296.739860
332.704927	296.299301
335.167516	296.018182
337.629448	298.012587
340.090723	297.239161
342.549263	297.216783
345.009226	295.334266
347.466457	297.998601
349.923033	291.906294
352.378955	288.580420
354.832147	289.295105
357.286762	293.148252
359.736575	290.071329
362.189884	285.296503
364.638394	283.116084
367.086254	284.584615
369.535536	282.153846
371.980023	286.195804
374.425933	290.500699
376.871194	294.351049
379.313736	296.261538
381.755630	301.518881
384.196876	301.688112
386.635408	306.746853
389.075360	302.567832
391.512599	296.882517
393.947127	295.432168
396.385141	291.037762
398.818380	285.713287
401.253039	285.927273
403.682926	286.832168
406.116298	289.572028
408.544900	292.328671
410.972860	293.511888
413.402241	292.349650
415.826858	292.366434
418.252895	287.797203
420.678293	284.878322
423.103050	284.037762
425.523048	281.486713
427.944468	278.187413
430.363192	277.633566
432.783335	285.993007
435.200784	292.798601
437.619654	299.910490
440.035829	300.232168
442.447258	296.179021
444.862163	294.225175
447.274378	295.904895
449.685960	296.068531
452.096907	296.788811
454.505167	292.325874
456.912796	285.293706
459.319792	287.395804
461.726157	290.647552
464.129839	288.247552
466.532891	290.721678
468.935313	285.641958
471.337105	286.760839
473.736219	291.204196
476.136753	295.567832
478.536658	295.044755
480.931841	297.356643
483.330489	293.451748
485.724418	291.507692
488.117721	293.135664
490.510399	290.447552
492.902451	289.552448
495.295921	291.749650
497.684679	292.920280
500.070771	291.899301
502.458283	294.425175
504.845172	294.096503
507.229396	295.661538
509.615040	294.674126
511.998022	292.169231
514.378342	291.079720
516.760083	291.386014
519.139164	292.422378
521.519663	296.604196
523.897506	299.201399
526.272692	300.766434
528.647261	292.597203
531.023249	294.601399
533.396584	293.117483
535.771336	295.532867
538.141402	290.465734
540.510854	290.471329
542.881723	289.328671
545.247911	291.251748
547.615518	293.584615
549.980479	295.500699
552.344828	298.097902
554.708563	299.460140
557.073716	293.397203
559.434197	297.033566
561.796095	298.109091
564.155354	298.795804
566.511974	296.408392
568.872040	296.483916
571.225414	296.020979
573.582233	295.889510
575.936417	296.274126
578.289992	297.299301
580.642960	295.123077
582.993295	293.006993
585.345048	290.303497
587.690124	288.604196
590.040663	289.819580
592.384530	289.030769
594.733858	291.420979
597.078537	295.352448
599.420592	295.395804
601.764064	295.706294
604.104913	294.711888
606.445159	298.257343
608.782785	294.097902
611.123846	293.776224
613.460270	294.005594
615.798110	293.430769
618.133333	295.660140
620.465939	295.344056
622.799963	301.636364
625.131372	304.220979
627.462183	301.395804
629.792396	300.991608
632.122012	300.766434
634.447004	304.230769
636.777438	300.430769
639.103251	302.973427
641.426456	299.730070
643.751078	297.690909
646.073094	293.868531
648.394516	292.068531
650.713335	293.475524
653.033571	296.314685
655.353212	297.376224
657.670254	300.241958
659.986703	304.120280
662.300554	304.341259
664.615821	305.415385
666.928491	308.067133
669.242576	302.183217
671.552061	302.548252
673.862962	299.226573
676.171270	299.586014
678.478989	300.703497
680.788124	300.232168
683.092666	297.868531
685.396622	296.825175
687.699991	291.198601
690.004776	287.064336
692.304973	284.246154
694.606586	284.369231
696.907613	281.530070
699.204059	285.153846
701.501920	286.061538
703.799197	296.707692
706.095891	306.138462
708.388009	307.274126
710.683538	312.857343
712.974493	313.240559
715.266863	311.598601
717.556657	313.869930
719.845872	311.220979
722.134507	311.053147
724.420569	305.179021
726.708045	306.545455
728.992951	302.616783
731.277279	312.537063
733.559038	315.731469
735.842211	315.118881
738.124807	317.892308
740.402847	316.632168
742.682301	315.753846
744.961180	311.309091
747.239484	308.823776
749.513237	307.636364
751.788405	301.650350
754.062999	304.048951
756.335034	299.602797
758.608482	306.953846
760.879372	308.748252
763.147706	313.632168
765.417453	317.776224
767.684645	314.423776
769.951268	308.441958
772.217320	305.928671
774.480821	310.027972
776.745734	309.180420
779.010079	305.790210
781.269893	308.206993
783.531121	305.158042
785.791781	306.240559
788.049895	300.669930
790.305464	301.419580
792.564423	299.149650
794.816884	293.890909
797.074712	297.718881
799.328021	302.776224
801.578790	309.952448
803.830971	310.132867
806.080613	312.195804
808.331667	316.004196
810.578210	315.169231
812.826166	310.279720
815.071586	303.096503
817.318419	301.833566
819.564689	293.811189
821.806456	291.200000
824.051605	296.801399
826.290283	296.826573
828.532342	297.374825
830.769903	297.749650
833.008876	298.895105
835.245322	301.565035
837.483179	307.248951
839.718511	305.692308
841.951320	308.276923
844.185539	308.173427
846.417237	303.009790
848.648380	306.855944
850.878968	308.632168
853.109002	308.488112
855.338481	305.825175
857.563480	308.967832
859.791852	310.938462
862.015746	314.653147
864.241051	319.654545
866.461880	317.465734
868.686081	317.013986
870.905809	313.780420
873.126947	312.106294
875.347535	310.949650
877.565614	306.935664
879.785102	303.646154
882.000124	300.222378
884.214598	303.606993
886.428525	307.009790
888.641904	306.594406
890.854737	308.102098
893.067022	312.302098
895.276806	313.479720
897.486044	312.448951
899.694737	310.053147
901.900930	306.114685
904.108533	303.262937
906.313639	301.226573
908.518201	300.137063
910.720268	300.479720
912.923744	298.535664
915.124726	295.297902
917.325166	295.837762
919.527015	300.415385
921.722473	298.841958
923.921289	300.331469
926.115668	300.953846
928.313404	302.892308
930.506704	302.366434
932.701413	306.233566
934.893635	306.197203
937.085320	307.486713
939.276467	303.558042
941.465131	302.311888
943.653259	304.037762
945.838905	309.956643
948.027905	310.193007
950.212480	316.090909
952.396521	318.349650
954.583913	320.987413
956.763000	319.963636
958.945438	320.127273
961.127342	315.345455
963.306771	310.717483
965.483728	308.292308
967.662093	309.537063
969.841865	306.937063
972.015288	309.116084
974.192057	308.048951
976.364419	309.620979
978.538189	314.314685
980.707555	318.545455
982.880265	318.647552
985.050510	320.430769
987.220225	317.260140
989.389412	315.299301
991.554202	313.860140
993.722334	314.148252
995.886070	308.465734
998.051214	312.988811
1000.213898	310.552448
1002.376057	311.338462
1004.535759	314.815385
1006.694936	315.099301
1008.855520	314.341259
1011.013649	314.710490
1013.171255	308.545455
1015.328337	305.376224
1017.484895	299.148252
1019.637074	301.927273
1021.790660	301.261538
1023.943724	306.897902
1026.094339	310.608392
1028.246360	315.843357
1030.394009	319.888112
1032.544989	322.648951
1034.691598	326.381818
1036.837688	329.053147
1038.983260	327.532867
1041.130237	329.723077
1043.270925	324.813986
1045.414942	324.805594
1047.556520	323.528671
1049.697580	325.234965
1051.840046	323.753846
1053.976231	322.489510
1056.115743	319.525874
1058.250899	317.667133
1060.389380	317.267133
1062.523508	316.753846
1064.657122	314.902098
1066.792140	315.296503
1068.922810	312.595804
1071.054884	315.851748
1073.184528	316.597203
1075.313661	319.335664
1077.442283	320.772028
1079.570393	324.349650
1081.696077	323.083916
1083.821251	323.160839
1085.947829	327.320280
1088.070069	324.948252
1090.193714	322.725874
1092.313024	321.570629
1094.437563	318.541259
1096.555858	323.230769
1098.675556	321.826573
1100.792837	325.186014
1102.909610	327.194406
1105.025877	324.787413
1107.139729	326.081119
1109.254984	329.565035
1111.365917	335.363636
1113.480162	336.458741
1115.590086	334.932867
1117.701413	335.339860
1119.812237	333.225175
1121.918744	337.099301
1124.028560	335.104895
1126.134062	337.960839
1128.240968	336.833566
1130.341658	331.836364
1132.447560	330.444755
1134.549153	329.893706
1136.652148	328.180420
1138.754644	325.655944
1140.850932	321.425175
1142.952427	323.420979
1145.049620	321.993007
1147.146314	325.485315
1149.242511	327.572028
1151.338209	332.394406
1153.433410	335.132867
1155.526214	334.618182
1157.620420	336.039161
1159.708435	337.478322
1161.801648	337.113287
1163.888674	337.524476
1165.978998	340.232168
1168.065034	339.037762
1170.154368	339.530070
1172.237521	339.805594
1174.322077	337.415385
1176.408034	334.293706
1178.489709	334.251748
1180.572785	332.132867
1182.653476	330.981818
1184.733676	327.615385
1186.813384	332.006993
1188.892601	336.987413
1190.969435	340.093706
1193.043889	339.247552
1195.121635	342.461538
1197.195110	344.623776
1199.269987	346.467133
1201.340596	344.692308
1203.412606	349.902098
1205.482240	348.201399
1207.553275	346.987413
1209.623822	346.745455
1211.690109	352.465734
1213.757796	354.711888
1215.823110	353.737063
1217.889825	352.864336
1219.952284	354.226573
1222.018029	355.570629
1224.079519	357.039161
1226.142410	357.018182
1228.202932	359.172028
1230.262972	357.048951
1232.322528	353.504895
1234.379720	352.608392
1236.436429	353.703497
1238.490776	354.665734
1240.548403	355.902098
1242.603668	360.914685
1244.654693	362.461538
1246.707117	362.604196
1248.759061	367.728671
1250.808647	371.430769
1252.857754	368.907692
1254.906382	369.048951
1256.954532	364.879720
1259.002204	371.152448
1261.045645	374.406993
1263.092362	376.069930
1265.136725	377.313287
1267.180611	383.423776
1269.222147	384.004196
1271.261333	383.346853
1273.303792	387.553846
1275.342028	392.137063
1277.381663	389.899301
1279.420822	395.088112
1281.455764	399.418182
1283.492104	407.962238
1285.526100	408.121678
1287.561493	412.311888
1289.592673	420.413986
1291.625252	429.802797
1293.657359	436.391608
1295.687125	443.787413
1297.718288	455.881119
1299.745244	468.130070
1301.773599	479.731469
1303.797748	495.415385
1305.825163	513.000000
1307.848375	535.558042
1309.872985	547.713287
1311.895260	553.751049
1313.918933	463.433566
1315.940273	80.104895
1317.961146	-554.194406
1319.981551	112.262937
1321.997763	3628.846154
1324.015372	9079.194406
1326.030653	14244.372028
1328.049193	18048.248951
1330.063543	20245.450350
1332.075568	20759.289510
1334.090851	19570.717483
1336.101948	16754.107692
1338.114441	12453.710490
1340.122752	7137.123077
1342.134319	2021.809790
1344.139847	-809.381818
1346.148630	-864.436364
1348.153235	33.932867
1350.161094	425.706294
1352.168491	480.376224
1354.169857	477.643357
1356.172619	467.767832
1358.174922	449.248951
1360.176765	438.932867
1362.178148	432.703497
1364.177217	426.044755
1366.175828	422.248951
1368.173981	418.179021
1370.171676	415.261538
1372.165208	413.918881
1374.160135	410.672727
1376.154606	402.683916
1378.148620	389.881119
1380.140327	385.453147
1382.131578	381.279720
1384.120524	386.737063
1386.110865	389.595804
1388.100752	384.928671
1390.088334	385.979021
1392.075463	382.451748
1394.060290	380.875524
1396.046512	375.795804
1398.030433	373.903497
1400.013902	372.619580
1401.996919	370.405594
1403.977638	370.930070
1405.959751	375.318881
1407.939567	381.826573
1409.918933	384.113287
1411.894160	383.781818
1413.872625	388.408392
1415.848797	391.307692
1417.824519	391.142657
1419.799792	392.296503
1421.772775	396.958042
1423.745309	403.237762
1425.717395	402.318881
1427.689034	404.359441
1429.656544	408.083916
1431.629128	406.360839
1433.593906	401.356643
1435.563757	398.250350
1437.529483	396.707692
1439.496603	394.590210
1441.461439	393.734266
1443.422155	397.834965
1445.387939	401.798601
1447.347768	403.570629
1449.308991	401.753846
1451.271605	402.918881
1453.230105	405.871329
1455.188163	402.981818
1457.145779	400.053147
1459.102952	401.246154
1461.057850	395.791608
1463.014141	395.556643
1464.968157	392.928671
1466.921732	394.946853
1468.873035	397.320280
1470.825730	395.629371
1472.776154	392.342657
1474.726139	389.335664
1476.675685	391.763636
1478.622962	387.420979
1480.567971	387.496503
1482.514373	386.862937
1484.460337	380.552448
1486.405864	379.039161
1488.349125	374.223776
1490.291950	376.956643
1492.232512	378.976224
1494.174466	380.811189
1496.114157	382.351049
1498.053413	383.934266
1499.992235	386.904895
1501.928797	388.215385
1503.866750	391.005594
1505.802444	396.151049
1507.737705	396.647552
1509.670709	397.243357
1511.603281	398.997203
1513.535421	399.700699
1515.467129	397.753846
1517.396584	395.468531
1519.327429	396.041958
1521.257842	394.802797
1523.184183	399.601399
1525.111914	401.444755
1527.037396	400.082517
1528.962448	405.104895
1530.887070	401.313287
1532.811264	405.460140
1534.733211	406.065734
1536.656548	400.773427
1538.577638	396.504895
1540.496484	394.886713
1542.416720	390.367832
1544.334712	389.510490
1546.252278	389.899301
1548.167603	387.692308
1550.084317	387.953846
1551.996975	394.275524
1553.912838	392.236364
1555.826462	397.829371
1557.737847	396.697902
1559.650622	397.272727
1561.559347	400.047552
1563.469461	399.254545
1565.379152	397.542657
1567.288420	396.039161
1569.195453	395.153846
1571.100254	398.727273
1573.006444	397.695105
1574.910403	397.588811
1576.813940	394.401399
1578.717057	393.620979
1580.617944	392.851748
1582.520220	392.139860
1584.420267	394.072727
1586.321703	395.448951
1588.219104	398.867133
1590.116088	394.565035
1592.012653	398.012587
1593.910605	397.535664
1595.802723	391.492308
1597.698035	389.955245
1599.592928	389.141259
1601.485601	384.864336
1603.377856	383.790210
1605.267892	383.142657
1607.157512	385.125874
1609.046717	385.173427
1610.935506	385.865734
1612.822079	384.928671
1614.710039	390.531469
1616.593982	391.023776
1618.479312	388.946853
1620.364229	388.044755
1622.246932	389.008392
1624.131022	384.640559
1626.011100	383.716084
1627.892566	384.372028
1629.771820	384.676923
1631.652462	382.325874
1633.527299	383.120280
1635.407117	387.615385
1637.282930	396.381818
1639.158334	399.546853
1641.035123	399.639161
1642.906115	402.430769
1644.780290	405.759441
1646.650465	407.572028
1648.523821	407.008392
1650.394974	405.331469
1652.263925	402.110490
1654.134262	397.155245
1656.000606	395.581818
1657.868335	396.362238
1659.733865	397.945455
1661.600781	395.050350
1663.463707	393.998601
1665.328020	392.316084
1667.190136	388.474126
1669.051847	389.616783
1670.914943	384.503497
1672.775845	385.920280
1674.634554	384.144056
1676.492859	384.313287
1678.352548	388.573427
1680.206471	390.897902
1682.063567	394.658741
1683.920259	397.692308
1685.772976	400.198601
1687.628864	400.820979
1689.480778	402.639161
1691.332291	404.910490
1693.183403	403.545455
1695.034114	406.923077
1696.884425	397.640559
1698.732552	399.520280
1700.582063	400.401399
1702.425824	400.622378
1704.274536	401.639161
1706.117501	399.457343
1707.963632	400.335664
1709.805802	403.037762
1711.651137	404.441958
1713.490730	402.541259
1715.331709	399.671329
1717.174070	399.962238
1719.012474	389.979021
1720.852262	394.886713
1722.689875	397.551049
1724.527093	397.193007
1726.362137	398.416783
1728.198564	394.572028
1730.032818	393.576224
1731.866679	393.574825
1733.700145	394.251748
1735.529665	391.239161
1737.362345	386.802797
1739.191079	386.076923
1741.022972	382.158042
1742.850922	390.381818
1744.678480	393.514685
1746.505647	394.413986
1748.332422	400.672727
1750.158805	403.556643
1751.981252	409.239161
1753.806854	416.802797
1755.628520	418.535664
1757.451569	418.198601
1759.272457	411.037762
1761.092955	409.784615
1762.914835	406.962238
1764.731015	409.000000
1766.550347	403.930070
1768.365752	402.404196
1770.184308	404.439161
1771.998938	409.265734
1773.813181	415.061538
1775.627038	417.205594
1777.440508	417.233566
1779.251824	421.921678
1781.064522	416.586014
1782.876834	422.928671
1784.685227	426.640559
1786.495002	429.479720
1788.300861	428.198601
1790.109867	431.206993
1791.914959	431.362238
1793.721432	431.840559
1795.527520	428.033566
1797.329699	422.314685
1799.135021	420.453147
1800.936435	425.440559
1802.739230	421.591608
1804.538118	425.742657
1806.338387	429.135664
1808.138274	431.779021
1809.936019	435.081119
1811.733384	438.355245
1813.530368	439.781818
1815.326972	442.054545
1817.121437	436.521678
1818.917282	433.051748
1820.707471	432.678322
1822.502557	435.514685
1824.291990	431.669930
1826.084561	434.195804
1827.874996	436.016783
1829.663296	437.269930
1831.454732	436.120280
1833.240523	440.955245
1835.027692	444.784615
1836.812731	443.454545
1838.600902	440.774825
1840.385188	436.882517
1842.167345	435.662937
1843.950881	439.735664
1845.732288	437.510490
1847.515073	438.079720
1849.293979	436.387413
1851.074263	438.667133
1852.852422	438.671329
1854.631958	443.746853
1856.409370	446.569231
1858.184659	447.128671
1859.961325	451.641958
1861.735869	453.223776
1863.511790	455.051748
1865.282092	456.276923
1867.055521	455.274126
1868.826830	452.272727
1870.597768	455.865734
1872.370084	455.851748
1874.136786	451.100699
1875.906613	450.667133
1877.672577	452.074126
1879.441665	452.183217
1881.206891	452.311888
1882.971749	450.724476
1884.737983	446.851748
1886.500359	445.724476
1888.262368	443.267133
1890.024010	443.121678
1891.785284	446.692308
1893.546192	445.674126
1895.306732	449.152448
1897.065164	459.443357
1898.823229	464.437762
1900.579187	470.104895
1902.336521	473.900699
1904.093490	476.739860
1905.848352	476.170629
1907.601109	474.827972
1909.353503	465.737063
1911.107273	468.019580
1912.858939	461.342657
1914.608502	458.800000
1916.359442	462.986014
1918.110018	467.128671
1919.856756	469.012587
1921.604869	473.932867
1923.350883	476.282517
1925.098273	479.374825
1926.843564	478.923077
1928.586758	479.972028
1930.331328	476.847552
1932.073801	479.401399
1933.815914	476.304895
1935.557668	477.460839
1937.299061	481.476923
1939.038361	478.971329
1940.777302	480.820979
1942.515884	479.568531
1944.252375	477.265734
1945.988507	477.155944
1947.726015	475.716084
1949.459700	478.844056
1951.194760	479.009790
1952.927731	478.530769
1954.660346	484.647552
1956.392604	488.582517
1958.124506	491.208392
1959.854323	493.510490
1961.582054	496.723077
1963.311160	501.924476
1965.039910	503.734266
1966.766577	505.310490
1968.492890	507.212587
1970.220577	508.261538
1971.942727	504.819580
1973.667978	504.406993
1975.389422	510.461538
1977.113966	507.509091
1978.836431	509.092308
1980.555092	513.904895
1982.276852	518.230769
1983.994811	522.995804
1985.714142	526.321678
1987.429674	528.994406
1989.150026	530.324476
1990.866580	531.386014
1992.579337	530.875524
1994.295190	534.910490
1996.008971	531.738462
1997.722402	528.797203
1999.433762	526.169231
2001.146494	527.430769
2002.855435	527.225175
2004.567470	525.682517
2006.273995	530.079720
2007.983613	530.318881
2009.691163	536.264336
2011.398366	541.998601
2013.103503	545.760839
2014.808293	553.398601
2016.514456	550.137063
2018.216835	554.020979
2019.920587	553.418182
2021.622276	554.027972
2023.323619	550.307692
2025.024618	549.721678
2026.723555	555.227972
2028.423864	555.303497
2030.120397	561.696503
2031.818302	566.808392
2033.514149	568.816783
2035.213081	574.714685
2036.906527	577.488112
2038.601344	581.797203
2040.295818	585.753846
2041.986525	585.299301
2043.680314	581.927273
2045.370338	584.311888
2047.061731	579.432168
2048.751072	571.366434
2050.441784	565.489510
2052.128732	562.341259
2053.815340	558.174825
2055.503319	557.858741
2057.187538	559.325874
2058.873127	559.400000
2060.558377	563.716084
2062.241579	566.772028
2063.926151	569.751049
2065.605259	569.274126
2067.289154	560.492308
2068.967587	561.909091
2070.649098	557.795804
2072.326857	557.925874
2074.004280	553.379021
2075.683072	551.820979
2077.359821	553.895105
2079.034529	556.293706
2080.710607	558.890909
2082.384643	568.176224
2084.058345	568.197203
2085.731711	574.654545
2087.403038	578.416783
2089.074031	586.790210
2090.744690	587.124476
2092.415015	586.930070
2094.085006	584.218182
2095.752960	586.026573
2097.420582	585.258741
2099.086170	588.320280
2100.753126	590.686713
2102.418049	593.290909
2104.082640	588.372028
2105.745199	592.626573
2107.409126	593.441958
2109.071022	598.237762
2110.732587	599.993007
2112.393822	598.373427
2114.053027	595.074126
2115.711903	600.040559
2117.370448	601.797203
2119.028664	605.057343
2120.683157	605.358042
2122.340714	605.331469
2123.997941	606.159441
2125.651448	607.861538
2127.306322	611.695105
2128.957477	613.955245
2130.611695	616.409790
2132.262195	614.654545
2133.914063	612.121678
2135.560522	615.244755
2137.211735	613.776224
2138.859236	611.560839
2140.508103	613.730070
2142.154951	617.793007
2143.801474	623.116084
2145.447671	627.679720
2147.090159	628.046154
2148.735706	633.514685
2150.377546	632.358042
2152.022443	626.781818
2153.663635	623.876923
2155.304503	622.591608
2156.945048	621.460140
2158.583580	619.180420
2160.223478	618.109091
2161.859676	617.293706
2163.497240	617.331469
2165.134482	617.699301
2166.769714	617.737063
2168.404624	625.265734
2170.039213	625.640559
2171.673481	630.058741
2173.304055	640.025175
2174.937681	647.507692
2176.567614	647.657343
2178.198914	653.581818
2179.828208	650.937063
2181.457183	647.106294
2183.085838	638.446154
2184.714174	634.732867
2186.340507	634.751049
2187.966522	633.646154
2189.590536	632.504895
2191.215915	634.741259
2192.839293	637.173427
2194.464036	638.552448
2196.085098	641.735664
2197.705843	652.240559
2199.327952	653.046154
2200.948064	655.641958
2202.566180	656.029371
2204.183980	660.019580
2205.801464	661.974825
2207.418634	659.878322
2209.035487	666.434965
2210.652026	664.579021
2212.266571	660.669930
2213.879125	659.015385
2215.493042	660.469930
2217.104968	662.751049
2218.718257	661.653147
2220.329555	663.061538
2221.938865	666.279720
2223.549537	670.062937
2225.158221	681.380420
2226.766593	691.496503
2228.372978	700.441958
2229.980725	702.300699
2231.586487	707.671329
2233.191937	711.345455
2234.795402	708.832168
2236.400230	707.580420
2238.003074	703.195804
2239.603935	707.841958
2241.206159	707.289510
2242.806401	708.983217
2244.408005	709.296503
2246.005956	709.246154
2247.605270	710.679720
2249.202604	713.177622
2250.799630	714.945455
2252.398017	714.748252
2253.992757	711.264336
2255.585519	712.117483
2257.179644	712.725874
2258.775130	716.839161
2260.366971	718.537063
2261.958506	716.731469
2263.551402	713.593007
2265.138990	716.941259
2266.731273	724.586014
2268.318249	727.939860
2269.908254	728.559441
2271.492954	726.349650
2273.082348	732.655944
2274.666439	733.380420
2276.251892	735.174825
2277.835376	736.048951
2279.421885	739.169231
2281.004761	734.718881
2282.587334	734.045455
2284.169603	734.967832
2285.748242	741.155944
2287.329906	738.791608
2288.907941	734.911189
2290.488999	732.781818
2292.066430	739.327972
2293.641898	739.861538
2295.220388	744.841259
2296.795254	751.330070
2298.369819	754.098601
2299.944083	762.808392
2301.518047	766.561538
2303.091711	767.903497
2304.665075	771.892308
2306.234820	773.739860
2307.804266	778.875524
2309.376730	774.800000
2310.943920	770.716084
2312.514127	770.339860
2314.080721	768.272727
2315.648673	771.061538
2317.214671	772.685315
2318.780371	779.075524
2320.345773	779.925874
2321.909222	783.762238
2323.474030	792.883916
2325.035229	803.156643
2326.599443	806.109091
2328.158396	802.050350
2329.720362	804.029371
2331.280378	803.846154
2332.840098	801.521678
2334.397870	804.267133
2335.955346	808.440559
2337.512528	809.344056
2339.067762	812.451748
2340.622702	814.558042
2342.177349	818.770629
2343.731702	824.537063
2345.285761	825.848951
2346.839527	829.980420
2348.391348	834.401399
2349.941226	835.309091
2351.494113	839.763636
2353.041756	844.197203
2354.592407	850.959441
2356.139468	856.051748
2357.687886	857.942657
2359.236013	856.697902
2360.780551	857.314685
2362.326447	863.078322
2363.870404	861.426573
2365.415719	859.676923
2366.957449	860.984615
2368.500537	859.044755
2370.041688	859.788811
2371.582550	861.068531
2373.123123	864.953846
2374.663407	870.323077
2376.203402	874.276923
2377.739818	875.269930
2379.279236	877.746853
2380.815077	883.728671
2382.352275	885.914685
2383.885897	891.441958
2385.422519	895.106294
2386.957211	895.193007
2388.489972	900.271329
2390.022448	906.180420
2391.552995	908.072727
2393.086540	915.818182
2394.614874	922.062937
2396.144564	921.430769
2397.673969	926.756643
2399.203089	932.041958
2400.731923	932.759441
2402.255553	937.135664
2403.783818	939.616783
2405.306880	945.011189
2406.834577	949.696503
2408.355434	955.738462
2409.880923	961.770629
2411.402853	968.882517
2412.926137	974.302098
2414.447501	975.976224
2415.966945	978.062937
2417.487744	978.353846
2419.006624	970.205594
2420.525223	972.018182
2422.041903	974.323077
2423.559939	981.573427
2425.077693	981.612587
2426.591895	985.313287
2428.105818	990.937063
2429.619460	988.486713
2431.134456	993.537063
2432.645905	995.958042
2434.158707	990.369231
2435.669597	989.781818
2437.180208	988.137063
2438.688907	989.548252
2440.200592	997.755245
2441.708734	1005.496503
2443.216598	1005.492308
2444.724183	1009.962238
2446.228229	1015.055944
2447.735259	1016.184615
2449.240381	1026.855944
2450.745226	1035.613986
2452.248164	1036.808392
2453.750825	1044.795804
2455.253211	1051.127273
2456.753690	1054.174825
2458.255524	1059.200000
2459.755452	1063.626573
2461.255105	1064.118881
2462.754483	1069.032168
2464.251958	1072.523077
2465.747531	1072.191608
2467.246084	1072.615385
2468.741109	1071.770629
2470.237486	1072.495105
2471.730337	1077.672727
2473.224541	1078.166434
2474.718471	1080.874126
2476.208877	1082.819580
2477.702261	1088.988811
2479.193747	1091.797203
2480.683336	1099.762238
2482.172653	1101.089510
2483.660074	1100.013986
2485.150471	1099.309091
2486.637350	1101.412587
2488.125580	1104.867133
2489.610293	1106.813986
2491.094736	1103.509091
2492.580531	1098.973427
2494.064434	1101.418182
2495.549687	1100.767832
2497.029807	1101.011189
2498.512899	1105.179021
2499.994102	1103.227972
2501.475035	1105.386014
2502.954078	1105.925874
2504.432854	1101.055944
2505.911361	1095.981818
2507.389599	1094.159441
2508.867570	1095.393007
2510.342035	1091.081119
2511.819470	1097.868531
2513.293400	1091.467133
2514.768682	1095.286713
2516.243696	1100.097902
2517.715209	1094.011189
2519.188073	1094.637762
2520.659054	1088.643357
2522.131385	1083.156643
2523.598602	1080.040559
2525.068786	1081.593007
2526.537089	1085.048951
2528.005126	1083.688112
2529.472899	1085.212587
2530.940407	1077.429371
2532.407651	1081.970629
2533.871402	1083.716084
2535.336503	1083.868531
2536.799727	1087.941259
2538.264300	1086.881119
2539.725385	1097.879720
2541.187819	1105.593007
2542.649990	1117.780420
2544.108674	1128.153846
2545.571931	1137.647552
2547.030091	1141.618182
2548.489601	1142.921678
2549.944016	1142.071329
2551.403002	1144.253147
2552.860116	1140.318881
2554.315358	1131.854545
2555.770340	1126.997203
2557.223452	1126.184615
2558.677913	1123.909091
2560.130505	1128.295105
2561.582837	1126.372028
2563.033301	1125.746853
2564.486722	1132.746853
2565.935060	1142.507692
2567.386353	1150.419580
2568.835780	1156.047552
2570.281736	1161.450350
2571.730646	1169.173427
2573.176085	1174.325874
2574.622873	1170.316084
2576.067797	1172.581818
2577.512464	1176.372028
2578.958478	1178.391608
2580.401025	1180.573427
2581.844920	1187.310490
2583.285350	1191.413986
2584.727128	1187.780420
2586.167046	1187.130070
2587.608311	1196.752448
2589.046114	1205.467133
2590.486867	1207.648951
2591.922558	1207.565035
2593.361197	1211.373427
2594.797980	1218.188811
2596.232907	1228.683916
2597.670781	1222.808392
2599.103598	1217.114685
2600.537762	1207.858741
2601.970071	1205.563636
2603.403728	1208.453147
2604.835530	1207.962238
2606.267080	1214.601399
2607.698376	1216.485315
2609.127821	1214.391608
2610.557013	1210.330070
2611.984354	1218.594406
2613.413042	1229.970629
2614.841477	1229.851748
2616.266466	1233.867133
2617.692800	1234.939860
2619.117287	1245.044755
2620.543118	1243.324476
2621.965507	1242.994406
2623.389240	1247.127273
2624.811128	1245.520280
2626.232765	1237.302098
2627.652558	1234.844755
2629.073696	1238.988811
2630.494584	1239.418182
2631.912033	1240.300699
2633.332422	1242.897902
2634.749374	1244.511888
2636.166078	1244.609790
2637.582533	1248.916084
2638.998740	1254.574825
2640.414699	1254.864336
2641.828817	1261.600000
2643.242687	1265.335664
2644.654718	1266.907692
2646.068094	1269.472727
2647.478040	1271.725874
2648.890922	1271.146853
2650.300375	1269.058741
2651.709582	1262.068531
2653.116953	1257.234965
2654.527258	1259.930070
2655.935727	1260.022378
2657.342362	1260.348252
2658.748750	1277.071329
2660.153306	1286.765035
2661.559205	1296.225175
2662.963270	1313.034965
2664.367092	1319.218182
2665.770669	1317.780420
2667.172415	1322.166434
2668.575504	1316.209790
2669.975175	1315.402797
2671.376190	1311.788811
2672.773789	1306.367832
2674.174317	1305.839161
2675.571431	1310.669930
2676.969888	1304.914685
2678.366517	1304.538462
2679.762905	1304.718881
2681.159050	1297.043357
2682.553369	1293.474126
2683.949031	1291.497902
2685.341284	1287.966434
2686.734879	1286.062937
2688.126650	1286.860140
2689.519764	1285.205594
2690.911053	1288.349650
2692.300521	1285.647552
2693.689748	1285.662937
2695.078735	1295.258741
2696.469065	1301.240559
2697.854411	1305.497902
2699.242680	1310.601399
2700.629129	1313.415385
2702.015339	1315.022378
2703.401310	1317.917483
2704.783883	1325.668531
2706.167798	1328.394406
2707.551474	1328.634965
2708.934913	1328.153846
2710.314956	1334.344056
2711.696341	1337.060140
2713.075910	1339.594406
2714.456821	1337.204196
2715.835917	1337.455944
2717.213199	1336.655944
2718.591822	1338.443357
2719.968631	1345.062937
2721.345205	1353.720280
2722.721543	1364.009790
2724.096069	1372.061538
2725.471936	1384.123077
2726.844416	1387.379021
2728.219813	1391.465734
2729.590249	1393.573427
2730.962025	1389.906294
2732.333568	1390.538462
2733.703302	1391.397203
2735.074376	1392.511888
2736.443643	1391.869930
2737.812676	1392.858741
2739.179903	1398.130070
2740.546896	1399.976224
2741.913657	1402.506294
2743.280185	1407.069930
2744.644909	1420.493706
2746.009400	1424.623776
2747.373659	1429.923077
2748.737687	1431.587413
2750.101482	1437.797203
2751.461905	1442.626573
2752.825237	1446.758042
2754.183627	1451.159441
2755.544927	1449.983217
2756.902857	1449.144056
2758.263695	1450.377622
2759.622733	1459.787413
2760.978403	1465.030769
2762.336982	1465.846154
2763.692193	1472.811189
2765.047175	1475.202797
2766.400360	1478.181818
2767.756452	1482.450350
2769.109180	1488.351049
2770.461679	1490.068531
2771.813951	1479.328671
2773.167560	1479.634965
2774.517808	1477.734266
2775.866263	1480.518881
2777.217622	1479.502098
2778.565622	1489.559441
2779.914961	1501.651748
2781.262507	1509.292308
2782.609827	1513.047552
2783.956919	1516.289510
2785.302221	1523.837762
2786.647297	1518.580420
2787.992147	1509.539860
2789.336771	1509.925874
2790.678043	1505.086713
2792.020652	1505.553846
2793.363037	1505.057343
2794.705196	1508.911888
2796.044006	1516.251748
2797.385716	1530.756643
2798.724077	1537.106294
2800.063776	1538.114685
2801.401689	1548.704895
2802.737818	1556.241958
2804.073724	1559.813986
2805.410967	1567.331469
2806.746425	1571.783217
2808.081661	1570.310490
2809.415115	1569.605594
2810.749905	1569.377622
2812.081354	1575.393007
2813.415699	1579.503497
2814.745146	1580.685315
2816.075930	1586.398601
2817.406492	1598.643357
2818.735275	1611.874126
2820.065395	1619.275524
2821.393736	1622.893706
2822.721855	1627.744056
2824.048198	1624.833566
2825.375876	1625.648951
2826.700222	1624.984615
2828.025904	1618.904895
2829.349810	1616.546853
2830.673496	1621.072727
2831.998518	1622.088112
2833.320211	1623.883916
2834.641685	1631.609790
2835.962939	1636.173427
2837.283975	1633.703497
2838.603239	1633.009790
2839.923838	1636.482517
2841.242665	1639.351049
2842.561274	1638.436364
2843.878113	1638.661538
2845.194734	1641.580420
2846.511138	1646.907692
2847.825772	1638.563636
2849.141741	1647.444755
2850.454391	1654.601399
2851.768375	1655.469930
2853.082143	1653.206993
2854.395694	1651.023776
2855.707479	1652.352448
2857.017497	1650.846154
2858.328850	1651.450350
2859.636888	1654.166434
2860.946260	1654.574825
2862.255417	1660.576224
2863.564359	1656.798601
2864.871538	1673.324476
2866.176953	1677.963636
2867.483703	1687.206993
2868.788691	1691.376224
2870.093464	1697.230769
2871.396477	1698.365035
2872.702370	1702.752448
2874.003409	1713.587413
2875.305781	1716.227972
2876.606395	1716.644755
2877.908341	1717.095105
2879.210075	1710.053147
2880.508505	1718.869930
2881.808268	1720.412587
2883.106274	1720.556643
2884.404068	1717.160839
2885.700105	1714.240559
2886.997476	1713.885315
2888.293092	1711.800000
2889.588496	1718.572028
2890.883689	1717.153846
2892.175585	1718.289510
2893.470356	1713.563636
2894.761832	1716.806993
2896.054640	1727.739860
2897.347238	1728.358042
2898.636541	1734.945455
2899.927178	1739.525874
2901.216063	1736.095105
2902.506280	1734.987413
2903.793206	1730.469930
2905.081464	1734.811189
2906.367973	1727.927273
2907.654273	1725.194406
2908.940365	1715.861538
2910.224709	1723.668531
2911.511925	1726.206993
2912.794314	1725.598601
2914.078035	1727.981818
2915.360009	1723.844755
2916.641777	1726.118881
2917.921799	1733.079720
2919.204691	1735.539860
2920.485838	1737.780420
2921.763703	1733.120280
2923.044437	1735.716084
2924.321890	1737.083916
2925.599138	1754.980420
2926.874643	1754.227972
2928.153016	1750.422378
2929.426575	1744.802797
2930.703001	1743.092308
2931.977685	1745.850350
2933.250630	1750.773427
2934.524906	1744.304895
2935.797441	1742.286713
2937.069773	1748.309091
2938.338832	1750.713287
2939.610756	1749.241958
2940.880942	1756.611189
2942.150924	1754.984615
2943.420703	1757.902098
2944.688746	1759.876923
2945.955052	1761.510490
2947.221156	1761.734266
2948.488591	1765.861538
2949.754290	1764.244755
2951.019788	1770.158042
2952.285083	1776.310490
2953.547113	1774.432168
2954.810473	1770.749650
2956.073632	1771.174825
2957.335058	1772.661538
2958.597815	1778.323077
2959.858839	1785.525874
2961.118133	1795.362238
2962.377226	1799.394406
2963.636120	1805.165035
2964.894812	1819.440559
2966.153305	1833.699301
2967.410069	1836.269930
2968.666634	1839.595804
2969.921470	1837.118881
2971.177636	1838.834965
2972.430547	1832.250350
2973.684786	1832.040559
2974.938827	1833.580420
2976.191142	1833.563636
2977.443259	1829.134266
2978.693651	1832.237762
2979.946898	1841.321678
2981.195368	1840.404196
2982.446693	1838.661538
2983.694768	1844.317483
2984.942646	1850.674126
2986.190328	1857.574825
2987.437812	1853.802797
2988.683575	1863.773427
2989.929141	1872.808392
2991.176036	1872.765035
2992.419686	1875.560839
2993.664663	1876.418182
2994.906398	1875.239161
2996.150984	1876.875524
2997.393851	1879.330070
2998.633477	1879.447552
2999.875953	1881.986014
3001.115189	1876.730070
3002.355753	1871.139860
3003.594600	1876.850350
3004.833253	1879.034965
3006.070190	1880.376224
3007.308455	1886.857343
3008.545004	1890.518881
3009.781360	1892.057343
3011.017522	1900.124476
3012.251970	1907.302098
3013.486225	1909.949650
3014.720287	1916.892308
3015.952637	1916.337063
3017.183275	1923.818182
3018.416759	1927.139860
3019.648532	1934.693706
3020.878593	1938.184615
3022.108463	1947.097902
3023.336623	1951.081119
3024.566110	1946.411189
3025.793887	1945.107692
3027.021473	1946.134266
3028.250385	1936.078322
3029.474555	1931.653147
3030.701568	1936.555245
3031.925358	1939.423776
3033.150473	1938.988811
3034.373883	1945.139860
3035.597102	1948.727273
3036.818616	1960.942657
3038.042971	1970.222378
3039.262591	1971.843357
3040.483537	1971.345455
3041.704293	1978.026573
3042.923347	1978.269930
3044.143725	1982.254545
3045.360887	1987.823776
3046.579374	1985.302098
3047.796160	1986.297902
3049.012757	1982.397203
3050.229167	1979.233566
3051.442363	1976.724476
3052.658397	1979.130070
3053.871219	1978.144056
3055.086878	1975.383217
3056.297814	1981.409790
3057.510076	1987.121678
3058.722150	1995.104895
3059.934038	1991.974825
3061.144229	1995.801399
3062.354233	2000.127972
3063.564051	2004.194406
3064.772173	2008.631469
3065.980110	2013.924476
3067.186351	2016.125175
3068.393917	2013.365035
3069.599788	2003.030070
3070.805474	2007.692308
3072.010976	2013.287413
3073.214784	2016.696503
3074.419916	2013.955944
3075.623355	2018.808392
3076.825102	2026.739161
3078.026666	2035.061538
3079.228046	2038.233566
3080.429242	2039.802797
3081.628748	2026.674126
3082.828071	2016.777622
3084.028717	2005.907692
3085.227673	2007.567832
3086.423434	2006.194406
3087.622025	2003.605594
3088.817422	2006.027972
3090.014143	2006.046154
3091.207671	2009.862937
3092.404027	2022.323077
3093.598696	2019.114685
3094.790175	2018.890909
3095.985986	2010.812587
3097.177102	2010.767832
3098.369542	2004.124476
3099.558793	2002.841958
3100.750871	1998.001399
3101.941265	1993.784615
3103.128473	1991.416783
3104.317003	1991.120280
3105.506856	2000.173427
3106.693524	2005.229371
3107.880013	2004.162238
3109.066323	2006.619580
3110.253954	2014.251748
3111.438403	2022.627972
3112.621173	2021.513287
3113.806765	2026.808392
3114.990678	2024.629371
3116.172911	2021.801399
3117.354967	2020.448951
3118.536844	2029.928671
3119.718543	2031.590210
3120.898565	2028.910490
3122.076910	2034.337063
3123.258075	2034.187413
3124.436065	2040.219580
3125.613878	2046.496503
3126.791514	2049.137063
3127.967475	2056.462937
3129.143260	2052.467133
3130.320365	2058.019580
3131.495797	2058.902098
3132.669555	2059.960839
3133.841640	2057.563636
3135.015046	2064.314685
3136.188277	2069.569231
3137.359836	2072.588811
3138.532715	2074.226573
3139.702427	2085.829371
3140.873460	2091.096503
3142.042822	2096.293706
3143.210515	2092.906294
3144.381023	2094.538462
3145.546872	2087.404196
3146.717031	2081.994406
3147.882532	2088.244755
3149.047860	2087.279720
3150.213014	2088.373427
3151.377995	2082.327273
3152.544295	2066.151049
3153.705942	2067.222378
3154.868910	2063.465734
3156.031705	2052.306294
3157.194326	2046.904895
3158.355283	2042.184615
3159.516068	2039.741259
3160.676680	2039.233566
3161.835628	2044.057343
3162.994405	2040.516084
3164.153009	2047.457343
3165.311442	2042.201399
3166.469703	2037.890909
3167.626303	2041.552448
3168.781241	2041.732867
3169.937498	2034.818182
3171.092094	2042.275524
3172.246520	2044.380420
3173.399285	2042.462937
3174.551881	2040.297902
3175.704307	2039.728671
3176.856562	2044.029371
3178.008648	2049.994406
3179.157587	2052.720280
3180.309333	2059.710490
3181.459422	2060.037762
3182.607853	2065.918881
3183.756116	2072.786014
3184.904210	2087.953846
3186.052135	2094.611189
3187.198404	2102.755245
3188.344505	2108.981818
3189.488952	2113.676923
3190.633230	2118.795804
3191.777341	2122.475524
3192.922770	2127.060140
3194.065060	2122.931469
3195.207182	2123.439161
3196.349138	2128.206993
3197.490926	2131.657343
3198.632547	2134.208392
3199.771033	2135.309091
3200.910836	2145.299301
3202.051956	2149.636364
3203.189943	2155.342657
3204.326279	2152.678322
3205.462451	2155.791608
3206.599939	2149.436364
3207.735779	2147.499301
3208.872936	2148.292308
3210.005480	2145.246154
3211.142305	2136.955245
3212.274520	2129.405594
3213.408051	2121.232168
3214.541417	2117.313287
3215.671657	2118.885315
3216.804694	2119.195804
3217.934605	2112.969231
3219.065832	2121.247552
3220.193934	2121.606993
3221.324834	2128.840559
3222.454089	2130.163636
3223.581701	2128.639161
3224.706190	2127.309091
3225.834955	2117.523077
3226.960598	2114.672727
3228.086078	2123.251748
3229.209917	2132.707692
3230.336551	2135.096503
3231.458587	2134.851748
3232.581939	2145.317483
3233.705128	2146.455944
3234.828156	2147.019580
3235.949544	2150.658741
3237.070771	2148.991608
3238.190359	2157.440559
3239.309786	2157.620979
3240.427576	2173.255944
3241.548157	2189.000000
3242.665625	2202.819580
3243.782932	2208.875524
3244.900079	2208.565035
3246.015589	2218.426573
3247.132415	2215.573427
3248.246130	2214.493706
3249.362636	2211.951049
3250.477506	2215.660140
3251.589268	2226.103497
3252.700871	2225.588811
3253.813789	2227.363636
3254.926547	2240.296503
3256.036199	2246.352448
3257.147166	2252.818182
3258.257974	2255.132867
3259.367150	2262.773427
3260.474695	2266.177622
3261.583555	2267.485315
3262.692256	2266.930070
3263.797855	2278.986014
3264.904769	2282.588811
3266.010053	2277.972028
3267.116651	2280.068531
3268.220149	2288.225175
3269.324961	2293.995804
3270.429616	2302.072727
3271.531173	2308.401399
3272.632573	2314.942657
3273.735287	2318.682517
3274.837845	2317.181818
3275.937306	2317.481119
3277.039551	2324.016783
3278.138700	2322.827972
3279.236224	2315.220979
3280.333594	2313.132867
3281.433745	2312.057343
3282.530804	2308.092308
3283.627707	2307.158042
3284.724455	2312.030769
3285.816644	2308.558042
3286.913083	2307.309091
3288.007899	2314.102098
3289.102560	2325.721678
3290.195600	2331.762238
3291.288486	2337.373427
3292.379751	2328.370629
3293.472329	2330.868531
3294.563287	2331.888112
3295.652625	2321.997203
3296.741810	2320.523077
3297.832307	2312.713287
3298.919721	2307.330070
3300.006981	2305.383217
3301.095554	2314.672727
3302.183974	2312.446154
3303.267848	2312.337063
3304.355963	2321.770629
3305.440996	2330.646154
3306.524414	2342.753846
3307.609144	2347.802797
3308.692258	2351.237762
3309.776684	2345.278322
3310.858033	2347.823776
3311.940693	2351.353846
3313.021738	2344.083916
3314.102633	2340.034965
3315.181915	2331.061538
3316.261046	2340.426573
3317.341489	2347.637762
3318.418857	2348.289510
3319.497537	2342.723077
3320.574605	2343.160839
3321.651523	2344.892308
3322.726831	2340.967832
3323.801989	2348.770629
3324.878458	2348.240559
3325.951857	2340.293706
3327.025106	2339.931469
3328.099667	2339.313287
3329.172619	2335.899301
3330.243962	2335.034965
3331.316616	2326.604196
3332.386203	2321.601399
3333.457101	2313.423776
3334.526393	2306.423776
3335.596994	2308.455944
3336.665989	2304.970629
3337.733379	2301.297902
3338.799163	2303.735664
3339.869173	2312.005594
3340.936120	2307.309091
3342.000005	2303.911888
3343.066657	2309.558042
3344.131706	2306.134266
3345.195151	2299.629371
3346.258450	2297.169231
3347.321602	2295.620979
3348.384608	2301.640559
3349.447468	2302.679720
3350.508725	2312.180420
3351.566926	2322.404196
3352.629348	2328.952448
3353.688714	2327.643357
3354.747934	2331.230769
3355.808463	2328.048951
3356.864484	2322.068531
3357.923268	2315.374825
3358.977545	2319.504895
3360.034586	2314.058741
3361.090028	2321.977622
3362.146780	2323.995804
3363.201933	2330.102098
3364.255489	2326.629371
3365.307448	2326.345455
3366.362170	2331.490909
3367.413842	2327.875524
3368.465370	2322.481119
3369.518208	2317.822378
3370.567998	2309.562238
3371.619097	2317.517483
3372.667149	2317.818182
3373.717962	2323.061538
3374.765729	2325.317483
3375.813354	2338.089510
3376.860837	2339.180420
3377.906727	2342.867133
3378.953925	2346.847552
3379.998080	2346.527273
3381.044995	2351.783217
3382.090317	2352.953846
3383.132598	2348.896503
3384.174738	2354.153846
3385.218187	2354.423776
3386.261494	2353.451748
3387.303211	2359.941259
3388.344788	2356.644755
3389.386223	2356.255944
3390.426070	2355.709091
3391.464328	2354.661538
3392.503894	2362.523077
3393.543320	2360.990210
3394.581158	2357.356643
3395.617409	2355.257343
3396.653520	2345.360839
3397.690939	2349.716084
3398.725325	2340.927273
3399.761019	2340.065734
3400.796573	2334.261538
3401.829095	2343.776224
3402.864371	2341.874126
3403.896617	2346.762238
3404.928723	2356.023776
3405.959247	2356.366434
3406.991077	2358.777622
3408.022769	2358.994406
3409.051433	2354.749650
3410.079960	2356.492308
3411.109793	2351.813986
3412.139489	2354.376224
3413.166159	2356.843357
3414.194135	2356.374825
3415.219087	2352.525874
3416.246790	2358.352448
3417.271468	2354.962238
3418.297453	2358.502098
3419.321859	2361.860140
3420.346128	2356.471329
3421.368818	2365.165035
3422.391372	2368.917483
3423.415232	2374.429371
3424.436072	2370.865734
3425.456776	2370.221379
3426.478786	2367.588811
3427.497778	2362.569431
3428.516635	2354.764635
3429.536798	2343.775824
3430.553944	2329.204396
