-118.702670	12.600000
-116.033069	44.000000
-113.366404	3.000000
-110.700491	7.000000
-108.037511	-0.600000
-105.373100	14.000000
-102.711620	4.800000
-100.048711	12.800000
-97.390908	27.800000
-94.731676	17.000000
-92.073192	-0.600000
-89.417633	9.800000
-86.760644	-1.800000
-84.108754	16.000000
-81.455434	9.800000
-78.805033	-3.600000
-76.153204	-12.400000
-73.506465	-9.400000
-70.858296	-12.000000
-68.210870	17.600000
-65.566359	-1.600000
-62.920418	15.800000
-60.279559	-7.800000
-57.637271	11.600000
-54.997892	0.200000
-52.357084	9.800000
-49.717015	14.000000
-47.082020	40.800000
-44.445595	-20.000000
-41.812073	5.600000
-39.177123	0.000000
-36.547239	-22.400000
-33.913761	8.400000
-31.285346	9.800000
-28.657665	11.400000
-26.028555	21.200000
-23.404503	15.800000
-20.776860	-1.200000
-18.154272	5.000000
-15.532414	9.400000
-12.911287	-17.400000
-10.290891	34.600000
-7.673382	-2.800000
-5.054445	48.400000
-2.438394	87.600000
0.176930	83.400000
2.791525	55.400000
5.403239	20.200000
8.016381	-2.200000
10.624489	32.000000
13.236178	8.000000
15.842837	25.400000
18.450925	1.800000
21.058287	-2.600000
23.660625	2.600000
26.266542	4.800000
28.867436	6.000000
31.469758	16.600000
34.067062	10.200000
36.667943	34.800000
39.263808	22.400000
41.861101	13.000000
44.457675	4.000000
47.049240	5.800000
49.642234	18.400000
52.232366	30.000000
54.823925	6.400000
57.412626	26.800000
60.002753	1.200000
62.587881	16.400000
65.174437	-23.400000
67.760278	12.000000
70.343266	7.600000
72.927681	17.400000
75.504967	4.400000
78.085818	19.600000
80.663822	1.800000
83.241114	-2.800000
85.819834	12.800000
88.393571	13.800000
90.968735	-15.600000
93.541056	27.000000
96.112670	19.200000
98.681443	4.600000
101.251643	14.200000
103.819004	18.000000
106.387792	-6.000000
108.953743	-5.000000
111.516859	-5.600000
114.083531	23.400000
116.640981	25.000000
119.204117	7.000000
121.762294	10.000000
124.324025	37.400000
126.880799	18.600000
129.438999	64.200000
131.992247	47.000000
134.544797	101.800000
137.100897	117.000000
139.652049	139.000000
142.202504	218.600000
144.752261	231.800000
147.299199	243.800000
149.845442	313.200000
152.393110	305.200000
154.940082	284.000000
157.482118	297.400000
160.023462	300.200000
162.564112	296.000000
165.106187	267.000000
167.645452	292.200000
170.181907	308.800000
172.717672	273.800000
175.254862	298.000000
177.791361	284.800000
180.325054	311.400000
182.855943	297.000000
185.386144	322.000000
187.917771	276.600000
190.446596	280.600000
192.972622	299.400000
195.497962	272.600000
198.024727	301.000000
200.548696	296.200000
203.071979	284.200000
205.594578	278.800000
208.114384	276.800000
210.633507	266.400000
213.151947	308.800000
215.671812	314.400000
218.184674	279.800000
220.701068	299.400000
223.216781	303.000000
225.727603	265.000000
228.239850	312.200000
230.749314	292.800000
233.258100	283.000000
235.766208	324.600000
238.275740	271.200000
240.780391	301.800000
243.284366	293.000000
245.789765	329.000000
248.290289	283.600000
250.794336	299.000000
253.291413	298.600000
255.792012	312.200000
258.289840	293.800000
260.786995	296.800000
263.283478	276.400000
265.775097	322.400000
268.270236	307.400000
270.762608	303.000000
273.254310	294.800000
275.743249	306.400000
278.233611	302.400000
280.721212	313.000000
283.206053	258.600000
285.694409	305.600000
288.175825	305.400000
290.660755	297.000000
293.140839	297.000000
295.624436	286.600000
298.103191	285.400000
300.583368	289.600000
303.060794	298.000000
305.537556	288.200000
308.013654	314.200000
310.487004	296.400000
312.959693	278.600000
315.431720	311.600000
317.903085	296.000000
320.371707	318.800000
322.839669	309.200000
325.309054	282.000000
327.773616	315.000000
330.241682	328.400000
332.704927	323.600000
335.167516	296.800000
337.629448	305.600000
340.090723	309.000000
342.549263	283.000000
345.009226	299.400000
347.466457	282.400000
349.923033	297.800000
352.378955	300.200000
354.832147	324.000000
357.286762	287.600000
359.736575	302.600000
362.189884	276.400000
364.638394	319.400000
367.086254	281.800000
369.535536	274.400000
371.980023	282.600000
374.425933	319.600000
376.871194	287.400000
379.313736	308.600000
381.755630	290.800000
384.196876	306.200000
386.635408	296.200000
389.075360	323.200000
391.512599	278.600000
393.947127	296.000000
396.385141	295.200000
398.818380	311.200000
401.253039	281.200000
403.682926	313.000000
406.116298	296.200000
408.544900	295.000000
410.972860	282.400000
413.402241	279.800000
415.826858	310.600000
418.252895	290.000000
420.678293	288.200000
423.103050	295.000000
425.523048	294.600000
427.944468	298.000000
430.363192	271.600000
432.783335	325.800000
435.200784	318.600000
437.619654	282.200000
440.035829	276.600000
442.447258	312.600000
444.862163	321.800000
447.274378	276.800000
449.685960	301.800000
452.096907	279.200000
454.505167	293.800000
456.912796	307.200000
459.319792	312.000000
461.726157	291.600000
464.129839	282.000000
466.532891	285.000000
468.935313	286.600000
471.337105	304.600000
473.736219	301.400000
476.136753	304.600000
478.536658	292.800000
480.931841	293.600000
483.330489	289.600000
485.724418	314.200000
488.117721	271.600000
490.510399	284.400000
492.902451	296.600000
495.295921	289.800000
497.684679	296.200000
500.070771	284.400000
502.458283	298.200000
504.845172	266.800000
507.229396	296.800000
509.615040	295.200000
511.998022	288.600000
514.378342	300.400000
516.760083	293.400000
519.139164	312.400000
521.519663	295.200000
523.897506	313.600000
526.272692	303.400000
528.647261	297.000000
531.023249	288.800000
533.396584	318.400000
535.771336	307.200000
538.141402	294.800000
540.510854	299.400000
542.881723	317.800000
545.247911	287.000000
547.615518	311.200000
549.980479	298.800000
552.344828	299.200000
554.708563	300.600000
557.073716	284.400000
559.434197	262.600000
561.796095	315.200000
564.155354	300.800000
566.511974	303.800000
568.872040	290.800000
571.225414	304.400000
573.582233	302.200000
575.936417	280.400000
578.289992	275.600000
580.642960	289.200000
582.993295	309.800000
585.345048	297.200000
587.690124	303.600000
590.040663	309.000000
592.384530	285.200000
594.733858	293.600000
597.078537	304.800000
599.420592	295.600000
601.764064	338.800000
604.104913	310.000000
606.445159	285.200000
608.782785	303.000000
611.123846	271.600000
613.460270	296.400000
615.798110	312.200000
618.133333	329.000000
620.465939	296.200000
622.799963	302.200000
625.131372	295.800000
627.462183	305.000000
629.792396	304.600000
632.122012	295.200000
634.447004	306.000000
636.777438	316.600000
639.103251	308.200000
641.426456	307.400000
643.751078	287.400000
646.073094	301.800000
648.394516	292.000000
650.713335	309.400000
653.033571	311.000000
655.353212	288.600000
657.670254	307.800000
659.986703	305.200000
662.300554	305.400000
664.615821	307.400000
666.928491	271.000000
669.242576	309.600000
671.552061	306.400000
673.862962	303.400000
676.171270	289.000000
678.478989	294.600000
680.788124	275.000000
683.092666	321.600000
685.396622	286.000000
687.699991	311.400000
690.004776	296.000000
692.304973	304.000000
694.606586	286.600000
696.907613	262.200000
699.204059	273.600000
701.501920	297.000000
703.799197	327.000000
706.095891	305.600000
708.388009	268.600000
710.683538	318.400000
712.974493	290.200000
715.266863	306.600000
717.556657	284.000000
719.845872	277.200000
722.134507	314.000000
724.420569	319.400000
726.708045	318.400000
728.992951	322.400000
731.277279	261.400000
733.559038	299.600000
735.842211	319.200000
738.124807	307.800000
740.402847	297.000000
742.682301	325.000000
744.961180	304.200000
747.239484	315.600000
749.513237	294.600000
751.788405	311.400000
754.062999	291.000000
756.335034	322.600000
758.608482	319.800000
760.879372	320.800000
763.147706	296.800000
765.417453	312.600000
767.684645	279.000000
769.951268	304.000000
772.217320	311.200000
774.480821	296.800000
776.745734	325.000000
779.010079	282.200000
781.269893	295.000000
783.531121	317.000000
785.791781	319.000000
788.049895	320.200000
790.305464	296.000000
792.564423	298.000000
794.816884	302.200000
797.074712	318.800000
799.328021	304.200000
801.578790	313.400000
803.830971	296.800000
806.080613	329.800000
808.331667	311.800000
810.578210	300.400000
812.826166	307.600000
815.071586	315.000000
817.318419	312.400000
819.564689	316.600000
821.806456	316.400000
824.051605	334.000000
826.290283	270.800000
828.532342	288.000000
830.769903	301.600000
833.008876	329.000000
835.245322	304.600000
837.483179	309.800000
839.718511	290.000000
841.951320	324.000000
844.185539	305.000000
846.417237	297.800000
848.648380	347.200000
850.878968	302.600000
853.109002	310.200000
855.338481	286.200000
857.563480	311.000000
859.791852	317.400000
862.015746	294.000000
864.241051	310.200000
866.461880	295.800000
868.686081	306.400000
870.905809	326.000000
873.126947	285.400000
875.347535	294.800000
877.565614	305.800000
879.785102	305.800000
882.000124	328.800000
884.214598	326.000000
886.428525	284.800000
888.641904	310.400000
890.854737	279.200000
893.067022	306.200000
895.276806	316.000000
897.486044	316.200000
899.694737	311.800000
901.900930	305.000000
904.108533	328.000000
906.313639	297.400000
908.518201	291.400000
910.720268	294.400000
912.923744	346.200000
915.124726	310.600000
917.325166	315.400000
919.527015	275.200000
921.722473	319.800000
923.921289	310.200000
926.115668	331.600000
928.313404	331.400000
930.506704	331.000000
932.701413	304.800000
934.893635	357.600000
937.085320	316.200000
939.276467	330.600000
941.465131	299.200000
943.653259	322.600000
945.838905	299.200000
948.027905	319.400000
950.212480	308.400000
952.396521	313.200000
954.583913	287.400000
956.763000	302.200000
958.945438	303.800000
961.127342	326.600000
963.306771	311.400000
965.483728	325.200000
967.662093	312.400000
969.841865	311.400000
972.015288	308.600000
974.192057	326.600000
976.364419	328.600000
978.538189	343.400000
980.707555	315.400000
982.880265	332.400000
985.050510	291.000000
987.220225	336.400000
989.389412	313.800000
991.554202	319.800000
993.722334	306.000000
995.886070	329.200000
998.051214	327.200000
1000.213898	307.800000
1002.376057	340.200000
1004.535759	319.600000
1006.694936	323.200000
1008.855520	337.000000
1011.013649	328.600000
1013.171255	329.600000
1015.328337	336.000000
1017.484895	331.800000
1019.637074	312.400000
1021.790660	327.600000
1023.943724	327.800000
1026.094339	363.800000
1028.246360	298.200000
1030.394009	340.800000
1032.544989	308.600000
1034.691598	326.800000
1036.837688	324.800000
1038.983260	334.200000
1041.130237	339.400000
1043.270925	332.000000
1045.414942	310.000000
1047.556520	314.000000
1049.697580	348.800000
1051.840046	331.800000
1053.976231	284.000000
1056.115743	337.000000
1058.250899	337.200000
1060.389380	339.000000
1062.523508	341.200000
1064.657122	341.000000
1066.792140	303.800000
1068.922810	349.000000
1071.054884	341.800000
1073.184528	338.000000
1075.313661	309.200000
1077.442283	335.600000
1079.570393	321.000000
1081.696077	350.400000
1083.821251	326.200000
1085.947829	334.200000
1088.070069	316.000000
1090.193714	325.000000
1092.313024	324.800000
1094.437563	326.800000
1096.555858	337.800000
1098.675556	312.800000
1100.792837	325.800000
1102.909610	325.600000
1105.025877	320.800000
1107.139729	343.600000
1109.254984	311.600000
1111.365917	323.200000
1113.480162	343.800000
1115.590086	361.200000
1117.701413	333.400000
1119.812237	348.400000
1121.918744	328.000000
1124.028560	347.200000
1126.134062	308.800000
1128.240968	365.000000
1130.341658	313.200000
1132.447560	337.400000
1134.549153	325.400000
1136.652148	347.400000
1138.754644	307.200000
1140.850932	321.800000
1142.952427	303.000000
1145.049620	340.200000
1147.146314	341.600000
1149.242511	337.600000
1151.338209	324.200000
1153.433410	333.200000
1155.526214	347.400000
1157.620420	352.200000
1159.708435	330.000000
1161.801648	358.600000
1163.888674	348.400000
1165.978998	366.800000
1168.065034	350.600000
1170.154368	392.800000
1172.237521	336.600000
1174.322077	353.600000
1176.408034	331.400000
1178.489709	349.200000
1180.572785	329.400000
1182.653476	356.800000
1184.733676	334.000000
1186.813384	361.000000
1188.892601	349.400000
1190.969435	327.600000
1193.043889	334.000000
1195.121635	341.200000
1197.195110	354.200000
1199.269987	327.000000
1201.340596	332.400000
1203.412606	347.800000
1205.482240	370.600000
1207.553275	345.400000
1209.623822	352.000000
1211.690109	366.200000
1213.757796	363.800000
1215.823110	335.400000
1217.889825	367.200000
1219.952284	358.800000
1222.018029	352.000000
1224.079519	367.600000
1226.142410	358.000000
1228.202932	369.600000
1230.262972	384.600000
1232.322528	360.600000
1234.379720	354.000000
1236.436429	367.800000
1238.490776	346.400000
1240.548403	358.400000
1242.603668	365.600000
1244.654693	377.600000
1246.707117	371.800000
1248.759061	360.600000
1250.808647	348.200000
1252.857754	381.600000
1254.906382	374.800000
1256.954532	383.800000
1259.002204	354.600000
1261.045645	347.600000
1263.092362	358.400000
1265.136725	405.600000
1267.180611	384.800000
1269.222147	407.000000
1271.261333	367.400000
1273.303792	416.600000
1275.342028	394.000000
1277.381663	413.600000
1279.420822	381.000000
1281.455764	410.200000
1283.492104	389.600000
1285.526100	401.800000
1287.561493	419.600000
1289.592673	411.000000
1291.625252	404.800000
1293.657359	431.200000
1295.687125	424.800000
1297.718288	485.200000
1299.745244	468.000000
1301.773599	435.000000
1303.797748	492.800000
1305.825163	527.800000
1307.848375	565.600000
1309.872985	592.400000
1311.895260	656.600000
1313.918933	714.000000
1315.940273	828.000000
1317.961146	1010.000000
1319.981551	1314.000000
1321.997763	1916.400000
1324.015372	3030.200000
1326.030653	6032.800000
1328.049193	14263.000000
1330.063543	29475.000000
1332.075568	36924.400000
1334.090851	26793.600000
1336.101948	10818.400000
1338.114441	3746.600000
1340.122752	1925.600000
1342.134319	1216.600000
1344.139847	915.000000
1346.148630	730.000000
1348.153235	612.600000
1350.161094	614.400000
1352.168491	564.000000
1354.169857	525.400000
1356.172619	484.600000
1358.174922	488.200000
1360.176765	427.000000
1362.178148	423.600000
1364.177217	423.400000
1366.175828	462.600000
1368.173981	420.400000
1370.171676	417.000000
1372.165208	384.400000
1374.160135	403.000000
1376.154606	386.200000
1378.148620	402.400000
1380.140327	408.400000
1382.131578	402.800000
1384.120524	383.000000
1386.110865	399.200000
1388.100752	359.000000
1390.088334	417.800000
1392.075463	384.600000
1394.060290	409.200000
1396.046512	408.600000
1398.030433	378.200000
1400.013902	354.000000
1401.996919	390.000000
1403.977638	377.800000
1405.959751	383.600000
1407.939567	364.200000
1409.918933	414.200000
1411.894160	394.200000
1413.872625	401.400000
1415.848797	394.400000
1417.824519	408.800000
1419.799792	398.600000
1421.772775	398.200000
1423.745309	414.400000
1425.717395	390.800000
1427.689034	410.000000
1429.656544	425.800000
1431.629128	385.600000
1433.593906	421.000000
1435.563757	382.400000
1437.529483	436.800000
1439.496603	406.200000
1441.461439	409.800000
1443.422155	382.600000
1445.387939	420.800000
1447.347768	401.800000
1449.308991	402.200000
1451.271605	416.000000
1453.230105	396.600000
1455.188163	393.200000
1457.145779	395.800000
1459.102952	369.600000
1461.057850	397.200000
1463.014141	403.400000
1464.968157	419.200000
1466.921732	407.400000
1468.873035	381.600000
1470.825730	381.200000
1472.776154	442.000000
1474.726139	377.000000
1476.675685	420.800000
1478.622962	392.400000
1480.567971	401.800000
1482.514373	370.200000
1484.460337	396.800000
1486.405864	385.200000
1488.349125	418.800000
1490.291950	353.800000
1492.232512	380.200000
1494.174466	375.000000
1496.114157	400.600000
1498.053413	404.800000
1499.992235	395.600000
1501.928797	384.000000
1503.866750	401.800000
1505.802444	391.800000
1507.737705	383.000000
1509.670709	416.400000
1511.603281	409.200000
1513.535421	409.000000
1515.467129	398.000000
1517.396584	402.000000
1519.327429	409.000000
1521.257842	393.400000
1523.184183	403.400000
1525.111914	419.600000
1527.037396	423.800000
1528.962448	431.200000
1530.887070	409.600000
1532.811264	391.200000
1534.733211	410.800000
1536.656548	431.600000
1538.577638	387.000000
1540.496484	400.000000
1542.416720	415.600000
1544.334712	376.800000
1546.252278	416.400000
1548.167603	408.800000
1550.084317	400.400000
1551.996975	408.400000
1553.912838	416.800000
1555.826462	402.600000
1557.737847	406.600000
1559.650622	411.800000
1561.559347	414.600000
1563.469461	386.000000
1565.379152	412.400000
1567.288420	399.200000
1569.195453	400.600000
1571.100254	398.800000
1573.006444	395.000000
1574.910403	374.800000
1576.813940	389.000000
1578.717057	442.200000
1580.617944	406.000000
1582.520220	358.200000
1584.420267	399.000000
1586.321703	386.000000
1588.219104	406.600000
1590.116088	394.200000
1592.012653	397.000000
1593.910605	387.800000
1595.802723	409.400000
1597.698035	366.800000
1599.592928	404.800000
1601.485601	404.400000
1603.377856	352.600000
1605.267892	382.800000
1607.157512	380.800000
1609.046717	383.600000
1610.935506	390.800000
1612.822079	420.600000
1614.710039	374.800000
1616.593982	370.400000
1618.479312	381.600000
1620.364229	404.200000
1622.246932	382.600000
1624.131022	395.000000
1626.011100	376.600000
1627.892566	372.600000
1629.771820	399.000000
1631.652462	407.800000
1633.527299	405.200000
1635.407117	415.000000
1637.282930	435.000000
1639.158334	394.800000
1641.035123	355.200000
1642.906115	415.200000
1644.780290	397.600000
1646.650465	376.600000
1648.523821	423.400000
1650.394974	393.600000
1652.263925	418.200000
1654.134262	380.000000
1656.000606	408.200000
1657.868335	390.200000
1659.733865	390.400000
1661.600781	393.600000
1663.463707	385.600000
1665.328020	361.600000
1667.190136	405.800000
1669.051847	379.800000
1670.914943	383.000000
1672.775845	414.600000
1674.634554	378.800000
1676.492859	399.000000
1678.352548	385.400000
1680.206471	389.400000
1682.063567	412.400000
1683.920259	384.800000
1685.772976	427.400000
1687.628864	419.600000
1689.480778	439.200000
1691.332291	408.200000
1693.183403	413.400000
1695.034114	404.000000
1696.884425	414.000000
1698.732552	383.000000
1700.582063	391.400000
1702.425824	404.800000
1704.274536	383.200000
1706.117501	381.000000
1707.963632	417.600000
1709.805802	417.200000
1711.651137	398.400000
1713.490730	403.800000
1715.331709	379.600000
1717.174070	387.400000
1719.012474	391.400000
1720.852262	408.400000
1722.689875	424.400000
1724.527093	412.000000
1726.362137	382.600000
1728.198564	380.200000
1730.032818	386.200000
1731.866679	403.400000
1733.700145	414.400000
1735.529665	385.000000
1737.362345	398.800000
1739.191079	387.000000
1741.022972	405.600000
1742.850922	388.600000
1744.678480	429.600000
1746.505647	392.200000
1748.332422	402.200000
1750.158805	427.800000
1751.981252	422.400000
1753.806854	400.000000
1755.628520	432.200000
1757.451569	411.200000
1759.272457	389.400000
1761.092955	418.200000
1762.914835	418.400000
1764.731015	408.800000
1766.550347	442.400000
1768.365752	404.000000
1770.184308	410.400000
1771.998938	432.600000
1773.813181	420.000000
1775.627038	415.400000
1777.440508	433.200000
1779.251824	431.200000
1781.064522	445.200000
1782.876834	418.400000
1784.685227	436.000000
1786.495002	419.200000
1788.300861	431.400000
1790.109867	425.200000
1791.914959	437.200000
1793.721432	416.800000
1795.527520	429.400000
1797.329699	422.600000
1799.135021	442.800000
1800.936435	392.600000
1802.739230	439.800000
1804.538118	412.400000
1806.338387	434.400000
1808.138274	427.400000
1809.936019	420.600000
1811.733384	438.800000
1813.530368	429.800000
1815.326972	437.200000
1817.121437	453.600000
1818.917282	430.200000
1820.707471	432.800000
1822.502557	424.600000
1824.291990	440.200000
1826.084561	427.000000
1827.874996	479.600000
1829.663296	436.200000
1831.454732	435.400000
1833.240523	430.800000
1835.027692	393.600000
1836.812731	434.800000
1838.600902	437.000000
1840.385188	418.600000
1842.167345	460.200000
1843.950881	427.800000
1845.732288	463.200000
1847.515073	468.200000
1849.293979	450.800000
1851.074263	444.600000
1852.852422	466.200000
1854.631958	448.800000
1856.409370	439.000000
1858.184659	445.000000
1859.961325	468.200000
1861.735869	436.400000
1863.511790	466.600000
1865.282092	474.000000
1867.055521	474.400000
1868.826830	444.600000
1870.597768	451.400000
1872.370084	450.600000
1874.136786	466.000000
1875.906613	487.200000
1877.672577	431.200000
1879.441665	466.000000
1881.206891	476.800000
1882.971749	423.400000
1884.737983	494.400000
1886.500359	454.200000
1888.262368	479.200000
1890.024010	486.400000
1891.785284	472.600000
1893.546192	450.600000
1895.306732	493.000000
1897.065164	465.000000
1898.823229	474.400000
1900.579187	454.400000
1902.336521	482.600000
1904.093490	480.800000
1905.848352	429.000000
1907.601109	476.600000
1909.353503	498.400000
1911.107273	491.600000
1912.858939	467.600000
1914.608502	453.600000
1916.359442	501.600000
1918.110018	461.800000
1919.856756	485.400000
1921.604869	456.800000
1923.350883	507.000000
1925.098273	480.800000
1926.843564	505.200000
1928.586758	507.000000
1930.331328	495.400000
1932.073801	439.200000
1933.815914	512.400000
1935.557668	472.200000
1937.299061	498.400000
1939.038361	500.000000
1940.777302	491.800000
1942.515884	501.800000
1944.252375	460.400000
1945.988507	488.900000
1947.726015	517.400000
1949.459700	502.400000
1951.194760	478.400000
1952.927731	490.200000
1954.660346	544.200000
1956.392604	494.400000
1958.124506	514.000000
1959.854323	505.400000
1961.582054	498.200000
1963.311160	527.200000
1965.039910	510.200000
1966.766577	529.800000
1968.492890	529.200000
1970.220577	491.800000
1971.942727	518.400000
1973.667978	502.200000
1975.389422	533.000000
1977.113966	516.200000
1978.836431	500.600000
1980.555092	489.600000
1982.276852	526.200000
1983.994811	497.000000
1985.714142	512.200000
1987.429674	542.600000
1989.150026	505.600000
1990.866580	505.400000
1992.579337	555.200000
1994.295190	499.000000
1996.008971	525.600000
1997.722402	547.400000
1999.433762	534.800000
2001.146494	532.600000
2002.855435	564.200000
2004.567470	524.200000
2006.273995	542.600000
2007.983613	540.200000
2009.691163	589.200000
2011.398366	485.200000
2013.103503	541.800000
2014.808293	540.400000
2016.514456	565.800000
2018.216835	556.400000
2019.920587	567.800000
2021.622276	551.000000
2023.323619	568.400000
2025.024618	533.400000
2026.723555	573.600000
2028.423864	553.400000
2030.120397	569.600000
2031.818302	524.000000
2033.514149	582.000000
2035.213081	582.800000
2036.906527	536.800000
2038.601344	538.400000
2040.295818	548.600000
2041.986525	587.600000
2043.680314	603.000000
2045.370338	595.000000
2047.061731	568.400000
2048.751072	538.000000
2050.441784	573.800000
2052.128732	561.400000
2053.815340	572.000000
2055.503319	541.200000
2057.187538	572.800000
2058.873127	576.200000
2060.558377	571.400000
2062.241579	575.000000
2063.926151	542.000000
2065.605259	576.000000
2067.289154	580.400000
2068.967587	565.400000
2070.649098	558.000000
2072.326857	571.400000
2074.004280	578.200000
2075.683072	562.600000
2077.359821	603.600000
2079.034529	578.200000
2080.710607	588.800000
2082.384643	568.200000
2084.058345	586.600000
2085.731711	557.200000
2087.403038	584.200000
2089.074031	566.000000
2090.744690	589.400000
2092.415015	549.600000
2094.085006	596.400000
2095.752960	580.000000
2097.420582	617.200000
2099.086170	606.000000
2100.753126	599.200000
2102.418049	586.400000
2104.082640	599.200000
2105.745199	595.200000
2107.409126	613.800000
2109.071022	591.600000
2110.732587	616.200000
2112.393822	568.800000
2114.053027	606.400000
2115.711903	605.400000
2117.370448	614.400000
2119.028664	606.000000
2120.683157	612.600000
2122.340714	597.400000
2123.997941	617.000000
2125.651448	601.600000
2127.306322	580.000000
2128.957477	631.200000
2130.611695	604.200000
2132.262195	625.600000
2133.914063	649.800000
2135.560522	582.200000
2137.211735	621.800000
2138.859236	625.000000
2140.508103	597.800000
2142.154951	639.800000
2143.801474	631.200000
2145.447671	617.800000
2147.090159	622.800000
2148.735706	654.400000
2150.377546	624.600000
2152.022443	637.000000
2153.663635	660.200000
2155.304503	602.200000
2156.945048	640.600000
2158.583580	620.000000
2160.223478	649.200000
2161.859676	625.600000
2163.497240	633.200000
2165.134482	629.600000
2166.769714	637.600000
2168.404624	637.000000
2170.039213	646.800000
2171.673481	635.000000
2173.304055	688.400000
2174.937681	606.200000
2176.567614	665.400000
2178.198914	645.800000
2179.828208	648.800000
2181.457183	660.600000
2183.085838	673.200000
2184.714174	662.200000
2186.340507	668.600000
2187.966522	619.200000
2189.590536	656.400000
2191.215915	641.400000
2192.839293	630.600000
2194.464036	652.000000
2196.085098	650.000000
2197.705843	668.400000
2199.327952	638.200000
2200.948064	651.800000
2202.566180	693.400000
2204.183980	659.600000
2205.801464	659.000000
2207.418634	655.600000
2209.035487	661.200000
2210.652026	700.400000
2212.266571	665.400000
2213.879125	665.200000
2215.493042	694.800000
2217.104968	679.800000
2218.718257	657.200000
2220.329555	668.000000
2221.938865	704.600000
2223.549537	718.200000
2225.158221	699.200000
2226.766593	704.200000
2228.372978	689.600000
2229.980725	701.400000
2231.586487	700.400000
2233.191937	705.200000
2234.795402	719.200000
2236.400230	713.600000
2238.003074	705.600000
2239.603935	679.600000
2241.206159	698.200000
2242.806401	715.600000
2244.408005	724.200000
2246.005956	682.000000
2247.605270	763.200000
2249.202604	717.000000
2250.799630	753.400000
2252.398017	703.000000
2253.992757	747.000000
2255.585519	727.400000
2257.179644	732.600000
2258.775130	726.400000
2260.366971	735.400000
2261.958506	746.200000
2263.551402	748.800000
2265.138990	737.600000
2266.731273	723.200000
2268.318249	759.000000
2269.908254	728.800000
2271.492954	717.400000
2273.082348	743.400000
2274.666439	746.200000
2276.251892	748.800000
2277.835376	721.800000
2279.421885	735.600000
2281.004761	760.400000
2282.587334	704.200000
2284.169603	723.400000
2285.748242	769.600000
2287.329906	770.400000
2288.907941	755.000000
2290.488999	736.600000
2292.066430	729.300000
2293.641898	722.000000
2295.220388	779.400000
2296.795254	794.600000
2298.369819	727.800000
2299.944083	759.200000
2301.518047	737.600000
2303.091711	750.800000
2304.665075	771.000000
2306.234820	762.800000
2307.804266	786.600000
2309.376730	749.600000
2310.943920	793.600000
2312.514127	793.000000
2314.080721	790.400000
2315.648673	777.000000
2317.214671	791.800000
2318.780371	774.000000
2320.345773	803.800000
2321.909222	783.200000
2323.474030	799.800000
2325.035229	835.200000
2326.599443	792.000000
2328.158396	837.600000
2329.720362	809.400000
2331.280378	814.200000
2332.840098	820.800000
2334.397870	807.200000
2335.955346	822.000000
2337.512528	815.200000
2339.067762	812.000000
2340.622702	795.800000
2342.177349	842.400000
2343.731702	800.800000
2345.285761	827.400000
2346.839527	792.200000
2348.391348	869.000000
2349.941226	862.800000
2351.494113	877.400000
2353.041756	860.600000
2354.592407	845.800000
2356.139468	838.000000
2357.687886	876.400000
2359.236013	870.000000
2360.780551	873.800000
2362.326447	881.200000
2363.870404	830.400000
2365.415719	827.200000
2366.957449	870.200000
2368.500537	849.600000
2370.041688	896.400000
2371.582550	885.000000
2373.123123	903.800000
2374.663407	859.200000
2376.203402	885.000000
2377.739818	914.600000
2379.279236	900.600000
2380.815077	865.600000
2382.352275	919.200000
2383.885897	926.400000
2385.422519	922.600000
2386.957211	898.600000
2388.489972	929.200000
2390.022448	907.600000
2391.552995	892.800000
2393.086540	934.400000
2394.614874	894.800000
2396.144564	909.800000
2397.673969	957.800000
2399.203089	933.600000
2400.731923	959.200000
2402.255553	926.200000
2403.783818	900.600000
2405.306880	939.400000
2406.834577	958.000000
2408.355434	937.000000
2409.880923	949.400000
2411.402853	956.200000
2412.926137	994.800000
2414.447501	972.800000
2415.966945	949.200000
2417.487744	1007.200000
2419.006624	981.200000
2420.525223	962.400000
2422.041903	979.800000
2423.559939	979.200000
2425.077693	991.600000
2426.591895	969.400000
2428.105818	1018.600000
2429.619460	1003.600000
2431.134456	1022.400000
2432.645905	983.000000
2434.158707	1000.400000
2435.669597	1022.600000
2437.180208	988.800000
2438.688907	1026.000000
2440.200592	1021.600000
2441.708734	1000.200000
2443.216598	1059.800000
2444.724183	1006.800000
2446.228229	1027.600000
2447.735259	1027.600000
2449.240381	1089.600000
2450.745226	1014.200000
2452.248164	1055.000000
2453.750825	1063.800000
2455.253211	1063.200000
2456.753690	1080.200000
2458.255524	1038.600000
2459.755452	1035.000000
2461.255105	1043.200000
2462.754483	1060.600000
2464.251958	1110.400000
2465.747531	1015.400000
2467.246084	1078.600000
2468.741109	1080.800000
2470.237486	1102.400000
2471.730337	1031.400000
2473.224541	1095.600000
2474.718471	1072.400000
2476.208877	1102.400000
2477.702261	1073.400000
2479.193747	1100.000000
2480.683336	1084.800000
2482.172653	1136.200000
2483.660074	1100.000000
2485.150471	1113.600000
2486.637350	1076.400000
2488.125580	1092.000000
2489.610293	1106.600000
2491.094736	1124.600000
2492.580531	1108.800000
2494.064434	1109.600000
2495.549687	1133.400000
2497.029807	1111.200000
2498.512899	1097.600000
2499.994102	1097.800000
2501.475035	1098.200000
2502.954078	1120.400000
2504.432854	1111.800000
2505.911361	1107.800000
2507.389599	1108.200000
2508.867570	1116.800000
2510.342035	1104.000000
2511.819470	1119.400000
2513.293400	1107.000000
2514.768682	1100.200000
2516.243696	1084.600000
2517.715209	1101.800000
2519.188073	1096.800000
2520.659054	1090.600000
2522.131385	1102.000000
2523.598602	1091.200000
2525.068786	1072.600000
2526.537089	1102.800000
2528.005126	1087.000000
2529.472899	1107.800000
2530.940407	1083.800000
2532.407651	1089.800000
2533.871402	1086.400000
2535.336503	1077.000000
2536.799727	1095.400000
2538.264300	1119.400000
2539.725385	1106.000000
2541.187819	1108.800000
2542.649990	1117.200000
2544.108674	1105.400000
2545.571931	1126.400000
2547.030091	1134.400000
2548.489601	1168.200000
2549.944016	1133.400000
2551.403002	1147.600000
2552.860116	1129.000000
2554.315358	1131.200000
2555.770340	1140.600000
2557.223452	1162.200000
2558.677913	1121.800000
2560.130505	1099.200000
2561.582837	1143.000000
2563.033301	1140.400000
2564.486722	1169.800000
2565.935060	1175.200000
2567.386353	1183.800000
2568.835780	1156.600000
2570.281736	1164.000000
2571.730646	1187.200000
2573.176085	1201.200000
2574.622873	1204.400000
2576.067797	1190.800000
2577.512464	1188.600000
2578.958478	1200.200000
2580.401025	1181.800000
2581.844920	1173.200000
2583.285350	1140.600000
2584.727128	1220.200000
2586.167046	1181.600000
2587.608311	1232.000000
2589.046114	1201.400000
2590.486867	1251.200000
2591.922558	1247.600000
2593.361197	1192.600000
2594.797980	1231.600000
2596.232907	1241.200000
2597.670781	1212.800000
2599.103598	1244.800000
2600.537762	1224.200000
2601.970071	1235.000000
2603.403728	1245.600000
2604.835530	1219.200000
2606.267080	1215.000000
2607.698376	1219.000000
2609.127821	1229.600000
2610.557013	1223.600000
2611.984354	1195.600000
2613.413042	1251.600000
2614.841477	1231.800000
2616.266466	1264.600000
2617.692800	1268.200000
2619.117287	1250.400000
2620.543118	1247.800000
2621.965507	1238.200000
2623.389240	1242.200000
2624.811128	1256.600000
2626.232765	1275.800000
2627.652558	1265.000000
2629.073696	1246.400000
2630.494584	1255.800000
2631.912033	1252.800000
2633.332422	1275.200000
2634.749374	1211.400000
2636.166078	1227.600000
2637.582533	1250.600000
2638.998740	1300.000000
2640.414699	1224.200000
2641.828817	1242.400000
2643.242687	1275.200000
2644.654718	1289.000000
2646.068094	1242.400000
2647.478040	1264.800000
2648.890922	1291.200000
2650.300375	1294.800000
2651.709582	1260.600000
2653.116953	1259.800000
2654.527258	1249.200000
2655.935727	1229.400000
2657.342362	1274.600000
2658.748750	1308.600000
2660.153306	1311.600000
2661.559205	1319.800000
2662.963270	1324.400000
2664.367092	1311.400000
2665.770669	1343.000000
2667.172415	1319.400000
2668.575504	1322.800000
2669.975175	1300.400000
2671.376190	1326.000000
2672.773789	1332.800000
2674.174317	1337.800000
2675.571431	1289.000000
2676.969888	1313.800000
2678.366517	1329.000000
2679.762905	1297.200000
2681.159050	1328.600000
2682.553369	1342.000000
2683.949031	1316.400000
2685.341284	1253.400000
2686.734879	1330.200000
2688.126650	1270.200000
2689.519764	1310.800000
2690.911053	1275.600000
2692.300521	1322.600000
2693.689748	1294.000000
2695.078735	1324.400000
2696.469065	1259.800000
2697.854411	1365.600000
2699.242680	1321.600000
2700.629129	1350.800000
2702.015339	1305.200000
2703.401310	1339.000000
2704.783883	1338.800000
2706.167798	1317.600000
2707.551474	1332.800000
2708.934913	1357.000000
2710.314956	1324.800000
2711.696341	1327.400000
2713.075910	1349.600000
2714.456821	1349.000000
2715.835917	1360.200000
2717.213199	1377.200000
2718.591822	1345.200000
2719.968631	1387.600000
2721.345205	1378.800000
2722.721543	1358.600000
2724.096069	1375.800000
2725.471936	1400.600000
2726.844416	1374.200000
2728.219813	1384.200000
2729.590249	1413.800000
2730.962025	1375.200000
2732.333568	1375.400000
2733.703302	1308.400000
2735.074376	1373.800000
2736.443643	1384.600000
2737.812676	1417.600000
2739.179903	1404.000000
2740.546896	1387.800000
2741.913657	1403.600000
2743.280185	1425.600000
2744.644909	1440.800000
2746.009400	1432.600000
2747.373659	1424.600000
2748.737687	1411.200000
2750.101482	1459.200000
2751.461905	1413.000000
2752.825237	1454.000000
2754.183627	1416.000000
2755.544927	1432.000000
2756.902857	1467.800000
2758.263695	1479.000000
2759.622733	1433.400000
2760.978403	1461.200000
2762.336982	1441.000000
2763.692193	1443.200000
2765.047175	1448.000000
2766.400360	1484.200000
2767.756452	1496.200000
2769.109180	1460.400000
2770.461679	1499.400000
2771.813951	1514.200000
2773.167560	1461.000000
2774.517808	1464.400000
2775.866263	1462.800000
2777.217622	1501.200000
2778.565622	1528.600000
2779.914961	1480.800000
2781.262507	1536.200000
2782.609827	1528.200000
2783.956919	1493.000000
2785.302221	1541.200000
2786.647297	1546.400000
2787.992147	1496.800000
2789.336771	1535.200000
2790.678043	1520.000000
2792.020652	1532.600000
2793.363037	1573.600000
2794.705196	1542.600000
2796.044006	1530.600000
2797.385716	1536.400000
2798.724077	1555.000000
2800.063776	1544.600000
2801.401689	1589.400000
2802.737818	1552.000000
2804.073724	1588.800000
2805.410967	1526.800000
2806.746425	1628.800000
2808.081661	1572.000000
2809.415115	1573.400000
2810.749905	1612.800000
2812.081354	1613.000000
2813.415699	1526.800000
2814.745146	1612.400000
2816.075930	1577.600000
2817.406492	1606.000000
2818.735275	1641.800000
2820.065395	1624.200000
2821.393736	1561.600000
2822.721855	1644.600000
2824.048198	1612.800000
2825.375876	1658.600000
2826.700222	1604.600000
2828.025904	1597.800000
2829.349810	1652.600000
2830.673496	1641.600000
2831.998518	1616.400000
2833.320211	1658.800000
2834.641685	1582.000000
2835.962939	1628.200000
2837.283975	1622.200000
2838.603239	1660.000000
2839.923838	1651.800000
2841.242665	1626.400000
2842.561274	1656.400000
2843.878113	1663.800000
2845.194734	1631.600000
2846.511138	1655.400000
2847.825772	1652.800000
2849.141741	1641.600000
2850.454391	1640.600000
2851.768375	1656.600000
2853.082143	1688.400000
2854.395694	1679.200000
2855.707479	1645.800000
2857.017497	1710.000000
2858.328850	1611.000000
2859.636888	1640.800000
2860.946260	1655.600000
2862.255417	1655.200000
2863.564359	1700.200000
2864.871538	1653.600000
2866.176953	1692.800000
2867.483703	1685.800000
2868.788691	1689.400000
2870.093464	1722.800000
2871.396477	1675.400000
2872.702370	1725.400000
2874.003409	1732.200000
2875.305781	1690.400000
2876.606395	1736.400000
2877.908341	1741.400000
2879.210075	1757.400000
2880.508505	1723.200000
2881.808268	1696.600000
2883.106274	1752.800000
2884.404068	1729.800000
2885.700105	1731.800000
2886.997476	1720.800000
2888.293092	1708.000000
2889.588496	1701.800000
2890.883689	1727.200000
2892.175585	1715.200000
2893.470356	1746.600000
2894.761832	1730.200000
2896.054640	1677.000000
2897.347238	1699.600000
2898.636541	1728.200000
2899.927178	1668.200000
2901.216063	1781.800000
2902.506280	1720.400000
2903.793206	1748.000000
2905.081464	1705.200000
2906.367973	1735.800000
2907.654273	1713.600000
2908.940365	1719.400000
2910.224709	1747.800000
2911.511925	1743.200000
2912.794314	1723.200000
2914.078035	1813.800000
2915.360009	1726.200000
2916.641777	1756.000000
2917.921799	1747.800000
2919.204691	1728.600000
2920.485838	1701.800000
2921.763703	1784.600000
2923.044437	1751.600000
2924.321890	1722.800000
2925.599138	1721.600000
2926.874643	1727.000000
2928.153016	1743.800000
2929.426575	1743.600000
2930.703001	1720.800000
2931.977685	1720.000000
2933.250630	1736.400000
2934.524906	1752.400000
2935.797441	1772.600000
2937.069773	1710.800000
2938.338832	1765.400000
2939.610756	1787.800000
2940.880942	1708.800000
2942.150924	1782.600000
2943.420703	1750.800000
2944.688746	1786.200000
2945.955052	1720.200000
2947.221156	1789.000000
2948.488591	1808.400000
2949.754290	1761.400000
2951.019788	1745.600000
2952.285083	1778.000000
2953.547113	1763.600000
2954.810473	1779.600000
2956.073632	1819.600000
2957.335058	1855.000000
2958.597815	1799.200000
2959.858839	1807.600000
2961.118133	1791.800000
2962.377226	1807.800000
2963.636120	1800.400000
2964.894812	1863.000000
2966.153305	1827.600000
2967.410069	1845.800000
2968.666634	1828.600000
2969.921470	1876.600000
2971.177636	1858.800000
2972.430547	1831.200000
2973.684786	1793.000000
2974.938827	1878.800000
2976.191142	1808.400000
2977.443259	1892.600000
2978.693651	1824.400000
2979.946898	1821.000000
2981.195368	1876.400000
2982.446693	1890.200000
2983.694768	1856.600000
2984.942646	1835.200000
2986.190328	1839.800000
2987.437812	1892.200000
2988.683575	1867.800000
2989.929141	1911.600000
2991.176036	1873.000000
2992.419686	1900.200000
2993.664663	1866.000000
2994.906398	1931.600000
2996.150984	1886.600000
2997.393851	1893.600000
2998.633477	1882.800000
2999.875953	1890.800000
3001.115189	1889.000000
3002.355753	1921.000000
3003.594600	1910.200000
3004.833253	1870.200000
3006.070190	1918.600000
3007.308455	1915.200000
3008.545004	1950.400000
3009.781360	1894.000000
3011.017522	1891.000000
3012.251970	1900.600000
3013.486225	1892.600000
3014.720287	1949.800000
3015.952637	1955.200000
3017.183275	1894.400000
3018.416759	1927.400000
3019.648532	1910.200000
3020.878593	1941.400000
3022.108463	1985.200000
3023.336623	1979.800000
3024.566110	1951.800000
3025.793887	1945.800000
3027.021473	1948.000000
3028.250385	1921.600000
3029.474555	1960.800000
3030.701568	1960.400000
3031.925358	1952.200000
3033.150473	1923.800000
3034.373883	1953.600000
3035.597102	1953.600000
3036.818616	1943.600000
3038.042971	1955.600000
3039.262591	1969.200000
3040.483537	1922.000000
3041.704293	1969.400000
3042.923347	1928.800000
3044.143725	1940.000000
3045.360887	1986.200000
3046.579374	1984.800000
3047.796160	2024.000000
3049.012757	2045.600000
3050.229167	1955.400000
3051.442363	1971.800000
3052.658397	1998.400000
3053.871219	1989.600000
3055.086878	1984.800000
3056.297814	1976.800000
3057.510076	1932.600000
3058.722150	1988.800000
3059.934038	1985.200000
3061.144229	2018.200000
3062.354233	2014.800000
3063.564051	2050.800000
3064.772173	1991.000000
3065.980110	1986.200000
3067.186351	1929.000000
3068.393917	2024.000000
3069.599788	2018.300000
3070.805474	2012.600000
3072.010976	2082.200000
3073.214784	2001.800000
3074.419916	1963.000000
3075.623355	2053.200000
3076.825102	2056.400000
3078.026666	1990.800000
3079.228046	2011.000000
3080.429242	2068.000000
3081.628748	2010.400000
3082.828071	2025.800000
3084.028717	2048.800000
3085.227673	2028.200000
3086.423434	2025.000000
3087.622025	1967.400000
3088.817422	2043.000000
3090.014143	2000.600000
3091.207671	2030.600000
3092.404027	2000.800000
3093.598696	2008.000000
3094.790175	2005.200000
3095.985986	1989.400000
3097.177102	2006.200000
3098.369542	2024.400000
3099.558793	2028.600000
3100.750871	2037.000000
3101.941265	2018.000000
3103.128473	2068.400000
3104.317003	2006.800000
3105.506856	1967.200000
3106.693524	2041.000000
3107.880013	2010.600000
3109.066323	2003.400000
3110.253954	1972.600000
3111.438403	2039.600000
3112.621173	2033.800000
3113.806765	2057.600000
3114.990678	2004.200000
3116.172911	2057.400000
3117.354967	2029.800000
3118.536844	2046.400000
3119.718543	2015.200000
3120.898565	2002.400000
3122.076910	2055.600000
3123.258075	2010.000000
3124.436065	2047.800000
3125.613878	2046.600000
3126.791514	2049.000000
3127.967475	2045.000000
3129.143260	2058.800000
3130.320365	2142.400000
3131.495797	2075.400000
3132.669555	2066.800000
3133.841640	2055.200000
3135.015046	2071.600000
3136.188277	2103.400000
3137.359836	2090.000000
3138.532715	2061.800000
3139.702427	2075.200000
3140.873460	2106.000000
3142.042822	2141.000000
3143.210515	2074.000000
3144.381023	2077.600000
3145.546872	2110.000000
3146.717031	2102.400000
3147.882532	2036.200000
3149.047860	2057.400000
3150.213014	2039.600000
3151.377995	2030.000000
3152.544295	2096.400000
3153.705942	2090.600000
3154.868910	2038.000000
3156.031705	2112.000000
3157.194326	2036.600000
3158.355283	2052.200000
3159.516068	2027.400000
3160.676680	2050.800000
3161.835628	2031.600000
3162.994405	2005.000000
3164.153009	2034.000000
3165.311442	2024.400000
3166.469703	2064.600000
3167.626303	2034.200000
3168.781241	2052.200000
3169.937498	2028.200000
3171.092094	2009.200000
3172.246520	2070.600000
3173.399285	2044.800000
3174.551881	2052.000000
3175.704307	2044.200000
3176.856562	2022.000000
3178.008648	2051.200000
3179.157587	2068.000000
3180.309333	2065.800000
3181.459422	2087.400000
3182.607853	2079.400000
3183.756116	2094.000000
3184.904210	2076.400000
3186.052135	2154.000000
3187.198404	2104.000000
3188.344505	2116.600000
3189.488952	2139.400000
3190.633230	2172.600000
3191.777341	2173.400000
3192.922770	2155.600000
3194.065060	2161.200000
3195.207182	2122.600000
3196.349138	2126.800000
3197.490926	2129.000000
3198.632547	2111.200000
3199.771033	2143.800000
3200.910836	2112.200000
3202.051956	2113.800000
3203.189943	2108.200000
3204.326279	2159.600000
3205.462451	2169.600000
3206.599939	2148.000000
3207.735779	2137.600000
3208.872936	2155.200000
3210.005480	2144.400000
3211.142305	2217.600000
3212.274520	2142.600000
3213.408051	2139.200000
3214.541417	2140.800000
3215.671657	2120.400000
3216.804694	2127.400000
3217.934605	2137.600000
3219.065832	2128.000000
3220.193934	2146.200000
3221.324834	2115.400000
3222.454089	2150.800000
3223.581701	2135.200000
3224.706190	2141.600000
3225.834955	2132.200000
3226.960598	2120.800000
3228.086078	2130.200000
3229.209917	2159.600000
3230.336551	2140.000000
3231.458587	2141.200000
3232.581939	2131.400000
3233.705128	2202.200000
3234.828156	2145.400000
3235.949544	2140.200000
3237.070771	2138.000000
3238.190359	2192.200000
3239.309786	2202.600000
3240.427576	2190.000000
3241.548157	2185.600000
3242.665625	2167.000000
3243.782932	2184.200000
3244.900079	2224.200000
3246.015589	2201.200000
3247.132415	2249.000000
3248.246130	2236.400000
3249.362636	2286.400000
3250.477506	2242.400000
3251.589268	2266.600000
3252.700871	2249.600000
3253.813789	2234.800000
3254.926547	2207.400000
3256.036199	2230.400000
3257.147166	2231.200000
3258.257974	2260.800000
3259.367150	2255.600000
3260.474695	2253.800000
3261.583555	2292.400000
3262.692256	2283.400000
3263.797855	2305.800000
3264.904769	2339.400000
3266.010053	2287.600000
3267.116651	2342.200000
3268.220149	2301.200000
3269.324961	2342.800000
3270.429616	2285.200000
3271.531173	2307.800000
3272.632573	2318.400000
3273.735287	2308.600000
3274.837845	2337.600000
3275.937306	2315.200000
3277.039551	2289.800000
3278.138700	2324.200000
3279.236224	2297.000000
3280.333594	2336.600000
3281.433745	2344.600000
3282.530804	2336.800000
3283.627707	2297.800000
3284.724455	2295.200000
3285.816644	2301.400000
3286.913083	2338.400000
3288.007899	2354.600000
3289.102560	2365.200000
3290.195600	2298.400000
3291.288486	2347.000000
3292.379751	2323.200000
3293.472329	2303.400000
3294.563287	2357.600000
3295.652625	2363.200000
3296.741810	2319.000000
3297.832307	2321.600000
3298.919721	2364.000000
3300.006981	2283.400000
3301.095554	2277.800000
3302.183974	2348.000000
3303.267848	2343.200000
3304.355963	2337.400000
3305.440996	2315.400000
3306.524414	2314.800000
3307.609144	2270.200000
3308.692258	2318.800000
3309.776684	2369.200000
3310.858033	2320.000000
3311.940693	2366.800000
3313.021738	2304.000000
3314.102633	2345.000000
3315.181915	2293.000000
3316.261046	2380.200000
3317.341489	2354.400000
3318.418857	2326.800000
3319.497537	2328.600000
3320.574605	2307.800000
3321.651523	2367.000000
3322.726831	2328.600000
3323.801989	2335.800000
3324.878458	2345.600000
3325.951857	2329.000000
3327.025106	2361.600000
3328.099667	2357.000000
3329.172619	2321.200000
3330.243962	2355.800000
3331.316616	2347.000000
3332.386203	2355.600000
3333.457101	2368.600000
3334.526393	2340.800000
3335.596994	2370.200000
3336.665989	2341.000000
3337.733379	2350.000000
3338.799163	2278.800000
3339.869173	2344.400000
3340.936120	2324.000000
3342.000005	2256.800000
3343.066657	2300.200000
3344.131706	2288.800000
3345.195151	2348.800000
3346.258450	2262.600000
3347.321602	2245.400000
3348.384608	2284.400000
3349.447468	2356.200000
3350.508725	2322.400000
3351.566926	2281.600000
3352.629348	2301.600000
3353.688714	2296.000000
3354.747934	2328.600000
3355.808463	2309.400000
3356.864484	2327.000000
3357.923268	2364.400000
3358.977545	2286.800000
3360.034586	2319.400000
3361.090028	2295.800000
3362.146780	2340.000000
3363.201933	2331.600000
3364.255489	2341.400000
3365.307448	2295.800000
3366.362170	2344.800000
3367.413842	2386.600000
3368.465370	2331.800000
3369.518208	2297.800000
3370.567998	2334.800000
3371.619097	2317.000000
3372.667149	2315.000000
3373.717962	2359.200000
3374.765729	2348.600000
3375.813354	2403.200000
3376.860837	2381.400000
3377.906727	2372.800000
3378.953925	2346.800000
3379.998080	2357.600000
3381.044995	2320.000000
3382.090317	2352.800000
3383.132598	2336.200000
3384.174738	2378.400000
3385.218187	2403.800000
3386.261494	2347.600000
3387.303211	2321.800000
3388.344788	2374.000000
3389.386223	2348.600000
3390.426070	2377.000000
3391.464328	2337.800000
3392.503894	2296.000000
3393.543320	2350.000000
3394.581158	2329.400000
3395.617409	2389.400000
3396.653520	2303.000000
3397.690939	2335.800000
3398.725325	2379.200000
3399.761019	2336.000000
3400.796573	2321.200000
3401.829095	2331.800000
3402.864371	2359.600000
3403.896617	2397.800000
3404.928723	2371.400000
3405.959247	2351.600000
3406.991077	2364.600000
3408.022769	2366.000000
3409.051433	2332.400000
3410.079960	2363.600000
3411.109793	2363.200000
3412.139489	2328.400000
3413.166159	2355.400000
3414.194135	2370.400000
3415.219087	2325.200000
3416.246790	2369.200000
3417.271468	2360.200000
3418.297453	2348.400000
3419.321859	2363.600000
3420.346128	2376.600000
3421.368818	2378.800000
3422.391372	2351.200000
3423.415232	2391.200000
3424.436072	2396.800000
3425.456776	2377.000000
3426.478786	2378.800000
3427.497778	2292.600000
3428.516635	2367.800000
3429.536798	2355.400000
3430.553944	2386.000000
