-117.888313	-2.010000
-115.218713	-1.610000
-112.552048	-0.730000
-109.886135	7.220000
-107.223154	1.470000
-104.558744	0.730000
-101.897264	3.810000
-99.234355	2.600000
-96.576552	6.820000
-93.917320	3.330000
-91.258836	1.100000
-88.603276	9.080000
-85.946288	2.320000
-83.294398	1.700000
-80.641078	1.280000
-77.990677	0.310000
-75.338847	0.690000
-72.692108	-1.270000
-70.043940	5.470000
-67.396514	4.290000
-64.752002	5.060000
-62.106062	1.160000
-59.465203	1.750000
-56.822915	2.080000
-54.183536	-4.180000
-51.542727	6.830000
-48.902659	0.440000
-46.267663	9.280000
-43.631239	2.530000
-40.997717	6.190000
-38.362767	5.190000
-35.732882	8.160000
-33.099405	1.260000
-30.470990	9.500000
-27.843309	3.130000
-25.214199	10.880000
-22.590146	14.640000
-19.962504	18.750000
-17.339915	29.450000
-14.718058	36.030000
-12.096931	66.680000
-9.476534	167.120000
-6.859026	628.830000
-4.240089	1976.050000
-1.624037	4854.240000
0.991286	9349.820000
3.605882	5148.920000
6.217595	621.420000
8.830737	74.200000
11.438845	45.180000
14.050535	25.340000
16.657194	17.530000
19.265281	18.070000
21.872644	15.210000
24.474982	10.970000
27.080898	8.230000
29.681792	15.110000
32.284114	5.340000
34.881419	1.140000
37.482299	9.660000
40.078164	6.970000
42.675458	6.530000
45.272032	5.670000
47.863597	2.450000
50.456590	3.140000
53.046722	-2.930000
55.638282	0.580000
58.226982	6.950000
60.817109	1.290000
63.402237	2.980000
65.988793	0.660000
68.574635	1.720000
71.157623	3.940000
73.742037	0.950000
76.319323	1.550000
78.900175	1.330000
81.478178	6.760000
84.055471	6.280000
86.634190	3.180000
89.207927	-0.530000
91.783092	-0.190000
94.355413	8.850000
96.927026	0.170000
99.495799	-0.410000
102.065999	-2.030000
104.633361	4.380000
107.202148	1.150000
109.768099	3.660000
112.331215	3.050000
114.897887	2.230000
117.455338	6.860000
120.018474	6.300000
122.576650	8.350000
125.138381	12.930000
127.695155	19.700000
130.253356	24.270000
132.806603	29.750000
135.359153	46.470000
137.915253	64.610000
140.466405	79.350000
143.016860	96.650000
145.566617	100.590000
148.113555	104.330000
150.659798	106.530000
153.207466	114.580000
155.754438	118.800000
158.296475	112.300000
160.837818	108.250000
163.378468	108.180000
165.920544	109.030000
168.459808	109.450000
170.996264	107.780000
173.532028	111.320000
176.069218	107.970000
178.605717	99.580000
181.139410	103.110000
183.670299	104.420000
186.200501	106.100000
188.732127	104.980000
191.260952	100.110000
193.786978	104.080000
196.312318	103.080000
198.839083	111.460000
201.363052	108.740000
203.886336	104.280000
206.408935	107.700000
208.928741	105.170000
211.447864	104.990000
213.966304	107.210000
216.486168	107.490000
218.999031	104.360000
221.515425	104.330000
224.031137	106.080000
226.541959	105.880000
229.054206	111.530000
231.563671	107.060000
234.072457	110.940000
236.580564	112.250000
239.090096	113.350000
241.594747	111.120000
244.098722	113.370000
246.604121	111.190000
249.104645	112.260000
251.608693	109.160000
254.105769	114.730000
256.606369	109.440000
259.104197	116.300000
261.601352	115.420000
264.097834	116.830000
266.589453	110.110000
269.084592	115.790000
271.576964	117.400000
274.068666	123.130000
276.557605	118.920000
279.047968	112.170000
281.535568	118.380000
284.020409	120.900000
286.508765	118.720000
288.990181	117.980000
291.475111	120.400000
293.955196	121.170000
296.438793	126.100000
298.917547	125.160000
301.397725	126.840000
303.875150	123.760000
306.351912	124.790000
308.828011	125.680000
311.301361	133.460000
313.774049	141.720000
316.246076	148.550000
318.717442	169.450000
321.186063	176.390000
323.654026	168.830000
326.123410	152.090000
328.587972	144.260000
331.056038	137.110000
333.519284	139.890000
335.981872	134.450000
338.443804	133.380000
340.905079	132.690000
343.363620	132.640000
345.823583	136.260000
348.280813	130.550000
350.737389	136.840000
353.193311	139.660000
355.646503	135.530000
358.101118	136.340000
360.550931	136.710000
363.004240	134.140000
365.452751	135.740000
367.900610	138.330000
370.349892	136.590000
372.794380	137.070000
375.240290	137.450000
377.685550	131.100000
380.128092	135.320000
382.569986	135.590000
385.011233	133.320000
387.449764	142.520000
389.889717	134.690000
392.326956	132.070000
394.761483	137.480000
397.199498	134.790000
399.632736	140.300000
402.067395	140.440000
404.497282	133.380000
406.930654	137.260000
409.359256	133.380000
411.787216	142.380000
414.216598	133.150000
416.641214	136.550000
419.067252	137.380000
421.492649	132.220000
423.917406	137.070000
426.337405	136.510000
428.758825	148.120000
431.177548	143.310000
433.597692	139.630000
436.015141	140.140000
438.434010	134.360000
440.850186	137.960000
443.261614	140.200000
445.676520	139.210000
448.088735	137.100000
450.500316	132.800000
452.911263	137.070000
455.319524	131.200000
457.727152	130.730000
460.134148	133.220000
462.540513	131.740000
464.944195	135.820000
467.347247	126.770000
469.749669	131.730000
472.151461	126.240000
474.550576	131.370000
476.951110	126.200000
479.351015	125.570000
481.746197	124.900000
484.144846	129.860000
486.538775	123.320000
488.932078	133.840000
491.324755	132.810000
493.716807	122.690000
496.110277	119.220000
498.499035	116.890000
500.885127	113.640000
503.272639	102.080000
505.659528	107.600000
508.043753	95.220000
510.429396	88.630000
512.812378	85.510000
515.192699	82.860000
517.574439	91.550000
519.953520	81.930000
522.334020	79.250000
524.711862	82.740000
527.087049	72.600000
529.461618	74.510000
531.837605	72.690000
534.210940	74.310000
536.585692	74.460000
538.955759	70.810000
541.325210	70.540000
543.696079	73.850000
546.062268	70.850000
548.429875	75.520000
550.794836	73.020000
553.159184	74.450000
555.522919	75.700000
557.888072	65.730000
560.248553	63.160000
562.610452	68.810000
564.969710	70.050000
567.326331	63.240000
569.686396	67.000000
572.039770	64.260000
574.396589	65.850000
576.750773	66.830000
579.104349	63.290000
581.457316	62.380000
583.807651	63.990000
586.159404	61.550000
588.504480	67.030000
590.855020	63.500000
593.198886	62.950000
595.548214	61.090000
597.892893	56.540000
600.234948	61.620000
602.578420	60.390000
604.919269	62.520000
607.259516	61.000000
609.597142	57.930000
611.938203	60.790000
614.274626	55.210000
616.612466	55.620000
618.947689	56.020000
621.280296	55.850000
623.614319	60.510000
625.945728	56.450000
628.276539	53.790000
630.606753	54.490000
632.936368	57.210000
635.261360	55.440000
637.591794	51.260000
639.917607	54.890000
642.240812	62.290000
644.565434	57.400000
646.887450	55.820000
649.208872	51.460000
651.527692	50.970000
653.847927	52.320000
656.167569	54.520000
658.484610	50.920000
660.801059	51.820000
663.114910	56.150000
665.430177	56.170000
667.742847	48.670000
670.056932	57.290000
672.366417	52.220000
674.677318	51.230000
676.985626	46.570000
679.293346	45.340000
681.602480	43.900000
683.907022	50.480000
686.210978	46.110000
688.514348	52.950000
690.819132	53.380000
693.119330	45.770000
695.420942	47.140000
697.721970	44.510000
700.018415	41.870000
702.316276	49.390000
704.613553	48.620000
706.910247	44.120000
709.202365	44.850000
711.497894	45.540000
713.788849	44.570000
716.081219	48.070000
718.371014	48.890000
720.660228	50.020000
722.948863	49.870000
725.234925	43.360000
727.522402	52.780000
729.807307	48.300000
732.091635	46.330000
734.373394	49.990000
736.656567	49.250000
738.939163	52.530000
741.217203	49.580000
743.496658	48.280000
745.775536	46.450000
748.053840	45.610000
750.327594	45.940000
752.602761	51.330000
754.877355	49.150000
757.149390	48.810000
759.422838	52.120000
761.693728	48.480000
763.962062	48.510000
766.231809	49.800000
768.499002	53.410000
770.765624	49.010000
773.031676	49.660000
775.295177	55.950000
777.560091	52.860000
779.824435	52.170000
782.084250	56.150000
784.345477	47.970000
786.606137	55.610000
788.864251	53.240000
791.119820	52.390000
793.378780	56.050000
795.631241	51.860000
797.889068	50.230000
800.142377	54.940000
802.393146	52.720000
804.645327	50.900000
806.894969	51.410000
809.146024	52.290000
811.392567	53.410000
813.640522	51.400000
815.885943	51.040000
818.132775	53.170000
820.379046	55.260000
822.620812	48.260000
824.865962	48.980000
827.104639	46.250000
829.346698	52.110000
831.584259	45.540000
833.823232	47.630000
836.059678	44.560000
838.297535	46.190000
840.532867	48.400000
842.765676	48.200000
844.999896	40.840000
847.231593	46.300000
849.462736	42.790000
851.693324	42.860000
853.923358	45.670000
856.152838	46.550000
858.377836	45.830000
860.606209	40.550000
862.830102	43.570000
865.055407	46.290000
867.276236	43.120000
869.500437	43.300000
871.720165	50.560000
873.941303	43.330000
876.161891	45.610000
878.379970	43.870000
880.599458	47.780000
882.814480	41.340000
885.028955	51.930000
887.242881	42.750000
889.456261	41.750000
891.669093	47.280000
893.881379	41.150000
896.091162	47.380000
898.300400	45.810000
900.509093	46.500000
902.715287	39.650000
904.922890	44.260000
907.127995	41.590000
909.332557	41.820000
911.534624	45.160000
913.738100	46.780000
915.939082	46.990000
918.139522	45.410000
920.341371	44.270000
922.536829	44.130000
924.735646	39.930000
926.930024	45.070000
929.127760	43.930000
931.321060	48.830000
933.515769	43.300000
935.707992	44.590000
937.899676	45.870000
940.090823	42.370000
942.279487	46.640000
944.467615	48.290000
946.653262	47.310000
948.842261	50.590000
951.026837	47.190000
953.210878	52.750000
955.398269	49.830000
957.577356	54.830000
959.759794	53.360000
961.941698	49.130000
964.121127	56.370000
966.298084	54.790000
968.476449	57.450000
970.656221	57.220000
972.829644	53.700000
975.006413	57.200000
977.178775	55.960000
979.352545	59.020000
981.521911	60.790000
983.694621	67.220000
985.864866	66.480000
988.034582	59.770000
990.203769	60.210000
992.368559	64.860000
994.536690	59.840000
996.700427	61.330000
998.865570	61.120000
1001.028254	65.280000
1003.190413	65.900000
1005.350115	69.860000
1007.509292	64.870000
1009.669876	69.040000
1011.828006	72.480000
1013.985611	70.710000
1016.142693	66.340000
1018.299251	66.790000
1020.451430	70.910000
1022.605016	71.990000
1024.758080	72.020000
1026.908695	78.260000
1029.060717	65.470000
1031.208365	76.580000
1033.359345	77.420000
1035.505954	82.260000
1037.652044	76.070000
1039.797616	77.880000
1041.944593	76.570000
1044.085281	78.740000
1046.229299	80.180000
1048.370876	79.020000
1050.511937	77.310000
1052.654402	80.760000
1054.790588	78.630000
1056.930099	86.460000
1059.065256	79.160000
1061.203737	80.460000
1063.337864	75.460000
1065.471478	76.090000
1067.606497	76.700000
1069.737166	79.850000
1071.869240	76.030000
1073.998885	78.010000
1076.128018	80.120000
1078.256639	73.060000
1080.384749	74.620000
1082.510433	73.710000
1084.635607	69.850000
1086.762185	69.440000
1088.884425	69.030000
1091.008070	68.490000
1093.127380	68.680000
1095.251920	64.410000
1097.370214	71.130000
1099.489913	69.740000
1101.607193	68.190000
1103.723967	66.370000
1105.840234	61.760000
1107.954085	62.210000
1110.069341	64.420000
1112.180273	60.050000
1114.294518	59.800000
1116.404442	63.370000
1118.515770	55.140000
1120.626593	59.150000
1122.733100	60.850000
1124.842917	55.910000
1126.948419	60.670000
1129.055324	54.070000
1131.156014	58.690000
1133.261916	54.280000
1135.363509	55.320000
1137.466505	56.080000
1139.569000	52.060000
1141.665288	50.980000
1143.766784	51.580000
1145.863976	48.120000
1147.960671	49.780000
1150.056867	55.460000
1152.152566	56.300000
1154.247766	57.200000
1156.340570	54.250000
1158.434777	57.170000
1160.522792	45.910000
1162.616005	53.150000
1164.703030	51.450000
1166.793354	50.650000
1168.879391	51.180000
1170.968725	53.070000
1173.051878	46.700000
1175.136433	57.020000
1177.222390	50.000000
1179.304065	47.470000
1181.387142	47.930000
1183.467833	52.190000
1185.548032	45.380000
1187.627740	52.020000
1189.706957	48.620000
1191.783792	52.780000
1193.858246	50.680000
1195.935991	42.900000
1198.009467	49.060000
1200.084343	52.280000
1202.154952	49.430000
1204.226962	43.590000
1206.296597	47.630000
1208.367632	52.940000
1210.438179	44.820000
1212.504465	43.660000
1214.572152	46.470000
1216.637467	43.620000
1218.704182	37.890000
1220.766641	46.680000
1222.832385	44.310000
1224.893875	47.350000
1226.956766	42.370000
1229.017289	41.690000
1231.077328	43.290000
1233.136885	40.070000
1235.194076	41.430000
1237.250786	43.180000
1239.305132	45.400000
1241.362760	44.800000
1243.418025	39.820000
1245.469049	40.700000
1247.521473	46.510000
1249.573417	42.150000
1251.623003	43.290000
1253.672110	39.230000
1255.720739	41.350000
1257.768889	39.610000
1259.816560	39.390000
1261.860001	39.060000
1263.906718	38.450000
1265.951081	43.010000
1267.994968	39.090000
1270.036503	40.220000
1272.075689	40.470000
1274.118148	42.980000
1276.156384	40.840000
1278.196019	35.380000
1280.235179	37.440000
1282.270120	41.390000
1284.306460	38.210000
1286.340456	41.950000
1288.375849	39.460000
1290.407030	42.700000
1292.439608	40.790000
1294.471715	40.690000
1296.501481	38.570000
1298.532645	35.260000
1300.559601	39.860000
1302.587955	38.820000
1304.612104	37.880000
1306.639519	35.130000
1308.662731	36.760000
1310.687341	37.200000
1312.709617	44.030000
1314.733290	43.070000
1316.754630	35.100000
1318.775502	45.190000
1320.795907	39.580000
1322.812119	42.890000
1324.829728	37.140000
1326.845009	39.630000
1328.863549	38.290000
1330.877900	41.330000
1332.889925	42.530000
1334.905207	41.150000
1336.916304	45.780000
1338.928798	43.890000
1340.937109	42.210000
1342.948675	48.050000
1344.954203	47.550000
1346.962986	44.750000
1348.967591	47.000000
1350.975450	47.330000
1352.982847	46.900000
1354.984213	43.980000
1356.986975	44.800000
1358.989278	46.070000
1360.991121	41.440000
1362.992504	46.340000
1364.991574	37.870000
1366.990185	40.870000
1368.988338	40.610000
1370.986032	41.830000
1372.979564	40.740000
1374.974491	37.870000
1376.968962	38.680000
1378.962976	42.440000
1380.954683	35.450000
1382.945935	41.220000
1384.934881	39.500000
1386.925222	38.530000
1388.915108	38.720000
1390.902690	34.640000
1392.889819	36.550000
1394.874646	40.140000
1396.860868	36.930000
1398.844790	38.320000
1400.828259	36.950000
1402.811275	34.570000
1404.791994	40.420000
1406.774107	47.860000
1408.753924	42.700000
1410.733289	36.470000
1412.708516	38.910000
1414.686981	33.200000
1416.663153	32.090000
1418.638876	41.220000
1420.614149	32.790000
1422.587131	35.360000
1424.559665	34.980000
1426.531751	42.280000
1428.503390	38.680000
1430.470900	39.840000
1432.443484	42.300000
1434.408262	44.460000
1436.378113	37.860000
1438.343840	37.080000
1440.310959	35.190000
1442.275795	35.130000
1444.236511	35.690000
1446.202295	41.620000
1448.162124	38.600000
1450.123347	32.730000
1452.085962	41.630000
1454.044462	35.130000
1456.002519	34.410000
1457.960135	40.220000
1459.917308	44.360000
1461.872206	40.270000
1463.828497	38.290000
1465.782513	40.070000
1467.736088	38.560000
1469.687391	42.490000
1471.640087	39.500000
1473.590510	39.480000
1475.540495	40.680000
1477.490041	38.880000
1479.437318	41.920000
1481.382327	38.200000
1483.328729	39.370000
1485.274693	35.530000
1487.220220	38.470000
1489.163481	44.430000
1491.106307	40.690000
1493.046869	41.200000
1494.988822	40.530000
1496.928513	45.710000
1498.867770	46.780000
1500.806591	44.890000
1502.743153	45.410000
1504.681106	48.740000
1506.616800	44.310000
1508.552061	44.950000
1510.485066	47.990000
1512.417638	45.440000
1514.349778	49.110000
1516.281486	45.380000
1518.210940	47.350000
1520.141785	44.540000
1522.072198	45.580000
1523.998539	46.900000
1525.926271	50.990000
1527.851752	50.610000
1529.776804	51.370000
1531.701427	56.780000
1533.625621	55.820000
1535.547567	49.310000
1537.470904	52.060000
1539.391994	60.040000
1541.310840	50.300000
1543.231076	60.700000
1545.149069	64.960000
1547.066635	61.480000
1548.981959	63.700000
1550.898673	71.020000
1552.811332	78.390000
1554.727195	82.650000
1556.640818	93.660000
1558.552203	100.450000
1560.464978	104.350000
1562.373703	113.730000
1564.283817	131.320000
1566.193508	155.670000
1568.102776	186.970000
1570.009810	219.070000
1571.914611	271.090000
1573.820801	338.070000
1575.724759	422.370000
1577.628296	496.880000
1579.531413	550.400000
1581.432300	569.520000
1583.334576	516.750000
1585.234624	434.400000
1587.136059	356.660000
1589.033461	278.100000
1590.930444	223.880000
1592.827009	184.420000
1594.724962	154.570000
1596.617080	130.010000
1598.512391	114.700000
1600.407285	102.860000
1602.299957	94.060000
1604.192212	85.810000
1606.082248	72.810000
1607.971868	70.440000
1609.861073	69.040000
1611.749863	70.250000
1613.636435	67.120000
1615.524395	63.580000
1617.408338	61.120000
1619.293668	60.490000
1621.178585	55.070000
1623.061288	54.530000
1624.945378	49.370000
1626.825456	54.840000
1628.706922	56.640000
1630.586177	48.010000
1632.466818	50.840000
1634.341655	47.540000
1636.221473	41.710000
1638.097287	44.730000
1639.972690	51.000000
1641.849479	43.210000
1643.720472	40.550000
1645.594646	47.970000
1647.464821	44.730000
1649.338178	43.140000
1651.209331	43.450000
1653.078282	42.080000
1654.948618	44.260000
1656.814962	39.140000
1658.682691	45.030000
1660.548221	45.250000
1662.415137	45.050000
1664.278064	42.150000
1666.142376	39.180000
1668.004492	38.310000
1669.866203	44.510000
1671.729300	39.040000
1673.590201	43.600000
1675.448910	39.380000
1677.307215	41.940000
1679.166905	43.110000
1681.020827	43.860000
1682.877923	39.760000
1684.734616	44.800000
1686.587332	38.490000
1688.443220	41.000000
1690.295134	42.270000
1692.146647	41.180000
1693.997759	45.130000
1695.848471	40.980000
1697.698782	37.150000
1699.546908	38.530000
1701.396419	43.870000
1703.240181	36.470000
1705.088892	39.220000
1706.931857	43.370000
1708.777989	48.140000
1710.620158	40.080000
1712.465493	38.060000
1714.305087	40.390000
1716.146065	42.930000
1717.988426	40.040000
1719.826831	37.010000
1721.666619	35.340000
1723.504232	47.040000
1725.341449	38.130000
1727.176493	39.130000
1729.012920	35.820000
1730.847175	41.610000
1732.681035	34.750000
1734.514501	42.710000
1736.344022	44.170000
1738.176701	37.950000
1740.005436	37.820000
1741.837328	42.950000
1743.665278	39.780000
1745.492837	37.010000
1747.320003	43.600000
1749.146778	46.050000
1750.973161	43.500000
1752.795608	43.210000
1754.621210	45.390000
1756.442877	41.350000
1758.265926	39.840000
1760.086813	39.220000
1761.907312	36.850000
1763.729191	43.120000
1765.545372	40.500000
1767.364704	45.130000
1769.180109	40.520000
1770.998664	38.480000
1772.813294	38.600000
1774.627537	44.610000
1776.441394	37.740000
1778.254864	40.300000
1780.066181	37.390000
1781.878878	33.620000
1783.691190	42.910000
1785.499584	42.530000
1787.309358	41.630000
1789.115218	43.290000
1790.924223	42.850000
1792.729315	42.770000
1794.535788	36.380000
1796.341877	40.390000
1798.144055	39.050000
1799.949378	39.370000
1801.750792	43.500000
1803.553586	41.560000
1805.352474	38.080000
1807.152743	38.560000
1808.952630	34.880000
1810.750375	36.340000
1812.547740	36.050000
1814.344725	42.350000
1816.141329	42.320000
1817.935794	37.920000
1819.731638	40.260000
1821.521827	36.820000
1823.316913	38.350000
1825.106347	40.560000
1826.898917	47.170000
1828.689352	41.240000
1830.477653	46.980000
1832.269089	42.560000
1834.054879	47.190000
1835.842049	39.960000
1837.627087	39.400000
1839.415259	40.830000
1841.199545	39.450000
1842.981701	36.390000
1844.765237	35.930000
1846.546644	44.120000
1848.329430	40.800000
1850.108335	37.240000
1851.888620	39.870000
1853.666778	34.630000
1855.446315	44.460000
1857.223727	40.130000
1858.999015	37.670000
1860.775681	43.620000
1862.550225	42.410000
1864.326147	42.680000
1866.096448	38.890000
1867.869877	41.970000
1869.641186	34.240000
1871.412124	41.030000
1873.184440	33.270000
1874.951142	40.800000
1876.720970	35.720000
1878.486934	42.920000
1880.256021	37.850000
1882.021247	41.950000
1883.786105	44.020000
1885.552340	37.890000
1887.314716	38.710000
1889.076725	39.650000
1890.838366	44.970000
1892.599641	40.370000
1894.360548	39.760000
1896.121089	38.700000
1897.879520	41.640000
1899.637585	34.400000
1901.393543	47.020000
1903.150877	38.650000
1904.907846	46.610000
1906.662708	42.880000
1908.415466	34.960000
1910.167859	41.980000
1911.921629	40.120000
1913.673295	38.980000
1915.422859	39.950000
1917.173798	36.970000
1918.924375	42.090000
1920.671112	38.670000
1922.419226	38.860000
1924.165240	39.940000
1925.912629	45.040000
1927.657921	43.650000
1929.401115	36.220000
1931.145684	35.360000
1932.888158	40.370000
1934.630271	40.170000
1936.372024	35.830000
1938.113417	44.720000
1939.852717	37.380000
1941.591658	40.590000
1943.330240	39.330000
1945.066731	36.640000
1946.802864	37.675000
1948.540371	38.710000
1950.274056	37.600000
1952.009116	36.960000
1953.742087	41.170000
1955.474702	38.810000
1957.206961	41.390000
1958.938863	37.860000
1960.668679	45.270000
1962.396410	40.850000
1964.125516	39.110000
1965.854267	35.570000
1967.580934	38.260000
1969.307247	36.140000
1971.034933	41.980000
1972.757083	40.190000
1974.482334	38.550000
1976.203778	35.750000
1977.928323	41.530000
1979.650787	39.000000
1981.369449	39.590000
1983.091209	41.160000
1984.809167	35.800000
1986.528498	45.660000
1988.244030	43.800000
1989.964382	45.190000
1991.680936	35.500000
1993.393693	40.250000
1995.109546	38.530000
1996.823327	40.670000
1998.536758	42.220000
2000.248118	40.040000
2001.960850	40.390000
2003.669792	37.340000
2005.381826	36.330000
2007.088352	39.030000
2008.797969	41.150000
2010.505520	41.330000
2012.212722	41.970000
2013.917859	40.250000
2015.622650	39.220000
2017.328812	39.570000
2019.031192	37.680000
2020.734943	39.370000
2022.436632	39.620000
2024.137976	37.390000
2025.838974	38.960000
2027.537911	44.190000
2029.238220	38.420000
2030.934754	34.450000
2032.632659	41.920000
2034.328505	41.690000
2036.027437	37.070000
2037.720883	38.050000
2039.415700	39.540000
2041.110175	44.440000
2042.800881	37.290000
2044.494671	34.820000
2046.184694	40.530000
2047.876088	43.160000
2049.565429	44.880000
2051.256140	41.960000
2052.943088	37.730000
2054.629697	37.120000
2056.317675	40.190000
2058.001894	38.210000
2059.687484	39.010000
2061.372734	41.130000
2063.055935	39.450000
2064.740507	36.210000
2066.419616	43.670000
2068.103510	39.350000
2069.781943	44.750000
2071.463454	36.710000
2073.141213	39.400000
2074.818636	36.690000
2076.497428	40.610000
2078.174178	41.090000
2079.848886	36.780000
2081.524963	37.640000
2083.199000	35.290000
2084.872701	37.850000
2086.546067	41.040000
2088.217394	38.230000
2089.888387	38.070000
2091.559046	38.240000
2093.229371	41.130000
2094.899362	35.220000
2096.567317	41.010000
2098.234939	37.080000
2099.900526	34.300000
2101.567482	35.980000
2103.232405	33.000000
2104.896996	42.400000
2106.559555	33.680000
2108.223482	40.440000
2109.885378	30.970000
2111.546944	38.180000
2113.208178	45.260000
2114.867384	38.770000
2116.526259	41.010000
2118.184805	37.790000
2119.843020	41.360000
2121.497513	44.950000
2123.155070	36.760000
2124.812298	36.160000
2126.465804	35.240000
2128.120678	39.440000
2129.771833	40.200000
2131.426051	42.350000
2133.076552	32.970000
2134.728419	41.930000
2136.374878	37.400000
2138.026092	38.430000
2139.673592	37.380000
2141.322459	32.840000
2142.969307	40.360000
2144.615830	41.340000
2146.262027	38.430000
2147.904516	36.120000
2149.550063	39.880000
2151.191903	40.100000
2152.836800	41.690000
2154.477991	40.630000
2156.118860	40.650000
2157.759404	42.380000
2159.397936	36.450000
2161.037834	40.420000
2162.674032	39.170000
2164.311596	38.140000
2165.948838	38.880000
2167.584070	36.530000
2169.218981	40.170000
2170.853569	39.030000
2172.487837	45.030000
2174.118411	44.940000
2175.752037	36.970000
2177.381971	36.120000
2179.013270	40.350000
2180.642564	41.380000
2182.271539	38.290000
2183.900194	37.960000
2185.528530	38.760000
2187.154864	40.850000
2188.780879	37.810000
2190.404892	38.970000
2192.030271	39.350000
2193.653649	37.610000
2195.278392	41.940000
2196.899454	40.270000
2198.520199	35.790000
2200.142309	37.370000
2201.762421	41.880000
2203.380536	42.160000
2204.998336	39.930000
2206.615821	36.710000
2208.232990	39.800000
2209.849844	39.190000
2211.466382	35.620000
2213.080928	41.010000
2214.693481	40.970000
2216.307398	39.210000
2217.919324	38.210000
2219.532613	41.550000
2221.143912	42.460000
2222.753221	37.120000
2224.363894	37.070000
2225.972578	35.590000
2227.580949	39.020000
2229.187334	38.560000
2230.795082	37.110000
2232.400843	38.040000
2234.006293	40.220000
2235.609758	41.070000
2237.214586	35.430000
2238.817430	40.850000
2240.418291	40.980000
2242.020515	35.870000
2243.620757	37.440000
2245.222361	40.340000
2246.820312	40.750000
2248.419626	41.730000
2250.016960	39.120000
2251.613986	39.830000
2253.212374	36.780000
2254.807113	42.860000
2256.399875	35.830000
2257.994000	41.250000
2259.589486	40.040000
2261.181327	36.170000
2262.772862	41.040000
2264.365759	41.730000
2265.953346	37.840000
2267.545629	43.220000
2269.132606	35.200000
2270.722610	37.880000
2272.307310	39.450000
2273.896704	40.270000
2275.480796	39.550000
2277.066248	42.520000
2278.649732	43.870000
2280.236241	40.020000
2281.819117	39.560000
2283.401690	36.990000
2284.983959	30.560000
2286.562598	42.280000
2288.144262	37.330000
2289.722297	37.620000
2291.303355	45.480000
2292.880786	41.760000
2294.456254	38.040000
2296.034744	37.520000
2297.609610	33.970000
2299.184175	31.910000
2300.758440	34.690000
2302.332404	38.940000
2303.906067	38.410000
2305.479431	34.720000
2307.049176	39.430000
2308.618622	37.430000
2310.191086	37.270000
2311.758276	34.970000
2313.328484	34.020000
2314.895077	41.090000
2316.463030	43.380000
2318.029027	39.920000
2319.594727	33.880000
2321.160129	42.400000
2322.723578	34.540000
2324.288386	45.480000
2325.849586	45.860000
2327.413800	55.200000
2328.972752	55.700000
2330.534719	53.500000
2332.094734	45.480000
2333.654455	39.750000
2335.212226	38.310000
2336.769702	43.330000
2338.326884	38.860000
2339.882118	43.270000
2341.437059	37.010000
2342.991705	40.360000
2344.546058	39.510000
2346.100118	39.600000
2347.653883	39.490000
2349.205704	35.860000
2350.755583	39.470000
2352.308469	39.100000
2353.856112	36.030000
2355.406764	35.040000
2356.953824	41.100000
2358.502242	33.900000
2360.050369	40.760000
2361.594907	35.900000
2363.140803	39.200000
2364.684761	35.800000
2366.230076	38.560000
2367.771806	35.870000
2369.314893	42.270000
2370.856044	38.450000
2372.396906	37.010000
2373.937479	34.920000
2375.477763	37.860000
2377.017758	41.200000
2378.554175	38.760000
2380.093593	39.150000
2381.629433	40.110000
2383.166631	39.590000
2384.700253	36.930000
2386.236875	38.870000
2387.771567	38.950000
2389.304329	38.330000
2390.836804	41.680000
2392.367351	38.930000
2393.900896	38.660000
2395.429230	39.720000
2396.958921	40.480000
2398.488325	40.000000
2400.017445	41.460000
2401.546280	39.850000
2403.069909	42.210000
2404.598174	43.610000
2406.121237	38.420000
2407.648933	39.030000
2409.169790	40.050000
2410.695280	41.530000
2412.217209	46.740000
2413.740494	36.030000
2415.261857	42.170000
2416.781301	40.930000
2418.302100	45.120000
2419.820981	41.820000
2421.339579	39.840000
2422.856260	41.660000
2424.374295	42.990000
2425.892049	45.140000
2427.406252	42.190000
2428.920174	40.400000
2430.433816	39.450000
2431.948813	47.680000
2433.460261	46.500000
2434.973064	46.790000
2436.483953	47.590000
2437.994564	46.910000
2439.503263	55.990000
2441.014948	47.400000
2442.523090	54.520000
2444.030954	53.970000
2445.538540	49.950000
2447.042585	48.960000
2448.549615	53.640000
2450.054737	45.230000
2451.559582	48.330000
2453.062520	49.710000
2454.565182	48.170000
2456.067567	50.100000
2457.568047	47.790000
2459.069880	52.100000
2460.569808	51.750000
2462.069461	47.150000
2463.568839	46.150000
2465.066314	49.710000
2466.561887	47.020000
2468.060440	49.100000
2469.555465	46.410000
2471.051842	46.590000
2472.544693	41.300000
2474.038897	45.090000
2475.532827	43.790000
2477.023233	48.960000
2478.516617	43.250000
2480.008103	45.120000
2481.497692	45.570000
2482.987009	44.980000
2484.474430	45.130000
2485.964827	44.090000
2487.451706	44.780000
2488.939936	40.510000
2490.424649	39.780000
2491.909093	42.150000
2493.394887	41.690000
2494.878790	43.000000
2496.364043	43.430000
2497.844163	40.740000
2499.327256	38.750000
2500.808458	38.710000
2502.289391	42.040000
2503.768435	45.870000
2505.247210	42.380000
2506.725717	43.360000
2508.203956	44.000000
2509.681926	43.400000
2511.156391	39.460000
2512.633826	36.990000
2514.107757	44.070000
2515.583038	38.750000
2517.058052	41.810000
2518.529565	37.260000
2520.002429	41.280000
2521.473410	39.440000
2522.945741	40.070000
2524.412958	36.870000
2525.883142	39.520000
2527.351445	46.220000
2528.819483	46.400000
2530.287256	41.450000
2531.754764	44.190000
2533.222007	42.080000
2534.685758	39.780000
2536.150859	41.680000
2537.614083	42.330000
2539.078656	37.600000
2540.539741	39.290000
2542.002175	36.180000
2543.464346	43.460000
2544.923031	40.490000
2546.386287	35.930000
2547.844448	37.810000
2549.303957	46.160000
2550.758372	42.110000
2552.217358	38.390000
2553.674472	41.370000
2555.129715	40.190000
2556.584696	43.910000
2558.037809	45.380000
2559.492270	43.190000
2560.944861	39.430000
2562.397193	43.330000
2563.847658	40.990000
2565.301078	41.300000
2566.749416	43.590000
2568.200709	38.390000
2569.650137	42.970000
2571.096092	47.860000
2572.545002	41.970000
2573.990442	44.010000
2575.437229	50.760000
2576.882154	46.100000
2578.326820	44.210000
2579.772834	40.970000
2581.215382	47.450000
2582.659277	46.820000
2584.099707	39.460000
2585.541484	41.350000
2586.981402	45.480000
2588.422667	42.540000
2589.860470	44.950000
2591.301223	43.360000
2592.736914	46.220000
2594.175554	46.170000
2595.612336	45.060000
2597.047263	46.270000
2598.485137	42.120000
2599.917954	48.040000
2601.352118	46.770000
2602.784428	42.930000
2604.218084	49.820000
2605.649887	47.740000
2607.081436	43.240000
2608.512733	39.450000
2609.942177	45.880000
2611.371369	47.030000
2612.798711	53.450000
2614.227398	45.330000
2615.655834	45.110000
2617.080822	47.340000
2618.507157	47.000000
2619.931643	52.640000
2621.357475	51.900000
2622.779863	53.040000
2624.203597	47.400000
2625.625484	48.740000
2627.047122	46.820000
2628.466914	53.310000
2629.888052	52.510000
2631.308940	51.120000
2632.726390	55.220000
2634.146779	59.590000
2635.563731	55.760000
2636.980434	56.010000
2638.396889	61.390000
2639.813096	58.550000
2641.229055	63.280000
2642.643173	58.790000
2644.057043	59.280000
2645.469075	63.250000
2646.882450	66.800000
2648.292396	72.950000
2649.705278	67.850000
2651.114731	70.770000
2652.523938	72.720000
2653.931309	74.920000
2655.341614	78.980000
2656.750084	77.240000
2658.156718	81.680000
2659.563107	85.270000
2660.967662	86.350000
2662.373561	87.100000
2663.777627	85.710000
2665.181448	95.480000
2666.585025	92.000000
2667.986771	98.030000
2669.389860	99.720000
2670.789531	100.850000
2672.190546	104.370000
2673.588145	112.580000
2674.988674	111.930000
2676.385787	111.090000
2677.784244	112.330000
2679.180874	112.430000
2680.577261	115.840000
2681.973406	123.830000
2683.367725	122.830000
2684.763387	115.810000
2686.155640	123.350000
2687.549235	114.360000
2688.941006	119.600000
2690.334120	120.350000
2691.725410	126.610000
2693.114877	123.800000
2694.504104	120.240000
2695.893092	124.230000
2697.283421	126.220000
2698.668767	130.660000
2700.057036	138.020000
2701.443485	134.410000
2702.829695	137.080000
2704.215666	139.480000
2705.598239	142.140000
2706.982154	147.440000
2708.365831	155.170000
2709.749269	164.340000
2711.129313	161.690000
2712.510697	173.940000
2713.890267	173.060000
2715.271177	185.830000
2716.650273	187.080000
2718.027555	188.390000
2719.406178	183.170000
2720.782988	177.420000
2722.159561	170.570000
2723.535899	165.180000
2724.910426	156.630000
2726.286293	147.980000
2727.658773	140.720000
2729.034169	138.880000
2730.404605	132.970000
2731.776382	126.750000
2733.147924	121.560000
2734.517658	114.700000
2735.888733	114.790000
2737.257999	107.760000
2738.627032	101.870000
2739.994259	101.660000
2741.361252	92.650000
2742.728013	89.190000
2744.094542	84.020000
2745.459265	83.720000
2746.823756	77.620000
2748.188016	79.530000
2749.552043	70.940000
2750.915839	69.700000
2752.276261	61.920000
2753.639593	66.050000
2754.997983	64.130000
2756.359283	56.750000
2757.717213	59.840000
2759.078051	53.030000
2760.437090	56.310000
2761.792760	60.870000
2763.151338	53.420000
2764.506549	47.990000
2765.861531	45.100000
2767.214717	51.660000
2768.570809	43.130000
2769.923536	47.870000
2771.276036	47.450000
2772.628307	40.840000
2773.981916	45.580000
2775.332165	39.710000
2776.680619	49.390000
2778.031979	44.150000
2779.379979	42.480000
2780.729317	42.780000
2782.076863	42.570000
2783.424183	46.130000
2784.771276	43.110000
2786.116578	43.530000
2787.461653	35.810000
2788.806503	42.000000
2790.151127	41.040000
2791.492399	36.310000
2792.835009	40.410000
2794.177393	40.520000
2795.519552	43.170000
2796.858362	41.340000
2798.200072	37.580000
2799.538434	32.570000
2800.878132	41.090000
2802.216046	35.790000
2803.552175	39.670000
2804.888080	36.300000
2806.225323	42.910000
2807.560782	36.270000
2808.896018	41.410000
2810.229471	40.990000
2811.564261	34.240000
2812.895711	40.570000
2814.230056	37.590000
2815.559503	39.340000
2816.890287	43.680000
2818.220849	35.810000
2819.549632	42.050000
2820.879751	37.840000
2822.208092	33.790000
2823.536212	35.820000
2824.862554	33.420000
2826.190233	41.230000
2827.514578	40.220000
2828.840260	39.740000
2830.164166	31.230000
2831.487853	35.450000
2832.812875	31.220000
2834.134567	34.870000
2835.456041	34.220000
2836.777296	34.200000
2838.098332	40.170000
2839.417595	35.420000
2840.738194	39.390000
2842.057022	38.380000
2843.375631	37.040000
2844.692469	33.960000
2846.009090	35.670000
2847.325494	35.420000
2848.640128	29.250000
2849.956098	34.080000
2851.268747	35.080000
2852.582731	39.270000
2853.896499	32.380000
2855.210050	38.640000
2856.521835	35.060000
2857.831853	28.360000
2859.143206	36.660000
2860.451244	34.090000
2861.760616	37.980000
2863.069774	34.020000
2864.378716	35.310000
2865.685894	31.760000
2866.991310	37.100000
2868.298060	41.160000
2869.603047	37.310000
2870.907821	32.670000
2872.210833	34.060000
2873.516726	35.170000
2874.817765	28.750000
2876.120138	31.480000
2877.420751	34.050000
2878.722698	36.190000
2880.024431	34.180000
2881.322861	35.920000
2882.622624	36.380000
2883.920630	34.980000
2885.218424	33.810000
2886.514462	27.100000
2887.811833	27.860000
2889.107448	31.810000
2890.402852	30.200000
2891.698045	28.220000
2892.989941	34.200000
2894.284713	32.300000
2895.576188	34.280000
2896.868996	34.290000
2898.161594	38.170000
2899.450898	33.170000
2900.741534	34.380000
2902.030419	31.300000
2903.320636	31.320000
2904.607562	30.320000
2905.895820	37.640000
2907.182329	36.720000
2908.468629	28.700000
2909.754722	28.450000
2911.039066	30.750000
2912.326281	33.340000
2913.608670	28.770000
2914.892391	30.720000
2916.174366	33.860000
2917.456133	33.400000
2918.736156	31.300000
2920.019048	37.480000
2921.300195	30.850000
2922.578060	33.840000
2923.858794	30.540000
2925.136247	30.910000
2926.413494	36.290000
2927.688999	34.150000
2928.967372	34.610000
2930.240931	34.930000
2931.517357	34.510000
2932.792042	36.540000
2934.064986	30.640000
2935.339262	34.340000
2936.611798	31.440000
2937.884129	36.710000
2939.153188	32.650000
2940.425112	35.900000
2941.695298	28.260000
2942.965280	33.730000
2944.235059	31.820000
2945.503102	35.330000
2946.769408	32.320000
2948.035513	36.040000
2949.302947	27.050000
2950.568647	35.880000
2951.834144	31.880000
2953.099439	30.180000
2954.361469	37.490000
2955.624829	30.290000
2956.887988	34.920000
2958.149415	32.780000
2959.412171	35.240000
2960.673195	33.290000
2961.932489	31.590000
2963.191583	24.930000
2964.450476	32.900000
2965.709169	33.690000
2966.967662	30.790000
2968.224426	33.640000
2969.480990	32.510000
2970.735827	38.240000
2971.991992	38.060000
2973.244903	33.350000
2974.499143	32.030000
2975.753184	30.200000
2977.005499	28.300000
2978.257615	28.340000
2979.508007	30.220000
2980.761254	35.250000
2982.009724	30.330000
2983.261049	32.250000
2984.509124	29.840000
2985.757003	34.450000
2987.004684	26.890000
2988.252168	36.930000
2989.497931	28.130000
2990.743498	29.010000
2991.990392	27.390000
2993.234042	31.440000
2994.479020	34.020000
2995.720754	28.880000
2996.965340	31.200000
2998.208207	31.150000
2999.447833	31.080000
3000.690309	31.100000
3001.929545	33.230000
3003.170109	28.720000
3004.408957	34.110000
3005.647609	31.070000
3006.884546	31.260000
3008.122811	33.070000
3009.359360	28.490000
3010.595716	35.170000
3011.831878	29.910000
3013.066326	32.840000
3014.300582	29.140000
3015.534644	31.290000
3016.766994	28.840000
3017.997632	32.920000
3019.231116	31.560000
3020.462888	30.610000
3021.692950	25.270000
3022.922819	30.310000
3024.150980	32.520000
3025.380466	28.850000
3026.608243	32.900000
3027.835829	33.720000
3029.064742	33.220000
3030.288912	25.820000
3031.515925	29.630000
3032.739714	30.240000
3033.964830	26.240000
3035.188239	31.440000
3036.411458	27.880000
3037.632972	32.870000
3038.857327	32.640000
3040.076947	34.750000
3041.297893	28.350000
3042.518650	28.760000
3043.737703	27.120000
3044.958081	32.440000
3046.175243	28.370000
3047.393731	26.410000
3048.610516	25.670000
3049.827114	27.970000
3051.043523	31.950000
3052.256720	26.820000
3053.472754	28.230000
3054.685576	30.640000
3055.901235	32.550000
3057.112171	31.520000
3058.324432	30.470000
3059.536507	22.600000
3060.748394	28.000000
3061.958585	29.990000
3063.168589	28.820000
3064.378407	26.570000
3065.586529	26.960000
3066.794466	33.010000
3068.000707	30.800000
3069.208273	28.200000
3070.414144	29.355000
3071.619831	30.510000
3072.825332	20.990000
3074.029140	34.210000
3075.234272	29.650000
3076.437711	35.360000
3077.639459	26.180000
3078.841022	27.110000
3080.042402	28.140000
3081.243598	24.810000
3082.443104	31.070000
3083.642427	27.250000
3084.843073	24.230000
3086.042029	27.470000
3087.237791	26.220000
3088.436382	28.280000
3089.631779	26.080000
3090.828499	31.750000
3092.022027	28.530000
3093.218383	28.010000
3094.413053	29.530000
3095.604532	30.640000
3096.800342	28.840000
3097.991458	25.990000
3099.183898	34.090000
3100.373150	28.460000
3101.565227	30.580000
3102.755621	26.630000
3103.942829	29.090000
3105.131360	27.880000
3106.321212	28.640000
3107.507881	33.130000
3108.694369	26.980000
3109.880679	32.230000
3111.068310	31.480000
3112.252759	26.820000
3113.435529	23.630000
3114.621121	27.410000
3115.805034	24.090000
3116.987268	30.210000
3118.169323	27.190000
3119.351200	24.190000
3120.532899	29.260000
3121.712921	25.730000
3122.891266	27.770000
3124.072431	27.920000
3125.250421	28.590000
3126.428235	30.300000
3127.605871	20.910000
3128.781832	25.400000
3129.957616	27.630000
3131.134722	29.800000
3132.310153	27.890000
3133.483911	24.200000
3134.655996	24.060000
3135.829403	28.650000
3137.002633	22.910000
3138.174192	29.060000
3139.347071	25.000000
3140.516783	24.770000
3141.687816	20.970000
3142.857179	23.980000
3144.024871	29.960000
3145.195379	28.260000
3146.361229	26.250000
3147.531387	26.980000
3148.696889	29.380000
3149.862216	25.280000
3151.027370	27.200000
3152.192351	25.610000
3153.358651	26.870000
3154.520299	23.070000
3155.683266	28.950000
3156.846061	28.050000
3158.008683	26.290000
3159.169640	25.410000
3160.330424	32.540000
3161.491036	27.240000
3162.649984	27.470000
3163.808761	24.780000
3164.967366	27.530000
3166.125798	25.660000
3167.284060	26.490000
3168.440659	26.080000
3169.595597	29.890000
3170.751854	28.490000
3171.906450	28.650000
3173.060876	25.960000
3174.213642	28.180000
3175.366237	29.050000
3176.518663	28.720000
3177.670919	31.970000
3178.823004	24.470000
3179.971944	27.110000
3181.123690	28.520000
3182.273778	27.480000
3183.422210	22.820000
3184.570472	28.700000
3185.718566	26.650000
3186.866491	23.190000
3188.012760	26.680000
3189.158861	28.100000
3190.303308	25.990000
3191.447587	26.670000
3192.591698	27.470000
3193.737126	26.710000
3194.879416	24.470000
3196.021539	31.540000
3197.163494	29.270000
3198.305282	29.590000
3199.446903	21.570000
3200.585389	29.820000
3201.725192	25.540000
3202.866313	25.050000
3204.004299	23.880000
3205.140636	25.530000
3206.276807	27.830000
3207.414295	29.110000
3208.550135	28.430000
3209.687292	29.360000
3210.819836	23.210000
3211.956662	27.550000
3213.088876	23.680000
3214.222407	25.370000
3215.355774	25.340000
3216.486013	23.990000
3217.619050	25.010000
3218.748961	27.180000
3219.880188	25.740000
3221.008291	30.910000
3222.139190	26.300000
3223.268445	29.660000
3224.396057	26.950000
3225.520546	25.490000
3226.649311	28.150000
3227.774954	26.840000
3228.900435	24.120000
3230.024274	29.150000
3231.150907	29.180000
3232.272943	31.490000
3233.396295	23.500000
3234.519485	28.530000
3235.642512	26.080000
3236.763901	36.400000
3237.885127	34.460000
3239.004716	31.620000
3240.124143	36.490000
3241.241932	33.750000
3242.362513	36.720000
3243.479981	39.340000
3244.597288	35.210000
3245.714435	47.100000
3246.829946	40.020000
3247.946771	43.160000
3249.060487	41.840000
3250.176992	35.810000
3251.291863	33.770000
3252.403625	33.290000
3253.515227	28.730000
3254.628145	27.460000
3255.740903	23.380000
3256.850555	28.450000
3257.961522	27.790000
3259.072330	27.150000
3260.181506	22.270000
3261.289052	27.360000
3262.397911	22.150000
3263.506613	25.400000
3264.612212	25.990000
3265.719125	26.470000
3266.824409	22.700000
3267.931007	28.970000
3269.034505	25.360000
3270.139318	25.540000
3271.243973	22.240000
3272.345529	23.870000
3273.446929	26.760000
3274.549643	21.230000
3275.652201	23.310000
3276.751662	27.730000
3277.853907	25.140000
3278.953056	23.770000
3280.050581	26.430000
3281.147950	26.580000
3282.248101	24.850000
3283.345160	22.650000
3284.442063	29.460000
3285.538811	28.550000
3286.631001	21.920000
3287.727439	23.930000
3288.822255	24.110000
3289.916917	21.920000
3291.009957	18.840000
3292.102842	24.920000
3293.194108	24.730000
3294.286685	27.080000
3295.377643	29.210000
3296.466981	29.330000
3297.556166	25.100000
3298.646664	25.290000
3299.734077	28.220000
3300.821337	28.530000
3301.909910	24.870000
3302.998331	23.340000
3304.082204	20.220000
3305.170319	23.160000
3306.255352	27.620000
3307.338770	24.260000
3308.423500	21.760000
3309.506614	22.780000
3310.591041	22.750000
3311.672389	22.890000
3312.755049	22.660000
3313.836095	25.720000
3314.916990	25.970000
3315.996271	26.410000
3317.075402	22.770000
3318.155845	24.040000
3319.233213	28.190000
3320.311893	21.540000
3321.388961	25.400000
3322.465880	21.220000
3323.541187	26.370000
3324.616345	25.050000
3325.692814	19.460000
3326.766213	28.180000
3327.839463	22.350000
3328.914023	22.710000
3329.986975	24.560000
3331.058318	26.420000
3332.130972	24.280000
3333.200560	24.500000
3334.271458	22.910000
3335.340749	21.990000
3336.411351	27.260000
3337.480346	22.490000
3338.547735	24.180000
3339.613519	31.810000
3340.683529	21.850000
3341.750476	24.050000
3342.814361	22.280000
3343.881014	27.810000
3344.946062	28.260000
3346.009507	28.050000
3347.072806	22.990000
3348.135958	23.730000
3349.198964	24.640000
3350.261824	21.510000
3351.323082	22.720000
3352.381283	19.150000
3353.443704	24.100000
3354.503070	18.770000
3355.562290	22.170000
3356.622820	24.100000
3357.678840	18.070000
3358.737624	23.730000
3359.791901	26.300000
3360.848942	27.200000
3361.904384	22.670000
3362.961136	23.510000
3364.016289	26.000000
3365.069845	18.930000
3366.121805	22.030000
3367.176526	24.840000
3368.228198	25.010000
3369.279727	21.650000
3370.332564	23.640000
3371.382354	27.770000
3372.433453	23.290000
3373.481506	28.260000
3374.532318	20.850000
3375.580086	24.730000
3376.627711	21.210000
3377.675193	19.530000
3378.721083	22.160000
3379.768281	24.740000
3380.812437	18.960000
3381.859351	22.000000
3382.904673	24.240000
3383.946954	21.990000
3384.989095	22.140000
3386.032543	24.210000
3387.075850	21.200000
3388.117568	21.280000
3389.159144	22.780000
3390.200579	22.020000
3391.240426	18.580000
3392.278684	21.540000
3393.318250	27.960000
3394.357676	18.760000
3395.395514	23.860000
3396.431765	23.780000
3397.467877	20.900000
3398.505296	26.220000
3399.539682	23.490000
3400.575375	21.700000
3401.610929	16.950000
3402.643452	24.190000
3403.678728	22.130000
3404.710973	23.660000
3405.743080	22.800000
3406.773603	26.130000
3407.805433	21.440000
3408.837125	21.930000
3409.865789	20.010000
3410.894316	22.520000
3411.924149	20.970000
3412.953845	23.160000
3413.980515	26.980000
3415.008492	29.060000
3416.033444	23.320000
3417.061146	20.020000
3418.085825	22.440000
3419.111810	22.860000
3420.136215	21.500000
3421.160484	20.700000
3422.183174	21.450000
3423.205728	24.880000
3424.229588	21.730000
3425.250428	20.120000
3426.271132	27.530000
3427.293143	20.990000
3428.312135	23.090000
3429.330991	21.440000
3430.351154	27.620000
3431.368300	19.410000
