-117.888313	-5.840000
-115.218713	-3.030000
-112.552048	-1.200000
-109.886135	1.700000
-107.223154	0.450000
-104.558744	6.040000
-101.897264	-1.240000
-99.234355	-2.720000
-96.576552	2.730000
-93.917320	7.840000
-91.258836	2.000000
-88.603276	0.010000
-85.946288	1.390000
-83.294398	2.900000
-80.641078	-3.330000
-77.990677	-0.780000
-75.338847	1.390000
-72.692108	3.550000
-70.043940	-3.420000
-67.396514	3.120000
-64.752002	0.310000
-62.106062	4.830000
-59.465203	2.830000
-56.822915	0.180000
-54.183536	3.380000
-51.542727	10.460000
-48.902659	3.390000
-46.267663	8.480000
-43.631239	0.610000
-40.997717	4.470000
-38.362767	3.060000
-35.732882	7.980000
-33.099405	8.250000
-30.470990	6.960000
-27.843309	11.800000
-25.214199	16.060000
-22.590146	14.070000
-19.962504	19.050000
-17.339915	22.480000
-14.718058	34.240000
-12.096931	62.810000
-9.476534	151.530000
-6.859026	523.310000
-4.240089	1756.310000
-1.624037	4973.840000
0.991286	8735.710000
3.605882	4925.960000
6.217595	612.370000
8.830737	63.800000
11.438845	47.740000
14.050535	22.560000
16.657194	21.780000
19.265281	16.770000
21.872644	19.770000
24.474982	10.930000
27.080898	15.320000
29.681792	4.670000
32.284114	10.190000
34.881419	1.620000
37.482299	8.150000
40.078164	4.190000
42.675458	6.370000
45.272032	2.390000
47.863597	8.890000
50.456590	3.900000
53.046722	1.580000
55.638282	-0.700000
58.226982	3.480000
60.817109	1.840000
63.402237	5.810000
65.988793	4.440000
68.574635	4.420000
71.157623	-0.220000
73.742037	-1.100000
76.319323	7.600000
78.900175	2.150000
81.478178	2.100000
84.055471	7.950000
86.634190	0.930000
89.207927	0.400000
91.783092	1.150000
94.355413	6.240000
96.927026	4.930000
99.495799	-2.170000
102.065999	2.470000
104.633361	6.600000
107.202148	1.280000
109.768099	2.530000
112.331215	0.320000
114.897887	4.500000
117.455338	1.970000
120.018474	7.850000
122.576650	7.130000
125.138381	18.880000
127.695155	13.800000
130.253356	22.740000
132.806603	29.110000
135.359153	43.430000
137.915253	60.790000
140.466405	76.950000
143.016860	87.130000
145.566617	102.460000
148.113555	104.690000
150.659798	109.810000
153.207466	110.700000
155.754438	114.860000
158.296475	104.420000
160.837818	108.770000
163.378468	107.780000
165.920544	104.040000
168.459808	108.110000
170.996264	110.900000
173.532028	104.230000
176.069218	104.250000
178.605717	98.120000
181.139410	108.190000
183.670299	102.060000
186.200501	103.210000
188.732127	98.800000
191.260952	104.870000
193.786978	104.020000
196.312318	101.760000
198.839083	101.450000
201.363052	103.030000
203.886336	102.790000
206.408935	110.760000
208.928741	102.650000
211.447864	100.110000
213.966304	103.160000
216.486168	101.390000
218.999031	101.310000
221.515425	100.460000
224.031137	105.650000
226.541959	104.900000
229.054206	102.900000
231.563671	105.080000
234.072457	99.990000
236.580564	108.180000
239.090096	110.260000
241.594747	110.370000
244.098722	107.140000
246.604121	113.890000
249.104645	103.840000
251.608693	114.720000
254.105769	109.410000
256.606369	114.530000
259.104197	117.540000
261.601352	117.590000
264.097834	113.370000
266.589453	116.100000
269.084592	112.650000
271.576964	114.840000
274.068666	111.030000
276.557605	116.760000
279.047968	113.030000
281.535568	119.910000
284.020409	120.250000
286.508765	115.170000
288.990181	118.580000
291.475111	124.360000
293.955196	113.710000
296.438793	125.060000
298.917547	116.570000
301.397725	122.010000
303.875150	124.560000
306.351912	127.440000
308.828011	127.490000
311.301361	129.490000
313.774049	138.730000
316.246076	147.960000
318.717442	162.670000
321.186063	174.720000
323.654026	174.090000
326.123410	157.750000
328.587972	149.320000
331.056038	138.270000
333.519284	134.320000
335.981872	139.260000
338.443804	133.200000
340.905079	133.360000
343.363620	128.900000
345.823583	127.630000
348.280813	129.050000
350.737389	133.160000
353.193311	133.020000
355.646503	133.440000
358.101118	135.790000
360.550931	136.230000
363.004240	136.410000
365.452751	131.910000
367.900610	133.620000
370.349892	133.170000
372.794380	132.910000
375.240290	136.470000
377.685550	128.820000
380.128092	140.600000
382.569986	132.510000
385.011233	135.100000
387.449764	129.760000
389.889717	135.460000
392.326956	134.820000
394.761483	133.120000
397.199498	132.550000
399.632736	134.510000
402.067395	131.540000
404.497282	132.380000
406.930654	134.380000
409.359256	136.790000
411.787216	128.780000
414.216598	135.330000
416.641214	133.560000
419.067252	133.800000
421.492649	137.980000
423.917406	138.000000
426.337405	137.610000
428.758825	136.450000
431.177548	134.940000
433.597692	134.210000
436.015141	134.030000
438.434010	140.780000
440.850186	139.990000
443.261614	135.530000
445.676520	129.870000
448.088735	140.160000
450.500316	135.620000
452.911263	136.170000
455.319524	133.650000
457.727152	129.910000
460.134148	132.800000
462.540513	134.590000
464.944195	129.650000
467.347247	133.350000
469.749669	128.720000
472.151461	125.540000
474.550576	129.000000
476.951110	123.940000
479.351015	122.960000
481.746197	130.990000
484.144846	127.930000
486.538775	133.960000
488.932078	127.010000
491.324755	131.020000
493.716807	121.710000
496.110277	118.940000
498.499035	113.620000
500.885127	109.530000
503.272639	100.340000
505.659528	95.040000
508.043753	92.460000
510.429396	90.470000
512.812378	88.220000
515.192699	88.100000
517.574439	80.710000
519.953520	77.530000
522.334020	79.920000
524.711862	82.090000
527.087049	72.780000
529.461618	82.780000
531.837605	72.970000
534.210940	68.970000
536.585692	67.720000
538.955759	70.900000
541.325210	62.210000
543.696079	68.190000
546.062268	65.080000
548.429875	70.690000
550.794836	66.930000
553.159184	66.440000
555.522919	64.430000
557.888072	65.760000
560.248553	62.920000
562.610452	62.330000
564.969710	64.610000
567.326331	69.780000
569.686396	63.410000
572.039770	62.930000
574.396589	55.470000
576.750773	66.360000
579.104349	59.680000
581.457316	58.880000
583.807651	62.050000
586.159404	68.090000
588.504480	56.050000
590.855020	60.490000
593.198886	64.410000
595.548214	63.190000
597.892893	58.290000
600.234948	68.580000
602.578420	59.110000
604.919269	64.380000
607.259516	53.610000
609.597142	61.070000
611.938203	57.010000
614.274626	61.460000
616.612466	57.960000
618.947689	58.880000
621.280296	55.630000
623.614319	55.860000
625.945728	56.260000
628.276539	59.490000
630.606753	54.160000
632.936368	58.870000
635.261360	51.980000
637.591794	59.110000
639.917607	55.260000
642.240812	58.300000
644.565434	52.170000
646.887450	50.020000
649.208872	53.930000
651.527692	59.530000
653.847927	49.510000
656.167569	52.770000
658.484610	54.540000
660.801059	48.600000
663.114910	44.580000
665.430177	53.250000
667.742847	46.720000
670.056932	47.650000
672.366417	46.420000
674.677318	47.960000
676.985626	47.490000
679.293346	45.920000
681.602480	50.550000
683.907022	50.130000
686.210978	47.240000
688.514348	51.130000
690.819132	47.400000
693.119330	49.300000
695.420942	46.230000
697.721970	44.780000
700.018415	45.280000
702.316276	43.740000
704.613553	44.340000
706.910247	48.720000
709.202365	39.100000
711.497894	46.870000
713.788849	45.980000
716.081219	47.670000
718.371014	46.830000
720.660228	46.550000
722.948863	41.120000
725.234925	47.300000
727.522402	47.710000
729.807307	47.900000
732.091635	47.460000
734.373394	47.460000
736.656567	45.150000
738.939163	52.200000
741.217203	46.600000
743.496658	46.480000
745.775536	43.410000
748.053840	48.300000
750.327594	48.990000
752.602761	46.110000
754.877355	54.150000
757.149390	54.760000
759.422838	47.290000
761.693728	48.650000
763.962062	46.930000
766.231809	43.130000
768.499002	44.930000
770.765624	45.710000
773.031676	56.520000
775.295177	55.110000
777.560091	50.990000
779.824435	54.540000
782.084250	46.970000
784.345477	53.550000
786.606137	48.680000
788.864251	53.320000
791.119820	52.990000
793.378780	55.030000
795.631241	47.320000
797.889068	55.100000
800.142377	51.000000
802.393146	50.460000
804.645327	48.580000
806.894969	52.210000
809.146024	45.830000
811.392567	51.700000
813.640522	46.820000
815.885943	49.280000
818.132775	43.130000
820.379046	49.780000
822.620812	47.560000
824.865962	42.300000
827.104639	46.390000
829.346698	46.080000
831.584259	43.150000
833.823232	49.080000
836.059678	42.570000
838.297535	47.130000
840.532867	44.470000
842.765676	45.550000
844.999896	46.090000
847.231593	47.510000
849.462736	42.820000
851.693324	40.460000
853.923358	43.050000
856.152838	43.910000
858.377836	45.500000
860.606209	43.100000
862.830102	41.420000
865.055407	46.170000
867.276236	39.240000
869.500437	47.420000
871.720165	43.210000
873.941303	44.610000
876.161891	39.880000
878.379970	46.580000
880.599458	41.480000
882.814480	47.810000
885.028955	44.020000
887.242881	41.060000
889.456261	45.780000
891.669093	38.900000
893.881379	41.870000
896.091162	43.220000
898.300400	36.040000
900.509093	41.790000
902.715287	38.890000
904.922890	41.010000
907.127995	40.090000
909.332557	45.610000
911.534624	38.740000
913.738100	48.350000
915.939082	40.970000
918.139522	40.040000
920.341371	41.350000
922.536829	41.950000
924.735646	40.510000
926.930024	42.030000
929.127760	41.380000
931.321060	41.890000
933.515769	40.470000
935.707992	48.120000
937.899676	41.680000
940.090823	41.520000
942.279487	43.220000
944.467615	45.340000
946.653262	43.550000
948.842261	44.560000
951.026837	48.920000
953.210878	49.350000
955.398269	45.030000
957.577356	53.400000
959.759794	44.860000
961.941698	51.080000
964.121127	49.950000
966.298084	54.240000
968.476449	52.550000
970.656221	51.920000
972.829644	53.720000
975.006413	59.000000
977.178775	54.400000
979.352545	64.040000
981.521911	54.390000
983.694621	60.740000
985.864866	63.720000
988.034582	60.570000
990.203769	65.070000
992.368559	67.060000
994.536690	60.760000
996.700427	62.820000
998.865570	61.110000
1001.028254	64.240000
1003.190413	65.540000
1005.350115	66.160000
1007.509292	60.520000
1009.669876	71.030000
1011.828006	63.600000
1013.985611	69.400000
1016.142693	70.600000
1018.299251	65.310000
1020.451430	69.610000
1022.605016	72.910000
1024.758080	62.670000
1026.908695	65.760000
1029.060717	68.060000
1031.208365	72.280000
1033.359345	72.170000
1035.505954	76.180000
1037.652044	72.740000
1039.797616	78.440000
1041.944593	80.240000
1044.085281	76.210000
1046.229299	73.920000
1048.370876	80.200000
1050.511937	75.550000
1052.654402	78.030000
1054.790588	75.350000
1056.930099	82.490000
1059.065256	75.170000
1061.203737	79.620000
1063.337864	74.860000
1065.471478	78.470000
1067.606497	71.880000
1069.737166	74.710000
1071.869240	74.490000
1073.998885	75.690000
1076.128018	71.360000
1078.256639	69.970000
1080.384749	66.000000
1082.510433	73.400000
1084.635607	70.730000
1086.762185	68.970000
1088.884425	65.390000
1091.008070	71.770000
1093.127380	59.770000
1095.251920	63.520000
1097.370214	61.310000
1099.489913	67.250000
1101.607193	56.420000
1103.723967	65.320000
1105.840234	56.770000
1107.954085	56.990000
1110.069341	53.780000
1112.180273	61.360000
1114.294518	57.390000
1116.404442	55.150000
1118.515770	55.690000
1120.626593	53.110000
1122.733100	55.540000
1124.842917	64.960000
1126.948419	55.740000
1129.055324	57.160000
1131.156014	51.710000
1133.261916	47.590000
1135.363509	50.900000
1137.466505	54.400000
1139.569000	47.950000
1141.665288	57.630000
1143.766784	47.750000
1145.863976	53.060000
1147.960671	49.090000
1150.056867	53.410000
1152.152566	47.790000
1154.247766	47.230000
1156.340570	47.810000
1158.434777	53.810000
1160.522792	41.090000
1162.616005	49.410000
1164.703030	48.840000
1166.793354	49.900000
1168.879391	47.060000
1170.968725	45.670000
1173.051878	51.000000
1175.136433	45.920000
1177.222390	46.500000
1179.304065	49.390000
1181.387142	50.170000
1183.467833	46.350000
1185.548032	50.170000
1187.627740	52.210000
1189.706957	43.940000
1191.783792	47.850000
1193.858246	47.850000
1195.935991	51.200000
1198.009467	50.480000
1200.084343	42.180000
1202.154952	45.650000
1204.226962	39.260000
1206.296597	46.170000
1208.367632	47.980000
1210.438179	47.020000
1212.504465	48.310000
1214.572152	43.120000
1216.637467	46.430000
1218.704182	49.830000
1220.766641	41.280000
1222.832385	42.800000
1224.893875	41.610000
1226.956766	46.000000
1229.017289	40.650000
1231.077328	40.310000
1233.136885	44.540000
1235.194076	46.140000
1237.250786	41.820000
1239.305132	35.650000
1241.362760	45.000000
1243.418025	41.600000
1245.469049	38.750000
1247.521473	37.280000
1249.573417	45.280000
1251.623003	34.760000
1253.672110	37.350000
1255.720739	38.330000
1257.768889	39.800000
1259.816560	40.390000
1261.860001	33.510000
1263.906718	33.750000
1265.951081	42.580000
1267.994968	38.060000
1270.036503	38.980000
1272.075689	43.310000
1274.118148	38.250000
1276.156384	36.130000
1278.196019	33.260000
1280.235179	34.300000
1282.270120	34.810000
1284.306460	36.500000
1286.340456	36.600000
1288.375849	33.590000
1290.407030	42.740000
1292.439608	36.710000
1294.471715	36.880000
1296.501481	33.420000
1298.532645	34.830000
1300.559601	34.900000
1302.587955	37.380000
1304.612104	32.330000
1306.639519	35.740000
1308.662731	28.160000
1310.687341	35.750000
1312.709617	34.820000
1314.733290	35.970000
1316.754630	35.280000
1318.775502	35.070000
1320.795907	35.020000
1322.812119	33.970000
1324.829728	32.080000
1326.845009	32.540000
1328.863549	34.110000
1330.877900	38.300000
1332.889925	38.810000
1334.905207	34.920000
1336.916304	33.420000
1338.928798	36.230000
1340.937109	31.150000
1342.948675	40.600000
1344.954203	30.770000
1346.962986	43.480000
1348.967591	36.890000
1350.975450	31.320000
1352.982847	35.230000
1354.984213	37.600000
1356.986975	39.570000
1358.989278	39.250000
1360.991121	39.900000
1362.992504	35.310000
1364.991574	34.800000
1366.990185	38.730000
1368.988338	35.000000
1370.986032	40.960000
1372.979564	36.590000
1374.974491	37.100000
1376.968962	30.440000
1378.962976	37.610000
1380.954683	34.810000
1382.945935	35.120000
1384.934881	38.560000
1386.925222	37.540000
1388.915108	35.070000
1390.902690	41.910000
1392.889819	33.900000
1394.874646	36.750000
1396.860868	28.060000
1398.844790	37.050000
1400.828259	36.380000
1402.811275	38.840000
1404.791994	39.230000
1406.774107	38.460000
1408.753924	36.740000
1410.733289	40.150000
1412.708516	33.840000
1414.686981	42.220000
1416.663153	37.170000
1418.638876	34.800000
1420.614149	33.150000
1422.587131	41.360000
1424.559665	35.060000
1426.531751	33.580000
1428.503390	34.620000
1430.470900	38.410000
1432.443484	39.000000
1434.408262	36.870000
1436.378113	33.650000
1438.343840	39.580000
1440.310959	41.540000
1442.275795	41.810000
1444.236511	36.600000
1446.202295	40.660000
1448.162124	35.170000
1450.123347	36.480000
1452.085962	40.630000
1454.044462	41.860000
1456.002519	37.910000
1457.960135	37.220000
1459.917308	36.310000
1461.872206	42.840000
1463.828497	42.480000
1465.782513	41.570000
1467.736088	35.650000
1469.687391	38.590000
1471.640087	37.150000
1473.590510	40.350000
1475.540495	32.690000
1477.490041	41.310000
1479.437318	38.970000
1481.382327	45.560000
1483.328729	41.600000
1485.274693	37.520000
1487.220220	43.430000
1489.163481	39.840000
1491.106307	38.150000
1493.046869	43.080000
1494.988822	41.460000
1496.928513	41.870000
1498.867770	43.940000
1500.806591	41.750000
1502.743153	41.840000
1504.681106	47.710000
1506.616800	42.130000
1508.552061	44.100000
1510.485066	39.780000
1512.417638	40.270000
1514.349778	43.130000
1516.281486	46.360000
1518.210940	44.350000
1520.141785	45.960000
1522.072198	43.750000
1523.998539	46.470000
1525.926271	43.320000
1527.851752	48.910000
1529.776804	45.260000
1531.701427	48.900000
1533.625621	51.000000
1535.547567	50.810000
1537.470904	49.650000
1539.391994	54.460000
1541.310840	57.210000
1543.231076	57.670000
1545.149069	57.400000
1547.066635	58.910000
1548.981959	61.310000
1550.898673	71.620000
1552.811332	76.620000
1554.727195	89.760000
1556.640818	88.840000
1558.552203	93.840000
1560.464978	100.770000
1562.373703	106.490000
1564.283817	130.720000
1566.193508	147.720000
1568.102776	176.690000
1570.009810	217.220000
1571.914611	266.260000
1573.820801	336.040000
1575.724759	407.820000
1577.628296	497.110000
1579.531413	529.000000
1581.432300	529.040000
1583.334576	467.610000
1585.234624	391.280000
1587.136059	311.370000
1589.033461	240.320000
1590.930444	193.270000
1592.827009	158.920000
1594.724962	131.120000
1596.617080	112.890000
1598.512391	97.710000
1600.407285	90.240000
1602.299957	84.680000
1604.192212	78.570000
1606.082248	73.450000
1607.971868	69.050000
1609.861073	60.450000
1611.749863	63.300000
1613.636435	59.470000
1615.524395	58.810000
1617.408338	53.030000
1619.293668	51.890000
1621.178585	47.410000
1623.061288	51.960000
1624.945378	49.350000
1626.825456	54.400000
1628.706922	42.540000
1630.586177	45.530000
1632.466818	46.420000
1634.341655	47.550000
1636.221473	41.590000
1638.097287	46.580000
1639.972690	40.560000
1641.849479	44.340000
1643.720472	39.420000
1645.594646	41.600000
1647.464821	41.300000
1649.338178	45.910000
1651.209331	41.570000
1653.078282	42.530000
1654.948618	40.890000
1656.814962	43.600000
1658.682691	37.420000
1660.548221	39.160000
1662.415137	45.710000
1664.278064	41.450000
1666.142376	39.710000
1668.004492	44.450000
1669.866203	37.390000
1671.729300	37.920000
1673.590201	36.730000
1675.448910	41.930000
1677.307215	33.250000
1679.166905	44.500000
1681.020827	43.500000
1682.877923	42.610000
1684.734616	39.690000
1686.587332	43.760000
1688.443220	39.970000
1690.295134	37.990000
1692.146647	36.140000
1693.997759	41.850000
1695.848471	40.770000
1697.698782	40.810000
1699.546908	42.860000
1701.396419	37.510000
1703.240181	36.080000
1705.088892	46.270000
1706.931857	40.600000
1708.777989	43.540000
1710.620158	31.090000
1712.465493	37.110000
1714.305087	39.610000
1716.146065	38.160000
1717.988426	27.920000
1719.826831	36.610000
1721.666619	36.780000
1723.504232	36.200000
1725.341449	38.360000
1727.176493	34.900000
1729.012920	41.010000
1730.847175	39.080000
1732.681035	38.310000
1734.514501	35.120000
1736.344022	37.230000
1738.176701	40.050000
1740.005436	36.080000
1741.837328	41.500000
1743.665278	39.380000
1745.492837	43.110000
1747.320003	38.080000
1749.146778	41.040000
1750.973161	43.450000
1752.795608	41.850000
1754.621210	43.160000
1756.442877	43.210000
1758.265926	37.840000
1760.086813	36.220000
1761.907312	43.110000
1763.729191	42.060000
1765.545372	30.000000
1767.364704	40.720000
1769.180109	39.580000
1770.998664	41.080000
1772.813294	45.080000
1774.627537	35.910000
1776.441394	37.140000
1778.254864	40.680000
1780.066181	33.310000
1781.878878	40.310000
1783.691190	36.220000
1785.499584	38.690000
1787.309358	38.210000
1789.115218	37.020000
1790.924223	35.630000
1792.729315	43.470000
1794.535788	33.590000
1796.341877	37.600000
1798.144055	39.860000
1799.949378	42.560000
1801.750792	38.570000
1803.553586	37.520000
1805.352474	36.490000
1807.152743	42.790000
1808.952630	41.890000
1810.750375	43.900000
1812.547740	37.590000
1814.344725	38.250000
1816.141329	36.010000
1817.935794	39.960000
1819.731638	38.110000
1821.521827	42.070000
1823.316913	37.090000
1825.106347	39.960000
1826.898917	38.370000
1828.689352	36.560000
1830.477653	36.110000
1832.269089	41.680000
1834.054879	39.140000
1835.842049	40.390000
1837.627087	41.560000
1839.415259	42.890000
1841.199545	37.480000
1842.981701	42.620000
1844.765237	37.140000
1846.546644	38.660000
1848.329430	35.800000
1850.108335	37.870000
1851.888620	33.950000
1853.666778	44.260000
1855.446315	36.540000
1857.223727	38.850000
1858.999015	39.070000
1860.775681	37.960000
1862.550225	35.400000
1864.326147	39.910000
1866.096448	33.250000
1867.869877	40.770000
1869.641186	39.100000
1871.412124	39.290000
1873.184440	38.870000
1874.951142	43.300000
1876.720970	38.690000
1878.486934	44.590000
1880.256021	36.740000
1882.021247	39.440000
1883.786105	37.420000
1885.552340	37.600000
1887.314716	37.910000
1889.076725	38.490000
1890.838366	36.040000
1892.599641	36.360000
1894.360548	39.800000
1896.121089	38.300000
1897.879520	40.240000
1899.637585	37.040000
1901.393543	37.120000
1903.150877	40.740000
1904.907846	37.360000
1906.662708	45.770000
1908.415466	40.240000
1910.167859	37.460000
1911.921629	35.830000
1913.673295	38.300000
1915.422859	36.170000
1917.173798	40.020000
1918.924375	36.290000
1920.671112	36.710000
1922.419226	25.800000
1924.165240	40.940000
1925.912629	35.260000
1927.657921	40.990000
1929.401115	32.850000
1931.145684	34.930000
1932.888158	36.660000
1934.630271	34.280000
1936.372024	33.910000
1938.113417	38.480000
1939.852717	34.050000
1941.591658	34.440000
1943.330240	34.250000
1945.066731	39.290000
1946.802864	39.905000
1948.540371	40.520000
1950.274056	37.130000
1952.009116	33.820000
1953.742087	32.580000
1955.474702	37.490000
1957.206961	36.040000
1958.938863	38.920000
1960.668679	37.790000
1962.396410	43.310000
1964.125516	39.160000
1965.854267	35.130000
1967.580934	39.120000
1969.307247	43.510000
1971.034933	41.540000
1972.757083	41.950000
1974.482334	41.790000
1976.203778	38.620000
1977.928323	36.360000
1979.650787	39.530000
1981.369449	39.520000
1983.091209	36.740000
1984.809167	35.220000
1986.528498	43.570000
1988.244030	34.610000
1989.964382	36.370000
1991.680936	42.390000
1993.393693	37.120000
1995.109546	40.550000
1996.823327	44.140000
1998.536758	39.030000
2000.248118	42.350000
2001.960850	38.130000
2003.669792	39.880000
2005.381826	37.580000
2007.088352	38.110000
2008.797969	34.580000
2010.505520	42.430000
2012.212722	45.590000
2013.917859	42.520000
2015.622650	36.480000
2017.328812	33.860000
2019.031192	43.130000
2020.734943	42.920000
2022.436632	35.320000
2024.137976	37.570000
2025.838974	37.900000
2027.537911	42.370000
2029.238220	42.830000
2030.934754	39.890000
2032.632659	39.650000
2034.328505	39.890000
2036.027437	36.960000
2037.720883	40.120000
2039.415700	38.060000
2041.110175	45.550000
2042.800881	38.620000
2044.494671	38.200000
2046.184694	40.870000
2047.876088	34.950000
2049.565429	38.590000
2051.256140	40.140000
2052.943088	38.080000
2054.629697	38.970000
2056.317675	37.500000
2058.001894	38.400000
2059.687484	34.590000
2061.372734	35.340000
2063.055935	38.110000
2064.740507	36.570000
2066.419616	34.010000
2068.103510	40.790000
2069.781943	33.010000
2071.463454	41.280000
2073.141213	38.340000
2074.818636	39.390000
2076.497428	29.180000
2078.174178	33.530000
2079.848886	36.330000
2081.524963	42.520000
2083.199000	32.510000
2084.872701	37.190000
2086.546067	35.980000
2088.217394	37.630000
2089.888387	33.340000
2091.559046	35.980000
2093.229371	33.810000
2094.899362	37.600000
2096.567317	34.650000
2098.234939	35.400000
2099.900526	42.420000
2101.567482	37.320000
2103.232405	31.600000
2104.896996	40.520000
2106.559555	34.490000
2108.223482	43.990000
2109.885378	36.900000
2111.546944	38.660000
2113.208178	37.030000
2114.867384	39.570000
2116.526259	34.470000
2118.184805	39.420000
2119.843020	34.010000
2121.497513	37.000000
2123.155070	40.890000
2124.812298	38.460000
2126.465804	39.100000
2128.120678	39.980000
2129.771833	39.570000
2131.426051	39.260000
2133.076552	35.680000
2134.728419	38.390000
2136.374878	36.890000
2138.026092	40.550000
2139.673592	39.830000
2141.322459	41.900000
2142.969307	35.120000
2144.615830	33.470000
2146.262027	32.010000
2147.904516	32.010000
2149.550063	37.310000
2151.191903	46.930000
2152.836800	33.000000
2154.477991	40.410000
2156.118860	37.290000
2157.759404	35.270000
2159.397936	39.160000
2161.037834	39.250000
2162.674032	37.750000
2164.311596	38.990000
2165.948838	39.860000
2167.584070	41.860000
2169.218981	36.390000
2170.853569	37.940000
2172.487837	37.780000
2174.118411	37.830000
2175.752037	33.850000
2177.381971	36.810000
2179.013270	35.540000
2180.642564	34.800000
2182.271539	39.700000
2183.900194	41.210000
2185.528530	35.770000
2187.154864	39.800000
2188.780879	36.360000
2190.404892	39.880000
2192.030271	42.750000
2193.653649	39.590000
2195.278392	36.640000
2196.899454	40.640000
2198.520199	31.950000
2200.142309	39.890000
2201.762421	37.800000
2203.380536	46.930000
2204.998336	32.050000
2206.615821	36.340000
2208.232990	39.270000
2209.849844	33.000000
2211.466382	34.980000
2213.080928	37.950000
2214.693481	36.600000
2216.307398	34.990000
2217.919324	36.060000
2219.532613	34.530000
2221.143912	37.200000
2222.753221	40.000000
2224.363894	38.180000
2225.972578	39.010000
2227.580949	36.880000
2229.187334	41.310000
2230.795082	37.790000
2232.400843	32.770000
2234.006293	33.230000
2235.609758	39.030000
2237.214586	40.050000
2238.817430	36.660000
2240.418291	36.110000
2242.020515	39.160000
2243.620757	35.690000
2245.222361	38.190000
2246.820312	35.650000
2248.419626	40.600000
2250.016960	31.210000
2251.613986	35.970000
2253.212374	34.460000
2254.807113	42.510000
2256.399875	31.300000
2257.994000	32.040000
2259.589486	34.680000
2261.181327	37.850000
2262.772862	38.190000
2264.365759	40.750000
2265.953346	32.350000
2267.545629	39.910000
2269.132606	33.990000
2270.722610	40.560000
2272.307310	32.450000
2273.896704	39.390000
2275.480796	32.010000
2277.066248	36.390000
2278.649732	32.180000
2280.236241	36.940000
2281.819117	37.520000
2283.401690	40.650000
2284.983959	40.530000
2286.562598	36.220000
2288.144262	34.210000
2289.722297	39.560000
2291.303355	35.540000
2292.880786	35.680000
2294.456254	35.820000
2296.034744	44.930000
2297.609610	36.520000
2299.184175	34.730000
2300.758440	35.530000
2302.332404	36.860000
2303.906067	33.950000
2305.479431	36.810000
2307.049176	33.070000
2308.618622	40.080000
2310.191086	35.300000
2311.758276	34.060000
2313.328484	32.400000
2314.895077	35.430000
2316.463030	34.480000
2318.029027	40.890000
2319.594727	34.000000
2321.160129	40.280000
2322.723578	36.470000
2324.288386	38.610000
2325.849586	40.290000
2327.413800	50.810000
2328.972752	52.270000
2330.534719	58.030000
2332.094734	40.810000
2333.654455	39.890000
2335.212226	32.630000
2336.769702	36.280000
2338.326884	41.390000
2339.882118	37.720000
2341.437059	36.360000
2342.991705	34.330000
2344.546058	33.560000
2346.100118	38.150000
2347.653883	41.070000
2349.205704	34.930000
2350.755583	32.230000
2352.308469	35.470000
2353.856112	35.840000
2355.406764	38.900000
2356.953824	31.330000
2358.502242	44.850000
2360.050369	36.840000
2361.594907	40.560000
2363.140803	40.030000
2364.684761	39.480000
2366.230076	33.130000
2367.771806	40.380000
2369.314893	32.030000
2370.856044	39.150000
2372.396906	33.510000
2373.937479	37.850000
2375.477763	39.710000
2377.017758	36.200000
2378.554175	37.250000
2380.093593	39.130000
2381.629433	39.910000
2383.166631	39.390000
2384.700253	37.950000
2386.236875	38.780000
2387.771567	37.980000
2389.304329	41.210000
2390.836804	33.450000
2392.367351	40.370000
2393.900896	37.690000
2395.429230	39.250000
2396.958921	40.270000
2398.488325	40.540000
2400.017445	38.380000
2401.546280	41.830000
2403.069909	39.140000
2404.598174	37.260000
2406.121237	32.580000
2407.648933	42.560000
2409.169790	36.710000
2410.695280	44.190000
2412.217209	40.070000
2413.740494	41.360000
2415.261857	36.880000
2416.781301	39.720000
2418.302100	36.930000
2419.820981	43.590000
2421.339579	38.900000
2422.856260	46.740000
2424.374295	39.200000
2425.892049	39.510000
2427.406252	36.850000
2428.920174	37.360000
2430.433816	40.330000
2431.948813	48.510000
2433.460261	43.260000
2434.973064	51.220000
2436.483953	45.150000
2437.994564	52.900000
2439.503263	48.960000
2441.014948	48.000000
2442.523090	49.400000
2444.030954	51.690000
2445.538540	42.880000
2447.042585	46.330000
2448.549615	45.620000
2450.054737	48.390000
2451.559582	50.480000
2453.062520	46.190000
2454.565182	45.770000
2456.067567	49.410000
2457.568047	46.580000
2459.069880	50.490000
2460.569808	44.700000
2462.069461	51.720000
2463.568839	41.410000
2465.066314	40.660000
2466.561887	41.190000
2468.060440	42.690000
2469.555465	44.010000
2471.051842	47.060000
2472.544693	43.750000
2474.038897	51.330000
2475.532827	43.970000
2477.023233	42.850000
2478.516617	41.850000
2480.008103	45.490000
2481.497692	43.080000
2482.987009	44.450000
2484.474430	43.420000
2485.964827	42.010000
2487.451706	42.470000
2488.939936	38.350000
2490.424649	37.740000
2491.909093	36.500000
2493.394887	43.740000
2494.878790	44.180000
2496.364043	36.270000
2497.844163	42.000000
2499.327256	39.960000
2500.808458	42.140000
2502.289391	43.260000
2503.768435	39.770000
2505.247210	36.670000
2506.725717	37.620000
2508.203956	39.380000
2509.681926	44.940000
2511.156391	39.910000
2512.633826	39.540000
2514.107757	36.620000
2515.583038	38.440000
2517.058052	41.540000
2518.529565	40.990000
2520.002429	39.530000
2521.473410	41.110000
2522.945741	30.480000
2524.412958	39.730000
2525.883142	38.020000
2527.351445	43.080000
2528.819483	40.980000
2530.287256	40.320000
2531.754764	36.790000
2533.222007	40.650000
2534.685758	36.510000
2536.150859	38.770000
2537.614083	38.040000
2539.078656	43.180000
2540.539741	40.040000
2542.002175	47.050000
2543.464346	39.080000
2544.923031	41.340000
2546.386287	36.550000
2547.844448	43.670000
2549.303957	44.030000
2550.758372	43.150000
2552.217358	40.740000
2553.674472	42.070000
2555.129715	38.940000
2556.584696	43.060000
2558.037809	39.780000
2559.492270	39.200000
2560.944861	41.620000
2562.397193	35.920000
2563.847658	36.540000
2565.301078	43.450000
2566.749416	38.380000
2568.200709	40.560000
2569.650137	38.560000
2571.096092	45.390000
2572.545002	38.380000
2573.990442	42.890000
2575.437229	44.630000
2576.882154	46.060000
2578.326820	42.370000
2579.772834	42.530000
2581.215382	38.120000
2582.659277	40.800000
2584.099707	39.600000
2585.541484	39.420000
2586.981402	45.340000
2588.422667	40.280000
2589.860470	42.860000
2591.301223	43.240000
2592.736914	37.250000
2594.175554	43.400000
2595.612336	39.630000
2597.047263	43.110000
2598.485137	42.870000
2599.917954	42.760000
2601.352118	39.060000
2602.784428	39.830000
2604.218084	42.150000
2605.649887	44.770000
2607.081436	40.070000
2608.512733	37.560000
2609.942177	51.690000
2611.371369	49.020000
2612.798711	41.250000
2614.227398	47.510000
2615.655834	49.440000
2617.080822	44.260000
2618.507157	46.010000
2619.931643	46.740000
2621.357475	51.630000
2622.779863	49.620000
2624.203597	46.400000
2625.625484	50.000000
2627.047122	47.580000
2628.466914	53.440000
2629.888052	56.680000
2631.308940	48.430000
2632.726390	52.220000
2634.146779	50.520000
2635.563731	52.340000
2636.980434	51.430000
2638.396889	51.950000
2639.813096	56.150000
2641.229055	51.190000
2642.643173	61.230000
2644.057043	52.980000
2645.469075	60.660000
2646.882450	57.530000
2648.292396	59.710000
2649.705278	57.930000
2651.114731	58.200000
2652.523938	67.020000
2653.931309	66.530000
2655.341614	72.470000
2656.750084	70.150000
2658.156718	72.090000
2659.563107	76.120000
2660.967662	73.310000
2662.373561	76.450000
2663.777627	81.410000
2665.181448	87.600000
2666.585025	88.060000
2667.986771	93.950000
2669.389860	89.120000
2670.789531	97.410000
2672.190546	89.870000
2673.588145	95.620000
2674.988674	92.660000
2676.385787	95.210000
2677.784244	97.170000
2679.180874	101.350000
2680.577261	106.240000
2681.973406	97.990000
2683.367725	101.000000
2684.763387	100.040000
2686.155640	100.560000
2687.549235	95.470000
2688.941006	96.090000
2690.334120	96.730000
2691.725410	100.530000
2693.114877	109.080000
2694.504104	97.260000
2695.893092	107.750000
2697.283421	102.140000
2698.668767	108.360000
2700.057036	107.570000
2701.443485	113.790000
2702.829695	120.630000
2704.215666	122.700000
2705.598239	129.780000
2706.982154	129.340000
2708.365831	137.000000
2709.749269	148.430000
2711.129313	156.240000
2712.510697	161.080000
2713.890267	163.060000
2715.271177	176.180000
2716.650273	169.580000
2718.027555	168.270000
2719.406178	162.600000
2720.782988	158.350000
2722.159561	152.950000
2723.535899	146.350000
2724.910426	142.480000
2726.286293	137.380000
2727.658773	126.730000
2729.034169	124.880000
2730.404605	112.550000
2731.776382	112.690000
2733.147924	105.180000
2734.517658	106.670000
2735.888733	98.640000
2737.257999	97.750000
2738.627032	88.150000
2739.994259	87.810000
2741.361252	85.670000
2742.728013	84.940000
2744.094542	74.780000
2745.459265	77.860000
2746.823756	70.170000
2748.188016	69.930000
2749.552043	62.750000
2750.915839	64.790000
2752.276261	56.590000
2753.639593	52.070000
2754.997983	50.860000
2756.359283	54.050000
2757.717213	51.450000
2759.078051	42.360000
2760.437090	49.920000
2761.792760	48.780000
2763.151338	42.810000
2764.506549	49.740000
2765.861531	43.720000
2767.214717	46.890000
2768.570809	47.170000
2769.923536	45.410000
2771.276036	45.190000
2772.628307	44.310000
2773.981916	38.760000
2775.332165	38.450000
2776.680619	39.820000
2778.031979	39.530000
2779.379979	38.540000
2780.729317	41.700000
2782.076863	33.990000
2783.424183	43.100000
2784.771276	44.480000
2786.116578	40.760000
2787.461653	44.270000
2788.806503	43.240000
2790.151127	32.280000
2791.492399	35.590000
2792.835009	36.020000
2794.177393	39.200000
2795.519552	39.550000
2796.858362	38.420000
2798.200072	37.640000
2799.538434	39.030000
2800.878132	36.390000
2802.216046	40.280000
2803.552175	38.800000
2804.888080	37.840000
2806.225323	41.140000
2807.560782	36.050000
2808.896018	34.520000
2810.229471	36.100000
2811.564261	37.590000
2812.895711	41.860000
2814.230056	36.390000
2815.559503	34.970000
2816.890287	31.700000
2818.220849	33.240000
2819.549632	42.710000
2820.879751	34.340000
2822.208092	37.890000
2823.536212	37.680000
2824.862554	31.590000
2826.190233	36.780000
2827.514578	37.870000
2828.840260	34.080000
2830.164166	31.080000
2831.487853	35.340000
2832.812875	29.820000
2834.134567	34.210000
2835.456041	37.110000
2836.777296	31.750000
2838.098332	32.630000
2839.417595	34.020000
2840.738194	34.210000
2842.057022	35.840000
2843.375631	31.360000
2844.692469	39.460000
2846.009090	35.470000
2847.325494	36.250000
2848.640128	29.850000
2849.956098	37.280000
2851.268747	31.320000
2852.582731	33.630000
2853.896499	31.900000
2855.210050	35.130000
2856.521835	26.980000
2857.831853	35.690000
2859.143206	28.350000
2860.451244	28.470000
2861.760616	33.290000
2863.069774	26.830000
2864.378716	29.400000
2865.685894	36.190000
2866.991310	28.810000
2868.298060	36.470000
2869.603047	31.590000
2870.907821	37.670000
2872.210833	30.150000
2873.516726	34.030000
2874.817765	32.460000
2876.120138	33.170000
2877.420751	35.540000
2878.722698	35.270000
2880.024431	27.160000
2881.322861	35.400000
2882.622624	30.630000
2883.920630	32.210000
2885.218424	32.820000
2886.514462	31.990000
2887.811833	30.710000
2889.107448	33.810000
2890.402852	29.290000
2891.698045	31.380000
2892.989941	30.520000
2894.284713	32.160000
2895.576188	30.270000
2896.868996	30.890000
2898.161594	26.430000
2899.450898	34.960000
2900.741534	35.610000
2902.030419	34.940000
2903.320636	32.720000
2904.607562	27.560000
2905.895820	32.680000
2907.182329	32.350000
2908.468629	30.500000
2909.754722	34.680000
2911.039066	33.910000
2912.326281	27.950000
2913.608670	27.950000
2914.892391	35.440000
2916.174366	31.970000
2917.456133	26.570000
2918.736156	32.330000
2920.019048	29.570000
2921.300195	26.780000
2922.578060	30.890000
2923.858794	29.640000
2925.136247	31.570000
2926.413494	25.180000
2927.688999	25.830000
2928.967372	33.650000
2930.240931	32.490000
2931.517357	32.450000
2932.792042	30.110000
2934.064986	28.510000
2935.339262	34.050000
2936.611798	29.010000
2937.884129	28.100000
2939.153188	29.690000
2940.425112	31.030000
2941.695298	35.200000
2942.965280	29.190000
2944.235059	28.910000
2945.503102	25.660000
2946.769408	28.140000
2948.035513	33.280000
2949.302947	25.760000
2950.568647	33.280000
2951.834144	26.940000
2953.099439	30.090000
2954.361469	26.060000
2955.624829	31.610000
2956.887988	25.650000
2958.149415	32.090000
2959.412171	29.210000
2960.673195	31.460000
2961.932489	33.750000
2963.191583	36.320000
2964.450476	29.250000
2965.709169	29.210000
2966.967662	27.930000
2968.224426	33.060000
2969.480990	33.010000
2970.735827	27.600000
2971.991992	28.030000
2973.244903	27.420000
2974.499143	28.100000
2975.753184	26.090000
2977.005499	30.050000
2978.257615	30.980000
2979.508007	23.650000
2980.761254	30.730000
2982.009724	29.290000
2983.261049	36.770000
2984.509124	27.150000
2985.757003	33.530000
2987.004684	31.470000
2988.252168	34.730000
2989.497931	31.750000
2990.743498	29.250000
2991.990392	32.660000
2993.234042	34.880000
2994.479020	31.720000
2995.720754	33.910000
2996.965340	31.310000
2998.208207	30.150000
2999.447833	28.280000
3000.690309	31.150000
3001.929545	33.650000
3003.170109	26.160000
3004.408957	26.080000
3005.647609	25.960000
3006.884546	27.670000
3008.122811	25.860000
3009.359360	30.580000
3010.595716	24.080000
3011.831878	28.730000
3013.066326	33.580000
3014.300582	25.330000
3015.534644	29.500000
3016.766994	28.550000
3017.997632	28.600000
3019.231116	30.260000
3020.462888	27.370000
3021.692950	21.860000
3022.922819	30.710000
3024.150980	21.400000
3025.380466	26.110000
3026.608243	23.820000
3027.835829	29.300000
3029.064742	30.210000
3030.288912	30.480000
3031.515925	27.520000
3032.739714	35.430000
3033.964830	29.940000
3035.188239	27.620000
3036.411458	29.130000
3037.632972	28.290000
3038.857327	30.820000
3040.076947	31.060000
3041.297893	31.800000
3042.518650	31.530000
3043.737703	30.720000
3044.958081	31.330000
3046.175243	25.790000
3047.393731	27.640000
3048.610516	25.430000
3049.827114	30.750000
3051.043523	23.140000
3052.256720	32.890000
3053.472754	30.380000
3054.685576	30.760000
3055.901235	28.290000
3057.112171	32.520000
3058.324432	24.430000
3059.536507	32.940000
3060.748394	31.150000
3061.958585	22.800000
3063.168589	29.390000
3064.378407	28.210000
3065.586529	28.390000
3066.794466	23.670000
3068.000707	27.120000
3069.208273	27.790000
3070.414144	29.990000
3071.619831	32.190000
3072.825332	23.810000
3074.029140	35.240000
3075.234272	28.330000
3076.437711	29.420000
3077.639459	24.190000
3078.841022	34.680000
3080.042402	29.580000
3081.243598	31.100000
3082.443104	27.950000
3083.642427	28.040000
3084.843073	22.840000
3086.042029	32.890000
3087.237791	25.480000
3088.436382	24.470000
3089.631779	22.200000
3090.828499	28.580000
3092.022027	23.840000
3093.218383	26.760000
3094.413053	27.140000
3095.604532	32.780000
3096.800342	24.710000
3097.991458	26.970000
3099.183898	27.890000
3100.373150	26.410000
3101.565227	25.850000
3102.755621	26.610000
3103.942829	28.640000
3105.131360	30.250000
3106.321212	31.070000
3107.507881	25.950000
3108.694369	28.500000
3109.880679	27.720000
3111.068310	25.790000
3112.252759	32.980000
3113.435529	24.530000
3114.621121	31.450000
3115.805034	28.920000
3116.987268	27.460000
3118.169323	26.180000
3119.351200	29.360000
3120.532899	28.010000
3121.712921	25.220000
3122.891266	26.140000
3124.072431	31.470000
3125.250421	28.200000
3126.428235	28.040000
3127.605871	30.530000
3128.781832	25.620000
3129.957616	23.160000
3131.134722	31.960000
3132.310153	29.870000
3133.483911	28.910000
3134.655996	32.500000
3135.829403	28.250000
3137.002633	26.790000
3138.174192	27.860000
3139.347071	21.700000
3140.516783	26.900000
3141.687816	22.970000
3142.857179	22.890000
3144.024871	26.420000
3145.195379	32.500000
3146.361229	28.360000
3147.531387	30.560000
3148.696889	26.030000
3149.862216	33.640000
3151.027370	26.730000
3152.192351	28.060000
3153.358651	26.170000
3154.520299	28.520000
3155.683266	27.250000
3156.846061	27.710000
3158.008683	27.320000
3159.169640	23.910000
3160.330424	23.030000
3161.491036	28.980000
3162.649984	26.870000
3163.808761	31.980000
3164.967366	24.580000
3166.125798	25.190000
3167.284060	27.280000
3168.440659	25.910000
3169.595597	26.750000
3170.751854	28.550000
3171.906450	25.200000
3173.060876	24.540000
3174.213642	25.320000
3175.366237	29.800000
3176.518663	27.840000
3177.670919	28.590000
3178.823004	27.000000
3179.971944	29.530000
3181.123690	28.600000
3182.273778	27.360000
3183.422210	25.790000
3184.570472	32.660000
3185.718566	26.550000
3186.866491	26.180000
3188.012760	22.030000
3189.158861	30.110000
3190.303308	25.030000
3191.447587	29.280000
3192.591698	22.710000
3193.737126	22.710000
3194.879416	24.530000
3196.021539	24.170000
3197.163494	23.760000
3198.305282	27.370000
3199.446903	26.500000
3200.585389	30.420000
3201.725192	27.070000
3202.866313	26.990000
3204.004299	22.810000
3205.140636	20.930000
3206.276807	26.100000
3207.414295	32.820000
3208.550135	21.250000
3209.687292	30.060000
3210.819836	30.820000
3211.956662	24.910000
3213.088876	31.260000
3214.222407	25.360000
3215.355774	27.060000
3216.486013	27.210000
3217.619050	28.150000
3218.748961	26.080000
3219.880188	24.980000
3221.008291	27.300000
3222.139190	21.020000
3223.268445	30.220000
3224.396057	23.740000
3225.520546	30.320000
3226.649311	24.030000
3227.774954	29.830000
3228.900435	25.000000
3230.024274	26.720000
3231.150907	25.000000
3232.272943	30.170000
3233.396295	29.010000
3234.519485	29.440000
3235.642512	29.830000
3236.763901	35.920000
3237.885127	31.770000
3239.004716	33.140000
3240.124143	35.540000
3241.241932	41.550000
3242.362513	39.500000
3243.479981	42.780000
3244.597288	37.180000
3245.714435	42.110000
3246.829946	39.090000
3247.946771	31.260000
3249.060487	29.030000
3250.176992	29.740000
3251.291863	27.640000
3252.403625	24.010000
3253.515227	22.150000
3254.628145	27.030000
3255.740903	25.960000
3256.850555	30.910000
3257.961522	20.440000
3259.072330	29.920000
3260.181506	22.190000
3261.289052	25.030000
3262.397911	25.780000
3263.506613	28.090000
3264.612212	20.930000
3265.719125	26.840000
3266.824409	25.730000
3267.931007	26.520000
3269.034505	26.240000
3270.139318	23.770000
3271.243973	24.120000
3272.345529	25.780000
3273.446929	21.610000
3274.549643	28.070000
3275.652201	19.790000
3276.751662	27.960000
3277.853907	23.140000
3278.953056	25.890000
3280.050581	27.100000
3281.147950	26.740000
3282.248101	20.940000
3283.345160	28.720000
3284.442063	25.370000
3285.538811	20.690000
3286.631001	23.070000
3287.727439	23.240000
3288.822255	23.230000
3289.916917	27.400000
3291.009957	21.530000
3292.102842	28.170000
3293.194108	23.790000
3294.286685	27.180000
3295.377643	27.430000
3296.466981	30.220000
3297.556166	26.550000
3298.646664	23.330000
3299.734077	20.780000
3300.821337	24.930000
3301.909910	23.300000
3302.998331	21.660000
3304.082204	20.990000
3305.170319	24.260000
3306.255352	20.160000
3307.338770	26.280000
3308.423500	17.480000
3309.506614	26.590000
3310.591041	24.040000
3311.672389	22.930000
3312.755049	26.130000
3313.836095	21.230000
3314.916990	21.840000
3315.996271	21.120000
3317.075402	22.100000
3318.155845	26.690000
3319.233213	24.810000
3320.311893	28.970000
3321.388961	31.020000
3322.465880	22.740000
3323.541187	23.550000
3324.616345	25.240000
3325.692814	24.960000
3326.766213	27.400000
3327.839463	21.290000
3328.914023	24.620000
3329.986975	23.890000
3331.058318	26.630000
3332.130972	19.290000
3333.200560	22.930000
3334.271458	18.850000
3335.340749	21.450000
3336.411351	20.670000
3337.480346	23.110000
3338.547735	21.380000
3339.613519	26.050000
3340.683529	19.620000
3341.750476	20.670000
3342.814361	19.020000
3343.881014	23.530000
3344.946062	20.620000
3346.009507	26.330000
3347.072806	25.710000
3348.135958	22.360000
3349.198964	28.050000
3350.261824	22.050000
3351.323082	19.920000
3352.381283	23.100000
3353.443704	22.260000
3354.503070	26.100000
3355.562290	18.860000
3356.622820	17.360000
3357.678840	21.990000
3358.737624	27.140000
3359.791901	20.570000
3360.848942	26.100000
3361.904384	22.720000
3362.961136	24.080000
3364.016289	22.400000
3365.069845	21.330000
3366.121805	19.740000
3367.176526	22.590000
3368.228198	19.900000
3369.279727	19.490000
3370.332564	20.530000
3371.382354	22.060000
3372.433453	22.750000
3373.481506	24.240000
3374.532318	25.050000
3375.580086	20.670000
3376.627711	20.760000
3377.675193	22.040000
3378.721083	25.990000
3379.768281	18.500000
3380.812437	23.400000
3381.859351	24.420000
3382.904673	24.960000
3383.946954	25.450000
3384.989095	21.970000
3386.032543	20.570000
3387.075850	20.110000
3388.117568	25.250000
3389.159144	22.870000
3390.200579	25.010000
3391.240426	24.880000
3392.278684	21.130000
3393.318250	21.670000
3394.357676	28.880000
3395.395514	20.090000
3396.431765	21.350000
3397.467877	18.880000
3398.505296	20.680000
3399.539682	23.330000
3400.575375	21.550000
3401.610929	17.030000
3402.643452	20.940000
3403.678728	16.910000
3404.710973	17.790000
3405.743080	21.830000
3406.773603	20.250000
3407.805433	22.580000
3408.837125	20.630000
3409.865789	19.690000
3410.894316	21.820000
3411.924149	13.370000
3412.953845	26.180000
3413.980515	21.720000
3415.008492	22.960000
3416.033444	20.810000
3417.061146	21.860000
3418.085825	18.010000
3419.111810	22.980000
3420.136215	21.350000
3421.160484	22.390000
3422.183174	22.290000
3423.205728	18.050000
3424.229588	16.120000
3425.250428	22.830000
3426.271132	20.190000
3427.293143	23.700000
3428.312135	22.080000
3429.330991	21.660000
3430.351154	17.380000
3431.368300	23.160000
