-117.888313	3.800000
-115.218713	-8.430000
-112.552048	0.160000
-109.886135	-0.310000
-107.223154	-0.620000
-104.558744	0.630000
-101.897264	-4.720000
-99.234355	-0.610000
-96.576552	0.520000
-93.917320	-4.720000
-91.258836	-0.240000
-88.603276	-3.080000
-85.946288	-6.570000
-83.294398	-7.880000
-80.641078	2.040000
-77.990677	-4.440000
-75.338847	-3.870000
-72.692108	-2.740000
-70.043940	3.590000
-67.396514	-0.130000
-64.752002	-4.680000
-62.106062	-1.930000
-59.465203	0.070000
-56.822915	-5.650000
-54.183536	-2.730000
-51.542727	-6.640000
-48.902659	0.150000
-46.267663	-12.240000
-43.631239	3.670000
-40.997717	-2.240000
-38.362767	-5.330000
-35.732882	-2.130000
-33.099405	5.610000
-30.470990	0.650000
-27.843309	3.430000
-25.214199	1.630000
-22.590146	2.840000
-19.962504	0.720000
-17.339915	3.190000
-14.718058	13.550000
-12.096931	25.070000
-9.476534	53.050000
-6.859026	170.740000
-4.240089	513.750000
-1.624037	1169.760000
0.991286	1249.240000
3.605882	649.060000
6.217595	76.180000
8.830737	11.000000
11.438845	6.120000
14.050535	-4.810000
16.657194	-1.720000
19.265281	-0.650000
21.872644	-1.810000
24.474982	-0.490000
27.080898	-2.070000
29.681792	0.540000
32.284114	0.130000
34.881419	-2.650000
37.482299	0.360000
40.078164	2.240000
42.675458	2.380000
45.272032	-3.890000
47.863597	0.710000
50.456590	0.890000
53.046722	-1.290000
55.638282	2.930000
58.226982	-0.310000
60.817109	-0.790000
63.402237	4.050000
65.988793	-1.660000
68.574635	-5.930000
71.157623	-1.370000
73.742037	-8.230000
76.319323	-1.390000
78.900175	-1.970000
81.478178	5.170000
84.055471	-4.850000
86.634190	-1.070000
89.207927	-7.110000
91.783092	0.380000
94.355413	-3.110000
96.927026	3.010000
99.495799	-1.460000
102.065999	0.770000
104.633361	-1.000000
107.202148	4.210000
109.768099	1.390000
112.331215	2.640000
114.897887	-2.350000
117.455338	6.420000
120.018474	0.850000
122.576650	6.910000
125.138381	8.470000
127.695155	14.800000
130.253356	16.620000
132.806603	24.400000
135.359153	33.570000
137.915253	48.060000
140.466405	60.930000
143.016860	73.260000
145.566617	73.730000
148.113555	88.970000
150.659798	86.610000
153.207466	87.820000
155.754438	82.730000
158.296475	87.900000
160.837818	79.340000
163.378468	91.030000
165.920544	83.110000
168.459808	79.040000
170.996264	83.410000
173.532028	83.450000
176.069218	76.620000
178.605717	86.040000
181.139410	75.580000
183.670299	80.110000
186.200501	78.680000
188.732127	78.090000
191.260952	78.080000
193.786978	86.660000
196.312318	83.760000
198.839083	81.050000
201.363052	82.440000
203.886336	81.420000
206.408935	77.580000
208.928741	79.810000
211.447864	80.730000
213.966304	78.650000
216.486168	82.710000
218.999031	82.660000
221.515425	82.860000
224.031137	81.000000
226.541959	82.410000
229.054206	83.300000
231.563671	79.570000
234.072457	82.730000
236.580564	84.760000
239.090096	83.050000
241.594747	86.070000
244.098722	89.150000
246.604121	83.280000
249.104645	91.000000
251.608693	82.080000
254.105769	88.990000
256.606369	86.830000
259.104197	84.900000
261.601352	91.740000
264.097834	90.610000
266.589453	93.100000
269.084592	86.250000
271.576964	87.230000
274.068666	92.750000
276.557605	90.080000
279.047968	97.610000
281.535568	88.680000
284.020409	94.960000
286.508765	95.140000
288.990181	87.580000
291.475111	92.650000
293.955196	97.860000
296.438793	92.090000
298.917547	97.990000
301.397725	92.780000
303.875150	98.270000
306.351912	97.420000
308.828011	98.550000
311.301361	98.160000
313.774049	113.420000
316.246076	118.040000
318.717442	130.140000
321.186063	141.330000
323.654026	142.730000
326.123410	130.570000
328.587972	113.190000
331.056038	108.000000
333.519284	108.640000
335.981872	103.420000
338.443804	103.900000
340.905079	102.880000
343.363620	108.880000
345.823583	102.140000
348.280813	102.080000
350.737389	101.320000
353.193311	105.640000
355.646503	100.150000
358.101118	106.580000
360.550931	106.760000
363.004240	111.290000
365.452751	99.280000
367.900610	103.940000
370.349892	104.840000
372.794380	106.000000
375.240290	103.600000
377.685550	99.790000
380.128092	109.080000
382.569986	104.900000
385.011233	101.480000
387.449764	107.210000
389.889717	99.780000
392.326956	101.760000
394.761483	100.350000
397.199498	107.180000
399.632736	103.190000
402.067395	99.960000
404.497282	97.350000
406.930654	104.020000
409.359256	104.800000
411.787216	104.080000
414.216598	104.150000
416.641214	110.000000
419.067252	103.770000
421.492649	105.200000
423.917406	102.400000
426.337405	111.100000
428.758825	109.690000
431.177548	106.730000
433.597692	106.610000
436.015141	108.420000
438.434010	110.800000
440.850186	106.870000
443.261614	103.990000
445.676520	110.780000
448.088735	104.190000
450.500316	112.920000
452.911263	97.520000
455.319524	104.770000
457.727152	100.960000
460.134148	103.950000
462.540513	98.310000
464.944195	100.190000
467.347247	100.660000
469.749669	105.300000
472.151461	98.980000
474.550576	102.490000
476.951110	96.330000
479.351015	99.030000
481.746197	99.060000
484.144846	101.350000
486.538775	96.140000
488.932078	100.090000
491.324755	95.820000
493.716807	99.400000
496.110277	95.720000
498.499035	87.300000
500.885127	81.630000
503.272639	77.510000
505.659528	78.090000
508.043753	76.440000
510.429396	71.310000
512.812378	71.210000
515.192699	65.770000
517.574439	60.730000
519.953520	59.200000
522.334020	63.870000
524.711862	52.020000
527.087049	65.650000
529.461618	53.880000
531.837605	55.110000
534.210940	55.780000
536.585692	54.840000
538.955759	59.180000
541.325210	55.770000
543.696079	51.200000
546.062268	53.880000
548.429875	51.000000
550.794836	53.440000
553.159184	50.900000
555.522919	47.730000
557.888072	49.300000
560.248553	50.890000
562.610452	53.070000
564.969710	54.920000
567.326331	44.340000
569.686396	49.600000
572.039770	48.340000
574.396589	46.940000
576.750773	48.820000
579.104349	45.790000
581.457316	41.880000
583.807651	49.030000
586.159404	51.100000
588.504480	46.520000
590.855020	45.580000
593.198886	49.790000
595.548214	51.190000
597.892893	48.620000
600.234948	44.800000
602.578420	46.540000
604.919269	35.590000
607.259516	48.650000
609.597142	48.550000
611.938203	40.650000
614.274626	40.250000
616.612466	44.900000
618.947689	40.440000
621.280296	41.190000
623.614319	41.210000
625.945728	47.240000
628.276539	42.850000
630.606753	42.950000
632.936368	42.010000
635.261360	47.410000
637.591794	35.680000
639.917607	40.940000
642.240812	38.100000
644.565434	41.770000
646.887450	32.600000
649.208872	42.000000
651.527692	36.780000
653.847927	39.710000
656.167569	37.680000
658.484610	36.210000
660.801059	33.160000
663.114910	39.640000
665.430177	36.230000
667.742847	39.290000
670.056932	33.720000
672.366417	40.480000
674.677318	36.520000
676.985626	41.880000
679.293346	33.550000
681.602480	36.420000
683.907022	30.940000
686.210978	37.920000
688.514348	34.580000
690.819132	36.790000
693.119330	32.340000
695.420942	32.010000
697.721970	31.550000
700.018415	40.900000
702.316276	30.100000
704.613553	36.170000
706.910247	32.770000
709.202365	29.550000
711.497894	30.500000
713.788849	34.360000
716.081219	28.710000
718.371014	37.010000
720.660228	36.550000
722.948863	31.350000
725.234925	32.700000
727.522402	39.800000
729.807307	31.200000
732.091635	35.320000
734.373394	31.410000
736.656567	37.030000
738.939163	27.610000
741.217203	37.110000
743.496658	33.470000
745.775536	39.270000
748.053840	35.070000
750.327594	37.100000
752.602761	33.140000
754.877355	37.420000
757.149390	36.300000
759.422838	41.310000
761.693728	35.640000
763.962062	33.210000
766.231809	34.370000
768.499002	36.730000
770.765624	36.820000
773.031676	34.620000
775.295177	35.260000
777.560091	39.470000
779.824435	36.900000
782.084250	45.160000
784.345477	37.840000
786.606137	44.790000
788.864251	34.840000
791.119820	42.680000
793.378780	32.830000
795.631241	35.900000
797.889068	36.930000
800.142377	41.050000
802.393146	34.360000
804.645327	35.710000
806.894969	34.390000
809.146024	42.290000
811.392567	36.390000
813.640522	38.490000
815.885943	26.190000
818.132775	36.530000
820.379046	37.260000
822.620812	37.030000
824.865962	30.320000
827.104639	32.750000
829.346698	36.290000
831.584259	33.780000
833.823232	29.600000
836.059678	37.070000
838.297535	37.770000
840.532867	30.660000
842.765676	29.890000
844.999896	33.560000
847.231593	31.360000
849.462736	28.780000
851.693324	26.190000
853.923358	31.500000
856.152838	27.550000
858.377836	33.470000
860.606209	32.170000
862.830102	31.480000
865.055407	26.450000
867.276236	34.860000
869.500437	28.820000
871.720165	36.780000
873.941303	34.340000
876.161891	29.630000
878.379970	34.770000
880.599458	37.880000
882.814480	30.700000
885.028955	33.260000
887.242881	25.320000
889.456261	32.220000
891.669093	28.910000
893.881379	27.990000
896.091162	26.470000
898.300400	34.230000
900.509093	31.140000
902.715287	30.540000
904.922890	32.880000
907.127995	34.480000
909.332557	28.760000
911.534624	33.970000
913.738100	24.510000
915.939082	31.910000
918.139522	27.190000
920.341371	32.550000
922.536829	35.730000
924.735646	30.870000
926.930024	32.360000
929.127760	28.840000
931.321060	26.840000
933.515769	31.890000
935.707992	21.790000
937.899676	34.820000
940.090823	28.580000
942.279487	37.590000
944.467615	27.680000
946.653262	33.500000
948.842261	30.120000
951.026837	41.970000
953.210878	35.000000
955.398269	35.160000
957.577356	37.190000
959.759794	36.450000
961.941698	36.440000
964.121127	45.530000
966.298084	37.510000
968.476449	41.000000
970.656221	37.410000
972.829644	41.720000
975.006413	40.000000
977.178775	43.790000
979.352545	41.400000
981.521911	37.430000
983.694621	41.140000
985.864866	49.200000
988.034582	44.320000
990.203769	40.440000
992.368559	41.770000
994.536690	47.940000
996.700427	42.960000
998.865570	49.670000
1001.028254	49.450000
1003.190413	49.320000
1005.350115	47.590000
1007.509292	50.610000
1009.669876	47.990000
1011.828006	54.020000
1013.985611	55.830000
1016.142693	52.480000
1018.299251	50.930000
1020.451430	50.030000
1022.605016	50.050000
1024.758080	57.400000
1026.908695	51.990000
1029.060717	54.450000
1031.208365	56.120000
1033.359345	59.380000
1035.505954	50.940000
1037.652044	55.960000
1039.797616	52.760000
1041.944593	61.240000
1044.085281	55.210000
1046.229299	60.760000
1048.370876	55.980000
1050.511937	58.760000
1052.654402	53.970000
1054.790588	60.220000
1056.930099	53.440000
1059.065256	60.110000
1061.203737	56.790000
1063.337864	66.870000
1065.471478	57.500000
1067.606497	60.060000
1069.737166	57.080000
1071.869240	54.010000
1073.998885	63.510000
1076.128018	61.100000
1078.256639	51.670000
1080.384749	59.830000
1082.510433	56.780000
1084.635607	54.740000
1086.762185	53.730000
1088.884425	56.980000
1091.008070	52.120000
1093.127380	49.880000
1095.251920	52.670000
1097.370214	50.370000
1099.489913	51.440000
1101.607193	50.420000
1103.723967	42.410000
1105.840234	48.320000
1107.954085	42.620000
1110.069341	52.290000
1112.180273	48.240000
1114.294518	47.730000
1116.404442	41.100000
1118.515770	43.130000
1120.626593	38.520000
1122.733100	41.260000
1124.842917	39.730000
1126.948419	42.640000
1129.055324	40.110000
1131.156014	44.230000
1133.261916	39.130000
1135.363509	43.340000
1137.466505	40.510000
1139.569000	41.870000
1141.665288	34.980000
1143.766784	37.910000
1145.863976	36.830000
1147.960671	40.770000
1150.056867	37.590000
1152.152566	39.460000
1154.247766	35.950000
1156.340570	40.940000
1158.434777	35.030000
1160.522792	44.650000
1162.616005	31.580000
1164.703030	43.870000
1166.793354	34.440000
1168.879391	38.760000
1170.968725	31.670000
1173.051878	41.480000
1175.136433	35.220000
1177.222390	31.940000
1179.304065	37.520000
1181.387142	35.670000
1183.467833	31.090000
1185.548032	34.660000
1187.627740	34.970000
1189.706957	35.180000
1191.783792	32.470000
1193.858246	33.530000
1195.935991	32.030000
1198.009467	34.550000
1200.084343	31.610000
1202.154952	34.190000
1204.226962	34.600000
1206.296597	36.100000
1208.367632	27.970000
1210.438179	37.520000
1212.504465	28.840000
1214.572152	35.540000
1216.637467	33.190000
1218.704182	36.780000
1220.766641	27.630000
1222.832385	31.330000
1224.893875	27.110000
1226.956766	28.490000
1229.017289	33.460000
1231.077328	28.340000
1233.136885	24.250000
1235.194076	34.490000
1237.250786	31.020000
1239.305132	28.060000
1241.362760	28.800000
1243.418025	27.840000
1245.469049	26.910000
1247.521473	31.940000
1249.573417	20.340000
1251.623003	34.070000
1253.672110	28.130000
1255.720739	26.380000
1257.768889	25.910000
1259.816560	30.690000
1261.860001	26.240000
1263.906718	28.460000
1265.951081	25.800000
1267.994968	28.700000
1270.036503	24.960000
1272.075689	28.300000
1274.118148	30.140000
1276.156384	24.750000
1278.196019	26.250000
1280.235179	26.530000
1282.270120	22.830000
1284.306460	25.510000
1286.340456	20.420000
1288.375849	29.660000
1290.407030	25.840000
1292.439608	28.520000
1294.471715	23.250000
1296.501481	25.020000
1298.532645	26.140000
1300.559601	29.440000
1302.587955	30.670000
1304.612104	24.860000
1306.639519	25.370000
1308.662731	23.050000
1310.687341	23.820000
1312.709617	26.900000
1314.733290	23.190000
1316.754630	23.220000
1318.775502	24.110000
1320.795907	28.310000
1322.812119	27.300000
1324.829728	29.370000
1326.845009	27.450000
1328.863549	30.100000
1330.877900	20.620000
1332.889925	24.290000
1334.905207	27.820000
1336.916304	26.760000
1338.928798	25.540000
1340.937109	31.760000
1342.948675	27.810000
1344.954203	25.350000
1346.962986	20.160000
1348.967591	30.580000
1350.975450	23.820000
1352.982847	27.240000
1354.984213	22.310000
1356.986975	26.890000
1358.989278	22.470000
1360.991121	29.780000
1362.992504	32.720000
1364.991574	27.280000
1366.990185	23.290000
1368.988338	21.160000
1370.986032	25.570000
1372.979564	24.240000
1374.974491	26.580000
1376.968962	31.880000
1378.962976	25.790000
1380.954683	28.480000
1382.945935	24.440000
1384.934881	27.740000
1386.925222	23.720000
1388.915108	29.030000
1390.902690	25.250000
1392.889819	26.770000
1394.874646	25.760000
1396.860868	30.060000
1398.844790	20.400000
1400.828259	24.790000
1402.811275	25.820000
1404.791994	28.490000
1406.774107	23.560000
1408.753924	25.130000
1410.733289	27.500000
1412.708516	31.800000
1414.686981	27.000000
1416.663153	27.070000
1418.638876	19.910000
1420.614149	29.350000
1422.587131	27.660000
1424.559665	24.240000
1426.531751	26.590000
1428.503390	29.230000
1430.470900	29.710000
1432.443484	30.730000
1434.408262	22.700000
1436.378113	30.110000
1438.343840	26.220000
1440.310959	30.090000
1442.275795	28.620000
1444.236511	27.330000
1446.202295	19.550000
1448.162124	29.470000
1450.123347	27.000000
1452.085962	27.150000
1454.044462	22.560000
1456.002519	32.220000
1457.960135	23.420000
1459.917308	28.550000
1461.872206	28.300000
1463.828497	25.290000
1465.782513	25.200000
1467.736088	26.010000
1469.687391	31.210000
1471.640087	31.690000
1473.590510	27.540000
1475.540495	28.620000
1477.490041	27.240000
1479.437318	28.800000
1481.382327	23.740000
1483.328729	25.350000
1485.274693	25.860000
1487.220220	30.350000
1489.163481	26.850000
1491.106307	30.090000
1493.046869	24.900000
1494.988822	30.540000
1496.928513	28.220000
1498.867770	31.300000
1500.806591	26.260000
1502.743153	29.550000
1504.681106	29.510000
1506.616800	37.910000
1508.552061	27.760000
1510.485066	35.610000
1512.417638	26.930000
1514.349778	32.850000
1516.281486	35.820000
1518.210940	34.730000
1520.141785	38.380000
1522.072198	35.320000
1523.998539	32.510000
1525.926271	37.470000
1527.851752	34.810000
1529.776804	38.070000
1531.701427	36.330000
1533.625621	34.570000
1535.547567	37.860000
1537.470904	40.930000
1539.391994	32.120000
1541.310840	36.960000
1543.231076	36.590000
1545.149069	44.370000
1547.066635	39.960000
1548.981959	50.130000
1550.898673	46.140000
1552.811332	55.820000
1554.727195	58.630000
1556.640818	67.370000
1558.552203	65.980000
1560.464978	85.220000
1562.373703	81.640000
1564.283817	108.620000
1566.193508	113.070000
1568.102776	139.650000
1570.009810	174.180000
1571.914611	211.340000
1573.820801	253.710000
1575.724759	296.180000
1577.628296	332.400000
1579.531413	328.560000
1581.432300	305.180000
1583.334576	271.540000
1585.234624	218.610000
1587.136059	179.590000
1589.033461	140.290000
1590.930444	114.800000
1592.827009	95.840000
1594.724962	83.080000
1596.617080	69.190000
1598.512391	61.650000
1600.407285	63.810000
1602.299957	58.870000
1604.192212	52.920000
1606.082248	51.400000
1607.971868	45.920000
1609.861073	49.090000
1611.749863	35.890000
1613.636435	44.890000
1615.524395	37.650000
1617.408338	36.680000
1619.293668	35.610000
1621.178585	34.170000
1623.061288	34.890000
1624.945378	37.820000
1626.825456	30.900000
1628.706922	34.570000
1630.586177	33.820000
1632.466818	39.870000
1634.341655	31.740000
1636.221473	30.650000
1638.097287	27.580000
1639.972690	30.850000
1641.849479	31.240000
1643.720472	33.040000
1645.594646	28.120000
1647.464821	38.330000
1649.338178	23.420000
1651.209331	36.430000
1653.078282	26.120000
1654.948618	30.110000
1656.814962	27.550000
1658.682691	29.710000
1660.548221	26.970000
1662.415137	32.480000
1664.278064	28.460000
1666.142376	29.950000
1668.004492	30.380000
1669.866203	34.020000
1671.729300	28.110000
1673.590201	23.250000
1675.448910	27.400000
1677.307215	26.670000
1679.166905	23.140000
1681.020827	27.250000
1682.877923	29.040000
1684.734616	25.280000
1686.587332	26.000000
1688.443220	29.150000
1690.295134	27.850000
1692.146647	33.230000
1693.997759	22.660000
1695.848471	30.410000
1697.698782	32.190000
1699.546908	27.910000
1701.396419	22.090000
1703.240181	27.970000
1705.088892	29.700000
1706.931857	32.380000
1708.777989	24.550000
1710.620158	30.280000
1712.465493	24.030000
1714.305087	26.170000
1716.146065	29.550000
1717.988426	25.980000
1719.826831	26.180000
1721.666619	30.690000
1723.504232	29.240000
1725.341449	34.540000
1727.176493	32.500000
1729.012920	30.470000
1730.847175	21.760000
1732.681035	23.810000
1734.514501	22.700000
1736.344022	28.460000
1738.176701	24.210000
1740.005436	30.530000
1741.837328	26.630000
1743.665278	30.600000
1745.492837	24.780000
1747.320003	29.530000
1749.146778	28.250000
1750.973161	29.800000
1752.795608	27.080000
1754.621210	32.080000
1756.442877	23.140000
1758.265926	36.710000
1760.086813	27.180000
1761.907312	31.300000
1763.729191	25.330000
1765.545372	34.120000
1767.364704	25.940000
1769.180109	30.130000
1770.998664	21.450000
1772.813294	32.210000
1774.627537	26.940000
1776.441394	27.980000
1778.254864	22.690000
1780.066181	22.770000
1781.878878	30.920000
1783.691190	28.050000
1785.499584	24.680000
1787.309358	29.300000
1789.115218	26.860000
1790.924223	32.320000
1792.729315	33.540000
1794.535788	28.450000
1796.341877	25.730000
1798.144055	27.530000
1799.949378	22.390000
1801.750792	25.700000
1803.553586	23.610000
1805.352474	31.620000
1807.152743	22.690000
1808.952630	30.740000
1810.750375	24.620000
1812.547740	25.750000
1814.344725	28.340000
1816.141329	26.890000
1817.935794	23.710000
1819.731638	33.070000
1821.521827	24.030000
1823.316913	31.260000
1825.106347	21.560000
1826.898917	32.420000
1828.689352	27.440000
1830.477653	34.660000
1832.269089	24.290000
1834.054879	32.410000
1835.842049	22.760000
1837.627087	28.650000
1839.415259	29.350000
1841.199545	35.090000
1842.981701	26.330000
1844.765237	31.410000
1846.546644	29.180000
1848.329430	27.850000
1850.108335	30.330000
1851.888620	29.080000
1853.666778	24.050000
1855.446315	28.390000
1857.223727	25.530000
1858.999015	27.730000
1860.775681	25.790000
1862.550225	29.690000
1864.326147	26.420000
1866.096448	35.590000
1867.869877	23.090000
1869.641186	27.260000
1871.412124	29.180000
1873.184440	34.270000
1874.951142	27.230000
1876.720970	28.540000
1878.486934	22.330000
1880.256021	32.570000
1882.021247	24.430000
1883.786105	31.000000
1885.552340	22.880000
1887.314716	26.240000
1889.076725	30.450000
1890.838366	25.540000
1892.599641	26.170000
1894.360548	32.120000
1896.121089	28.440000
1897.879520	33.300000
1899.637585	26.090000
1901.393543	35.580000
1903.150877	26.860000
1904.907846	28.460000
1906.662708	28.030000
1908.415466	29.040000
1910.167859	28.380000
1911.921629	24.240000
1913.673295	26.100000
1915.422859	30.240000
1917.173798	24.270000
1918.924375	28.240000
1920.671112	28.060000
1922.419226	31.610000
1924.165240	23.700000
1925.912629	28.250000
1927.657921	22.220000
1929.401115	27.260000
1931.145684	27.340000
1932.888158	27.570000
1934.630271	26.790000
1936.372024	30.810000
1938.113417	28.080000
1939.852717	30.520000
1941.591658	23.890000
1943.330240	26.650000
1945.066731	30.800000
1946.802864	27.535000
1948.540371	24.270000
1950.274056	25.330000
1952.009116	23.270000
1953.742087	29.060000
1955.474702	28.020000
1957.206961	30.580000
1958.938863	25.450000
1960.668679	28.300000
1962.396410	28.930000
1964.125516	29.250000
1965.854267	25.100000
1967.580934	30.460000
1969.307247	18.580000
1971.034933	31.930000
1972.757083	26.780000
1974.482334	28.350000
1976.203778	24.200000
1977.928323	25.530000
1979.650787	29.030000
1981.369449	27.210000
1983.091209	23.230000
1984.809167	24.950000
1986.528498	25.550000
1988.244030	28.630000
1989.964382	29.600000
1991.680936	22.530000
1993.393693	28.700000
1995.109546	29.810000
1996.823327	25.680000
1998.536758	26.180000
2000.248118	27.920000
2001.960850	32.880000
2003.669792	25.390000
2005.381826	30.690000
2007.088352	23.640000
2008.797969	28.310000
2010.505520	24.650000
2012.212722	25.030000
2013.917859	23.200000
2015.622650	30.370000
2017.328812	27.310000
2019.031192	28.230000
2020.734943	27.370000
2022.436632	33.800000
2024.137976	29.350000
2025.838974	28.240000
2027.537911	23.960000
2029.238220	28.600000
2030.934754	24.960000
2032.632659	33.810000
2034.328505	25.680000
2036.027437	27.940000
2037.720883	31.400000
2039.415700	33.600000
2041.110175	27.100000
2042.800881	27.450000
2044.494671	27.170000
2046.184694	25.560000
2047.876088	24.930000
2049.565429	31.090000
2051.256140	27.720000
2052.943088	28.340000
2054.629697	22.310000
2056.317675	29.390000
2058.001894	27.370000
2059.687484	29.590000
2061.372734	24.070000
2063.055935	22.970000
2064.740507	25.350000
2066.419616	27.630000
2068.103510	21.470000
2069.781943	34.490000
2071.463454	30.150000
2073.141213	25.020000
2074.818636	21.940000
2076.497428	29.240000
2078.174178	22.730000
2079.848886	30.230000
2081.524963	25.640000
2083.199000	30.040000
2084.872701	28.210000
2086.546067	28.260000
2088.217394	28.030000
2089.888387	34.130000
2091.559046	23.510000
2093.229371	28.030000
2094.899362	26.740000
2096.567317	30.960000
2098.234939	27.090000
2099.900526	24.820000
2101.567482	26.910000
2103.232405	33.040000
2104.896996	24.230000
2106.559555	28.900000
2108.223482	27.610000
2109.885378	25.770000
2111.546944	28.240000
2113.208178	26.570000
2114.867384	28.260000
2116.526259	29.570000
2118.184805	26.930000
2119.843020	32.670000
2121.497513	23.910000
2123.155070	20.500000
2124.812298	27.640000
2126.465804	29.600000
2128.120678	30.120000
2129.771833	29.240000
2131.426051	26.420000
2133.076552	29.830000
2134.728419	30.610000
2136.374878	29.440000
2138.026092	26.900000
2139.673592	30.930000
2141.322459	30.600000
2142.969307	28.010000
2144.615830	27.780000
2146.262027	27.140000
2147.904516	26.570000
2149.550063	28.280000
2151.191903	28.160000
2152.836800	30.410000
2154.477991	28.330000
2156.118860	25.690000
2157.759404	24.110000
2159.397936	29.590000
2161.037834	23.020000
2162.674032	23.870000
2164.311596	27.430000
2165.948838	26.000000
2167.584070	22.990000
2169.218981	33.490000
2170.853569	29.820000
2172.487837	26.920000
2174.118411	23.700000
2175.752037	25.820000
2177.381971	20.810000
2179.013270	26.310000
2180.642564	25.660000
2182.271539	29.480000
2183.900194	30.090000
2185.528530	26.120000
2187.154864	28.750000
2188.780879	28.280000
2190.404892	27.480000
2192.030271	35.130000
2193.653649	23.290000
2195.278392	31.500000
2196.899454	25.560000
2198.520199	32.040000
2200.142309	27.670000
2201.762421	30.480000
2203.380536	21.390000
2204.998336	28.280000
2206.615821	26.150000
2208.232990	31.150000
2209.849844	25.980000
2211.466382	30.760000
2213.080928	30.280000
2214.693481	25.850000
2216.307398	25.430000
2217.919324	24.750000
2219.532613	25.930000
2221.143912	33.980000
2222.753221	22.820000
2224.363894	27.150000
2225.972578	23.530000
2227.580949	27.580000
2229.187334	29.740000
2230.795082	29.840000
2232.400843	23.180000
2234.006293	27.030000
2235.609758	25.960000
2237.214586	28.280000
2238.817430	27.520000
2240.418291	29.190000
2242.020515	23.080000
2243.620757	32.480000
2245.222361	23.510000
2246.820312	26.410000
2248.419626	19.060000
2250.016960	26.550000
2251.613986	22.060000
2253.212374	22.790000
2254.807113	20.870000
2256.399875	27.630000
2257.994000	22.040000
2259.589486	25.100000
2261.181327	26.240000
2262.772862	26.240000
2264.365759	23.700000
2265.953346	23.050000
2267.545629	25.910000
2269.132606	30.550000
2270.722610	28.850000
2272.307310	28.060000
2273.896704	24.180000
2275.480796	25.730000
2277.066248	25.830000
2278.649732	29.640000
2280.236241	19.150000
2281.819117	30.030000
2283.401690	24.910000
2284.983959	31.880000
2286.562598	20.380000
2288.144262	27.250000
2289.722297	21.110000
2291.303355	28.690000
2292.880786	26.500000
2294.456254	24.310000
2296.034744	24.600000
2297.609610	25.260000
2299.184175	22.630000
2300.758440	24.610000
2302.332404	23.240000
2303.906067	30.070000
2305.479431	28.810000
2307.049176	26.830000
2308.618622	25.640000
2310.191086	33.000000
2311.758276	25.480000
2313.328484	26.380000
2314.895077	21.110000
2316.463030	30.580000
2318.029027	21.220000
2319.594727	27.330000
2321.160129	29.280000
2322.723578	29.220000
2324.288386	28.220000
2325.849586	34.190000
2327.413800	31.820000
2328.972752	41.120000
2330.534719	38.540000
2332.094734	33.240000
2333.654455	25.190000
2335.212226	30.590000
2336.769702	27.290000
2338.326884	31.340000
2339.882118	25.650000
2341.437059	22.930000
2342.991705	26.540000
2344.546058	24.250000
2346.100118	26.520000
2347.653883	32.740000
2349.205704	29.560000
2350.755583	30.040000
2352.308469	26.710000
2353.856112	31.120000
2355.406764	29.490000
2356.953824	30.300000
2358.502242	25.980000
2360.050369	24.110000
2361.594907	21.610000
2363.140803	32.660000
2364.684761	28.760000
2366.230076	27.720000
2367.771806	24.480000
2369.314893	26.970000
2370.856044	22.960000
2372.396906	28.570000
2373.937479	25.070000
2375.477763	25.760000
2377.017758	21.310000
2378.554175	28.360000
2380.093593	23.940000
2381.629433	27.600000
2383.166631	28.220000
2384.700253	33.320000
2386.236875	26.680000
2387.771567	31.060000
2389.304329	16.380000
2390.836804	31.030000
2392.367351	25.410000
2393.900896	27.040000
2395.429230	22.800000
2396.958921	29.160000
2398.488325	22.020000
2400.017445	31.110000
2401.546280	20.570000
2403.069909	26.090000
2404.598174	22.010000
2406.121237	30.270000
2407.648933	24.790000
2409.169790	35.580000
2410.695280	22.270000
2412.217209	22.970000
2413.740494	26.550000
2415.261857	29.850000
2416.781301	25.310000
2418.302100	32.040000
2419.820981	27.730000
2421.339579	27.960000
2422.856260	25.950000
2424.374295	29.890000
2425.892049	29.060000
2427.406252	31.020000
2428.920174	30.800000
2430.433816	33.710000
2431.948813	30.890000
2433.460261	33.330000
2434.973064	29.500000
2436.483953	36.890000
2437.994564	30.790000
2439.503263	35.780000
2441.014948	33.090000
2442.523090	27.630000
2444.030954	29.290000
2445.538540	34.640000
2447.042585	31.320000
2448.549615	35.780000
2450.054737	29.650000
2451.559582	36.470000
2453.062520	30.110000
2454.565182	32.950000
2456.067567	29.200000
2457.568047	30.960000
2459.069880	30.990000
2460.569808	32.350000
2462.069461	30.820000
2463.568839	30.150000
2465.066314	35.140000
2466.561887	36.210000
2468.060440	30.160000
2469.555465	30.360000
2471.051842	30.930000
2472.544693	29.360000
2474.038897	32.850000
2475.532827	32.720000
2477.023233	33.580000
2478.516617	34.730000
2480.008103	29.880000
2481.497692	32.290000
2482.987009	31.720000
2484.474430	29.870000
2485.964827	27.460000
2487.451706	29.420000
2488.939936	27.200000
2490.424649	26.310000
2491.909093	27.290000
2493.394887	32.230000
2494.878790	23.190000
2496.364043	30.120000
2497.844163	28.340000
2499.327256	33.450000
2500.808458	28.180000
2502.289391	28.840000
2503.768435	30.930000
2505.247210	31.600000
2506.725717	23.120000
2508.203956	30.610000
2509.681926	24.030000
2511.156391	33.400000
2512.633826	26.490000
2514.107757	30.430000
2515.583038	20.060000
2517.058052	29.290000
2518.529565	25.200000
2520.002429	20.980000
2521.473410	29.740000
2522.945741	26.450000
2524.412958	30.220000
2525.883142	31.390000
2527.351445	27.250000
2528.819483	25.370000
2530.287256	24.440000
2531.754764	29.720000
2533.222007	27.370000
2534.685758	26.440000
2536.150859	27.230000
2537.614083	25.740000
2539.078656	29.650000
2540.539741	28.140000
2542.002175	27.860000
2543.464346	29.400000
2544.923031	27.010000
2546.386287	30.360000
2547.844448	33.170000
2549.303957	29.000000
2550.758372	29.360000
2552.217358	29.220000
2553.674472	21.760000
2555.129715	33.250000
2556.584696	28.570000
2558.037809	23.450000
2559.492270	28.430000
2560.944861	30.030000
2562.397193	23.280000
2563.847658	31.350000
2565.301078	26.990000
2566.749416	29.240000
2568.200709	26.680000
2569.650137	34.230000
2571.096092	27.440000
2572.545002	35.270000
2573.990442	26.110000
2575.437229	27.330000
2576.882154	27.640000
2578.326820	31.560000
2579.772834	28.000000
2581.215382	32.950000
2582.659277	30.390000
2584.099707	31.070000
2585.541484	26.330000
2586.981402	31.810000
2588.422667	33.460000
2589.860470	30.750000
2591.301223	28.970000
2592.736914	31.680000
2594.175554	27.840000
2595.612336	31.220000
2597.047263	26.270000
2598.485137	28.780000
2599.917954	30.580000
2601.352118	28.260000
2602.784428	26.930000
2604.218084	34.650000
2605.649887	28.270000
2607.081436	37.710000
2608.512733	27.720000
2609.942177	38.070000
2611.371369	38.300000
2612.798711	34.010000
2614.227398	27.880000
2615.655834	33.970000
2617.080822	35.470000
2618.507157	39.680000
2619.931643	32.120000
2621.357475	36.520000
2622.779863	40.430000
2624.203597	40.960000
2625.625484	35.520000
2627.047122	39.650000
2628.466914	36.960000
2629.888052	45.680000
2631.308940	36.890000
2632.726390	44.990000
2634.146779	39.240000
2635.563731	42.990000
2636.980434	38.980000
2638.396889	42.900000
2639.813096	41.000000
2641.229055	42.560000
2642.643173	46.800000
2644.057043	47.070000
2645.469075	48.420000
2646.882450	51.130000
2648.292396	41.830000
2649.705278	53.060000
2651.114731	48.200000
2652.523938	51.310000
2653.931309	47.140000
2655.341614	53.020000
2656.750084	47.250000
2658.156718	57.480000
2659.563107	51.070000
2660.967662	56.400000
2662.373561	59.150000
2663.777627	64.090000
2665.181448	63.790000
2666.585025	65.700000
2667.986771	68.260000
2669.389860	67.420000
2670.789531	61.520000
2672.190546	67.680000
2673.588145	66.350000
2674.988674	77.570000
2676.385787	67.850000
2677.784244	76.470000
2679.180874	65.850000
2680.577261	74.440000
2681.973406	73.560000
2683.367725	75.520000
2684.763387	72.870000
2686.155640	76.320000
2687.549235	74.450000
2688.941006	81.680000
2690.334120	75.480000
2691.725410	77.390000
2693.114877	76.820000
2694.504104	80.540000
2695.893092	85.200000
2697.283421	83.050000
2698.668767	80.620000
2700.057036	84.590000
2701.443485	84.850000
2702.829695	86.500000
2704.215666	79.480000
2705.598239	88.410000
2706.982154	93.140000
2708.365831	93.700000
2709.749269	91.930000
2711.129313	97.090000
2712.510697	97.640000
2713.890267	101.110000
2715.271177	99.540000
2716.650273	101.540000
2718.027555	90.200000
2719.406178	99.910000
2720.782988	94.790000
2722.159561	98.760000
2723.535899	91.130000
2724.910426	93.200000
2726.286293	77.060000
2727.658773	83.270000
2729.034169	78.590000
2730.404605	78.130000
2731.776382	64.550000
2733.147924	73.620000
2734.517658	61.860000
2735.888733	67.500000
2737.257999	60.990000
2738.627032	62.600000
2739.994259	57.010000
2741.361252	56.490000
2742.728013	51.410000
2744.094542	51.360000
2745.459265	47.000000
2746.823756	46.460000
2748.188016	41.360000
2749.552043	46.610000
2750.915839	34.980000
2752.276261	41.020000
2753.639593	36.450000
2754.997983	39.450000
2756.359283	31.970000
2757.717213	32.700000
2759.078051	35.240000
2760.437090	31.150000
2761.792760	31.410000
2763.151338	37.410000
2764.506549	27.380000
2765.861531	35.190000
2767.214717	29.920000
2768.570809	30.980000
2769.923536	27.540000
2771.276036	32.320000
2772.628307	29.900000
2773.981916	29.730000
2775.332165	26.940000
2776.680619	33.250000
2778.031979	26.430000
2779.379979	31.890000
2780.729317	24.230000
2782.076863	29.580000
2783.424183	21.770000
2784.771276	27.710000
2786.116578	27.360000
2787.461653	32.870000
2788.806503	31.420000
2790.151127	31.320000
2791.492399	26.340000
2792.835009	26.090000
2794.177393	25.940000
2795.519552	31.820000
2796.858362	26.080000
2798.200072	25.140000
2799.538434	27.680000
2800.878132	27.680000
2802.216046	25.730000
2803.552175	31.830000
2804.888080	20.630000
2806.225323	23.610000
2807.560782	24.130000
2808.896018	28.410000
2810.229471	21.010000
2811.564261	26.530000
2812.895711	21.230000
2814.230056	26.100000
2815.559503	21.950000
2816.890287	25.640000
2818.220849	17.860000
2819.549632	24.380000
2820.879751	21.700000
2822.208092	24.530000
2823.536212	21.130000
2824.862554	33.260000
2826.190233	18.940000
2827.514578	28.240000
2828.840260	22.770000
2830.164166	26.620000
2831.487853	22.660000
2832.812875	28.590000
2834.134567	20.340000
2835.456041	30.400000
2836.777296	17.670000
2838.098332	26.760000
2839.417595	20.070000
2840.738194	24.340000
2842.057022	23.470000
2843.375631	26.650000
2844.692469	21.370000
2846.009090	24.630000
2847.325494	22.650000
2848.640128	25.250000
2849.956098	23.510000
2851.268747	23.790000
2852.582731	26.320000
2853.896499	22.980000
2855.210050	24.020000
2856.521835	29.350000
2857.831853	19.700000
2859.143206	23.780000
2860.451244	21.950000
2861.760616	24.620000
2863.069774	20.090000
2864.378716	21.680000
2865.685894	20.550000
2866.991310	21.740000
2868.298060	22.640000
2869.603047	23.890000
2870.907821	21.800000
2872.210833	28.480000
2873.516726	24.780000
2874.817765	25.260000
2876.120138	22.870000
2877.420751	25.960000
2878.722698	19.150000
2880.024431	23.000000
2881.322861	25.280000
2882.622624	24.750000
2883.920630	22.720000
2885.218424	24.070000
2886.514462	20.890000
2887.811833	19.320000
2889.107448	17.470000
2890.402852	17.640000
2891.698045	21.640000
2892.989941	24.410000
2894.284713	20.600000
2895.576188	21.530000
2896.868996	21.810000
2898.161594	25.560000
2899.450898	23.830000
2900.741534	22.180000
2902.030419	20.200000
2903.320636	24.720000
2904.607562	19.840000
2905.895820	20.200000
2907.182329	20.320000
2908.468629	25.490000
2909.754722	18.630000
2911.039066	24.340000
2912.326281	16.250000
2913.608670	24.990000
2914.892391	15.050000
2916.174366	24.320000
2917.456133	20.510000
2918.736156	28.570000
2920.019048	23.530000
2921.300195	26.360000
2922.578060	23.630000
2923.858794	22.690000
2925.136247	19.270000
2926.413494	23.520000
2927.688999	20.270000
2928.967372	25.710000
2930.240931	17.190000
2931.517357	20.970000
2932.792042	21.090000
2934.064986	23.460000
2935.339262	24.330000
2936.611798	21.410000
2937.884129	19.700000
2939.153188	22.580000
2940.425112	18.250000
2941.695298	26.900000
2942.965280	23.680000
2944.235059	23.790000
2945.503102	22.330000
2946.769408	22.040000
2948.035513	15.580000
2949.302947	22.910000
2950.568647	20.510000
2951.834144	22.000000
2953.099439	20.440000
2954.361469	26.570000
2955.624829	18.610000
2956.887988	19.020000
2958.149415	18.960000
2959.412171	19.000000
2960.673195	20.550000
2961.932489	22.390000
2963.191583	21.830000
2964.450476	18.120000
2965.709169	22.610000
2966.967662	27.950000
2968.224426	17.310000
2969.480990	19.120000
2970.735827	14.690000
2971.991992	18.740000
2973.244903	18.940000
2974.499143	24.260000
2975.753184	18.060000
2977.005499	23.500000
2978.257615	20.760000
2979.508007	25.020000
2980.761254	24.520000
2982.009724	25.320000
2983.261049	17.320000
2984.509124	23.900000
2985.757003	27.000000
2987.004684	22.230000
2988.252168	21.300000
2989.497931	24.790000
2990.743498	17.680000
2991.990392	18.710000
2993.234042	21.830000
2994.479020	21.880000
2995.720754	19.300000
2996.965340	22.530000
2998.208207	18.810000
2999.447833	20.430000
3000.690309	17.090000
3001.929545	20.270000
3003.170109	19.150000
3004.408957	20.300000
3005.647609	20.230000
3006.884546	23.860000
3008.122811	20.610000
3009.359360	20.340000
3010.595716	20.550000
3011.831878	22.480000
3013.066326	18.010000
3014.300582	22.050000
3015.534644	22.230000
3016.766994	24.050000
3017.997632	21.620000
3019.231116	26.830000
3020.462888	22.110000
3021.692950	27.480000
3022.922819	19.980000
3024.150980	23.820000
3025.380466	18.020000
3026.608243	20.170000
3027.835829	18.730000
3029.064742	22.500000
3030.288912	17.530000
3031.515925	23.170000
3032.739714	20.370000
3033.964830	19.650000
3035.188239	15.260000
3036.411458	17.770000
3037.632972	14.020000
3038.857327	24.870000
3040.076947	18.540000
3041.297893	19.740000
3042.518650	18.700000
3043.737703	22.020000
3044.958081	14.900000
3046.175243	17.120000
3047.393731	14.130000
3048.610516	21.640000
3049.827114	21.500000
3051.043523	22.430000
3052.256720	15.010000
3053.472754	24.570000
3054.685576	18.760000
3055.901235	20.880000
3057.112171	17.770000
3058.324432	23.280000
3059.536507	19.380000
3060.748394	23.460000
3061.958585	16.240000
3063.168589	21.320000
3064.378407	13.820000
3065.586529	20.130000
3066.794466	17.100000
3068.000707	19.760000
3069.208273	20.060000
3070.414144	19.675000
3071.619831	19.290000
3072.825332	18.700000
3074.029140	18.120000
3075.234272	20.960000
3076.437711	15.110000
3077.639459	15.080000
3078.841022	16.620000
3080.042402	22.170000
3081.243598	19.500000
3082.443104	21.510000
3083.642427	22.890000
3084.843073	23.640000
3086.042029	20.490000
3087.237791	22.790000
3088.436382	14.290000
3089.631779	17.720000
3090.828499	14.590000
3092.022027	24.890000
3093.218383	14.950000
3094.413053	21.860000
3095.604532	18.140000
3096.800342	15.380000
3097.991458	15.580000
3099.183898	17.840000
3100.373150	16.530000
3101.565227	20.250000
3102.755621	20.300000
3103.942829	17.360000
3105.131360	18.850000
3106.321212	23.160000
3107.507881	20.350000
3108.694369	18.610000
3109.880679	21.210000
3111.068310	24.620000
3112.252759	19.810000
3113.435529	24.640000
3114.621121	15.000000
3115.805034	18.250000
3116.987268	19.830000
3118.169323	17.720000
3119.351200	17.300000
3120.532899	13.310000
3121.712921	15.380000
3122.891266	20.110000
3124.072431	14.690000
3125.250421	17.160000
3126.428235	21.060000
3127.605871	17.390000
3128.781832	17.490000
3129.957616	16.110000
3131.134722	19.950000
3132.310153	19.420000
3133.483911	14.940000
3134.655996	16.960000
3135.829403	20.200000
3137.002633	22.770000
3138.174192	17.590000
3139.347071	18.410000
3140.516783	15.390000
3141.687816	18.640000
3142.857179	21.660000
3144.024871	20.220000
3145.195379	19.500000
3146.361229	21.140000
3147.531387	15.450000
3148.696889	18.530000
3149.862216	17.950000
3151.027370	18.000000
3152.192351	20.660000
3153.358651	25.580000
3154.520299	17.240000
3155.683266	19.010000
3156.846061	14.150000
3158.008683	18.570000
3159.169640	13.260000
3160.330424	21.930000
3161.491036	17.990000
3162.649984	15.950000
3163.808761	19.400000
3164.967366	20.490000
3166.125798	20.950000
3167.284060	21.350000
3168.440659	11.660000
3169.595597	23.190000
3170.751854	18.170000
3171.906450	17.300000
3173.060876	19.040000
3174.213642	23.390000
3175.366237	15.560000
3176.518663	23.090000
3177.670919	17.000000
3178.823004	18.250000
3179.971944	18.450000
3181.123690	17.790000
3182.273778	14.520000
3183.422210	15.170000
3184.570472	17.280000
3185.718566	19.380000
3186.866491	13.130000
3188.012760	21.670000
3189.158861	14.460000
3190.303308	16.600000
3191.447587	16.250000
3192.591698	20.770000
3193.737126	15.560000
3194.879416	23.480000
3196.021539	15.430000
3197.163494	17.560000
3198.305282	17.320000
3199.446903	15.360000
3200.585389	13.270000
3201.725192	13.130000
3202.866313	17.260000
3204.004299	13.010000
3205.140636	22.230000
3206.276807	17.110000
3207.414295	14.200000
3208.550135	14.760000
3209.687292	15.460000
3210.819836	21.100000
3211.956662	14.110000
3213.088876	19.190000
3214.222407	14.590000
3215.355774	16.490000
3216.486013	17.110000
3217.619050	21.390000
3218.748961	20.610000
3219.880188	13.690000
3221.008291	11.570000
3222.139190	17.780000
3223.268445	15.510000
3224.396057	18.950000
3225.520546	16.340000
3226.649311	24.550000
3227.774954	15.810000
3228.900435	19.180000
3230.024274	17.710000
3231.150907	25.630000
3232.272943	17.560000
3233.396295	20.210000
3234.519485	20.100000
3235.642512	23.560000
3236.763901	22.640000
3237.885127	26.210000
3239.004716	21.180000
3240.124143	16.120000
3241.241932	22.370000
3242.362513	21.700000
3243.479981	19.710000
3244.597288	30.900000
3245.714435	21.350000
3246.829946	24.010000
3247.946771	19.890000
3249.060487	18.980000
3250.176992	17.570000
3251.291863	21.280000
3252.403625	16.030000
3253.515227	18.900000
3254.628145	16.930000
3255.740903	16.500000
3256.850555	21.750000
3257.961522	18.520000
3259.072330	12.980000
3260.181506	17.740000
3261.289052	14.080000
3262.397911	21.610000
3263.506613	11.970000
3264.612212	16.340000
3265.719125	11.170000
3266.824409	23.000000
3267.931007	20.080000
3269.034505	17.150000
3270.139318	16.000000
3271.243973	17.480000
3272.345529	19.660000
3273.446929	15.310000
3274.549643	16.390000
3275.652201	18.090000
3276.751662	13.900000
3277.853907	17.090000
3278.953056	23.580000
3280.050581	23.570000
3281.147950	13.780000
3282.248101	21.510000
3283.345160	13.570000
3284.442063	18.850000
3285.538811	8.050000
3286.631001	19.630000
3287.727439	15.720000
3288.822255	19.460000
3289.916917	17.850000
3291.009957	21.190000
3292.102842	14.690000
3293.194108	18.540000
3294.286685	13.130000
3295.377643	20.280000
3296.466981	6.120000
3297.556166	20.730000
3298.646664	21.020000
3299.734077	16.890000
3300.821337	13.720000
3301.909910	20.380000
3302.998331	11.380000
3304.082204	12.950000
3305.170319	14.100000
3306.255352	15.650000
3307.338770	17.090000
3308.423500	17.110000
3309.506614	11.090000
3310.591041	15.440000
3311.672389	13.400000
3312.755049	18.190000
3313.836095	15.930000
3314.916990	19.990000
3315.996271	18.320000
3317.075402	18.530000
3318.155845	13.050000
3319.233213	16.030000
3320.311893	16.310000
3321.388961	16.260000
3322.465880	15.410000
3323.541187	14.790000
3324.616345	16.400000
3325.692814	17.440000
3326.766213	13.320000
3327.839463	17.850000
3328.914023	14.970000
3329.986975	14.430000
3331.058318	15.910000
3332.130972	15.930000
3333.200560	14.810000
3334.271458	17.910000
3335.340749	14.120000
3336.411351	19.040000
3337.480346	15.960000
3338.547735	21.030000
3339.613519	9.040000
3340.683529	18.800000
3341.750476	14.890000
3342.814361	15.890000
3343.881014	14.190000
3344.946062	16.330000
3346.009507	16.430000
3347.072806	15.480000
3348.135958	17.870000
3349.198964	17.530000
3350.261824	19.120000
3351.323082	18.730000
3352.381283	18.760000
3353.443704	18.310000
3354.503070	12.370000
3355.562290	17.240000
3356.622820	11.910000
3357.678840	17.200000
3358.737624	13.000000
3359.791901	10.910000
3360.848942	13.520000
3361.904384	15.610000
3362.961136	10.370000
3364.016289	17.900000
3365.069845	11.510000
3366.121805	15.490000
3367.176526	13.100000
3368.228198	10.920000
3369.279727	11.710000
3370.332564	17.030000
3371.382354	14.390000
3372.433453	16.620000
3373.481506	6.830000
3374.532318	17.740000
3375.580086	10.020000
3376.627711	14.550000
3377.675193	9.350000
3378.721083	11.980000
3379.768281	16.870000
3380.812437	13.370000
3381.859351	14.970000
3382.904673	15.440000
3383.946954	15.210000
3384.989095	15.270000
3386.032543	17.230000
3387.075850	18.320000
3388.117568	18.270000
3389.159144	19.320000
3390.200579	11.670000
3391.240426	21.710000
3392.278684	14.470000
3393.318250	14.910000
3394.357676	12.900000
3395.395514	11.770000
3396.431765	6.090000
3397.467877	16.990000
3398.505296	11.570000
3399.539682	17.140000
3400.575375	8.160000
3401.610929	13.800000
3402.643452	14.950000
3403.678728	15.260000
3404.710973	11.820000
3405.743080	18.390000
3406.773603	8.490000
3407.805433	14.680000
3408.837125	13.800000
3409.865789	16.190000
3410.894316	13.930000
3411.924149	14.630000
3412.953845	18.540000
3413.980515	16.100000
3415.008492	14.420000
3416.033444	16.220000
3417.061146	12.740000
3418.085825	20.360000
3419.111810	8.810000
3420.136215	13.210000
3421.160484	9.570000
3422.183174	10.390000
3423.205728	14.740000
3424.229588	19.050000
3425.250428	12.880000
3426.271132	18.100000
3427.293143	12.130000
3428.312135	14.000000
3429.330991	17.500000
3430.351154	13.060000
3431.368300	8.160000
