-117.702309	-4.100000
-115.032709	6.300000
-112.366044	-8.000000
-109.700131	-1.400000
-107.037150	-12.700000
-104.372740	-3.000000
-101.711260	7.800000
-99.048350	5.500000
-96.390548	-4.600000
-93.731315	5.300000
-91.072831	1.800000
-88.417272	7.300000
-85.760284	-7.500000
-83.108393	1.300000
-80.455073	1.500000
-77.804673	-1.400000
-75.152843	-15.500000
-72.506104	10.100000
-69.857935	8.600000
-67.210510	-8.100000
-64.565998	-11.000000
-61.920058	-5.300000
-59.279199	-0.400000
-56.636911	-16.900000
-53.997531	7.600000
-51.356723	-7.300000
-48.716655	8.800000
-46.081659	15.600000
-43.445234	-4.600000
-40.811713	-0.400000
-38.176763	0.000000
-35.546878	-6.100000
-32.913401	0.700000
-30.284986	13.300000
-27.657304	2.600000
-25.028195	-4.700000
-22.404142	-3.000000
-19.776500	-2.900000
-17.153911	12.800000
-14.532053	18.800000
-11.910927	7.000000
-9.290530	46.400000
-6.673021	146.300000
-4.054084	331.900000
-1.438033	649.900000
1.177290	696.900000
3.791886	273.900000
6.403599	7.900000
9.016741	9.300000
11.624849	12.800000
14.236539	-0.100000
16.843198	-4.800000
19.451285	17.400000
22.058648	-0.100000
24.660986	3.500000
27.266902	-13.100000
29.867796	10.700000
32.470119	18.600000
35.067423	11.300000
37.668303	3.300000
40.264169	-7.900000
42.861462	15.400000
45.458036	5.100000
48.049601	5.600000
50.642594	7.900000
53.232726	-8.100000
55.824286	3.900000
58.412986	6.600000
61.003113	2.600000
63.588242	9.800000
66.174798	0.000000
68.760639	-2.100000
71.343627	-0.600000
73.928042	6.500000
76.505327	16.200000
79.086179	1.800000
81.664182	4.100000
84.241475	-8.100000
86.820194	0.800000
89.393932	12.900000
91.969096	28.400000
94.541417	-10.400000
97.113030	-14.100000
99.681804	10.500000
102.252004	2.200000
104.819365	11.700000
107.388153	2.500000
109.954103	4.800000
112.517219	-9.700000
115.083891	-4.300000
117.641342	-1.100000
120.204478	3.900000
122.762655	-2.200000
125.324385	11.500000
127.881160	9.400000
130.439360	3.500000
132.992608	27.500000
135.545157	42.000000
138.101257	52.400000
140.652410	101.500000
143.202864	155.800000
145.752622	137.600000
148.299560	154.500000
150.845802	195.400000
153.393471	192.200000
155.940443	201.300000
158.482479	180.400000
161.023822	178.800000
163.564473	179.000000
166.106548	176.000000
168.645813	178.400000
171.182268	189.200000
173.718033	170.300000
176.255223	177.800000
178.791721	186.700000
181.325414	189.400000
183.856304	154.700000
186.386505	149.700000
188.918131	159.800000
191.446956	162.400000
193.972982	190.900000
196.498323	151.600000
199.025088	169.000000
201.549056	173.400000
204.072340	175.800000
206.594939	148.400000
209.114745	141.600000
211.633868	148.200000
214.152308	166.600000
216.672172	156.600000
219.185035	151.700000
221.701429	163.800000
224.217141	146.400000
226.727964	160.000000
229.240211	162.700000
231.749675	169.600000
234.258461	135.300000
236.766569	166.300000
239.276100	158.700000
241.780752	154.000000
244.284727	171.200000
246.790126	158.500000
249.290650	186.000000
251.794697	140.800000
254.291774	179.800000
256.792373	150.100000
259.290201	163.600000
261.787356	166.400000
264.283838	162.800000
266.775458	177.600000
269.270596	137.000000
271.762969	168.600000
274.254671	176.700000
276.743610	160.000000
279.233972	162.400000
281.721573	161.300000
284.206414	171.700000
286.694769	138.200000
289.176185	166.700000
291.661115	153.000000
294.141200	156.100000
296.624797	161.500000
299.103551	165.500000
301.583729	165.000000
304.061154	162.200000
306.537916	157.000000
309.014015	151.700000
311.487365	134.900000
313.960053	164.400000
316.432080	167.600000
318.903446	171.700000
321.372068	175.400000
323.840030	189.400000
326.309415	189.800000
328.773977	173.900000
331.242042	188.600000
333.705288	188.200000
336.167877	198.800000
338.629808	169.300000
341.091083	181.200000
343.549624	165.800000
346.009587	190.300000
348.466818	194.900000
350.923393	169.200000
353.379315	187.700000
355.832508	186.100000
358.287122	201.700000
360.736935	182.700000
363.190245	168.100000
365.638755	184.700000
368.086615	184.400000
370.535896	160.900000
372.980384	197.000000
375.426294	184.000000
377.871555	202.400000
380.314097	165.300000
382.755991	190.700000
385.197237	200.200000
387.635768	205.600000
390.075721	223.700000
392.512960	185.700000
394.947487	202.600000
397.385502	196.800000
399.818740	192.000000
402.253400	165.900000
404.683286	221.600000
407.116658	195.800000
409.545260	195.000000
411.973221	165.500000
414.402602	212.000000
416.827218	218.600000
419.253256	200.000000
421.678653	203.700000
424.103410	173.200000
426.523409	197.300000
428.944829	217.600000
431.363552	202.700000
433.783696	192.900000
436.201145	191.700000
438.620014	184.200000
441.036190	183.700000
443.447619	207.800000
445.862524	183.900000
448.274739	188.400000
450.686320	197.700000
453.097267	202.500000
455.505528	212.700000
457.913156	206.800000
460.320153	208.000000
462.726517	202.100000
465.130199	209.100000
467.533251	205.800000
469.935673	229.800000
472.337466	194.100000
474.736580	192.900000
477.137114	217.200000
479.537019	190.900000
481.932201	200.100000
484.330850	205.100000
486.724779	175.200000
489.118082	181.100000
491.510759	206.100000
493.902811	196.400000
496.296282	207.900000
498.685040	186.500000
501.071132	198.500000
503.458644	173.700000
505.845532	184.400000
508.229757	182.900000
510.615401	165.700000
512.998382	171.500000
515.378703	161.000000
517.760443	127.700000
520.139524	168.200000
522.520024	163.300000
524.897866	186.000000
527.273053	205.300000
529.647622	185.400000
532.023610	209.600000
534.396944	193.400000
536.771697	233.700000
539.141763	258.700000
541.511214	256.600000
543.882083	239.000000
546.248272	276.200000
548.615879	261.200000
550.980840	254.000000
553.345188	284.100000
555.708924	285.600000
558.074077	295.700000
560.434557	265.800000
562.796456	319.400000
565.155715	266.100000
567.512335	293.500000
569.872400	277.200000
572.225775	277.300000
574.582594	251.300000
576.936777	268.500000
579.290353	234.100000
581.643320	233.500000
583.993656	244.800000
586.345408	237.700000
588.690484	252.900000
591.041024	220.700000
593.384891	232.600000
595.734218	238.700000
598.078898	206.300000
600.420953	225.000000
602.764424	189.000000
605.105273	206.300000
607.445520	175.800000
609.783146	186.300000
612.124207	202.300000
614.460631	182.600000
616.798471	177.200000
619.133693	176.700000
621.466300	138.600000
623.800323	165.200000
626.131733	142.200000
628.462544	125.300000
630.792757	144.000000
633.122372	134.400000
635.447365	107.500000
637.777799	129.600000
640.103611	147.600000
642.426817	122.300000
644.751438	100.900000
647.073455	105.000000
649.394877	104.200000
651.713696	85.600000
654.033931	100.500000
656.353573	79.000000
658.670614	75.400000
660.987064	82.700000
663.300915	85.800000
665.616181	73.000000
667.928851	52.500000
670.242936	58.400000
672.552421	94.800000
674.863322	27.800000
677.171630	82.500000
679.479350	53.700000
681.788485	43.600000
684.093027	44.200000
686.396983	59.200000
688.700352	31.000000
691.005136	8.800000
693.305334	45.200000
695.606946	19.700000
697.907974	22.400000
700.204419	23.100000
702.502280	31.900000
704.799557	2.100000
707.096251	-15.800000
709.388369	14.800000
711.683898	-12.200000
713.974854	-19.600000
716.267224	11.200000
718.557018	-0.600000
720.846233	-14.400000
723.134867	4.200000
725.420930	-25.100000
727.708406	-30.100000
729.993312	-3.100000
732.277639	-29.200000
734.559398	-34.900000
736.842572	-30.700000
739.125167	4.600000
741.403208	-22.600000
743.682662	-12.800000
745.961541	-28.500000
748.239844	-25.600000
750.513598	-2.100000
752.788766	-2.800000
755.063360	-7.900000
757.335395	-16.100000
759.608842	7.500000
761.879732	-10.500000
764.148066	48.200000
766.417813	-16.000000
768.685006	-9.600000
770.951628	2.200000
773.217681	-6.400000
775.481181	5.900000
777.746095	3.900000
780.010439	2.300000
782.270254	-11.500000
784.531482	23.400000
786.792142	4.800000
789.050255	-9.000000
791.305824	-8.900000
793.564784	4.900000
795.817245	-2.500000
798.075073	-4.400000
800.328381	-2.100000
802.579150	18.900000
804.831331	22.500000
807.080974	-25.200000
809.332028	0.700000
811.578571	20.000000
813.826527	-14.100000
816.071947	-34.500000
818.318779	14.100000
820.565050	-21.800000
822.806817	-34.800000
825.051966	-8.900000
827.290643	-15.300000
829.532703	-15.300000
831.770264	-28.200000
834.009236	-72.300000
836.245682	-50.100000
838.483540	-40.700000
840.718872	-50.100000
842.951680	-21.100000
845.185900	-21.700000
847.417598	-59.100000
849.648741	-45.400000
851.879329	-40.600000
854.109363	-67.300000
856.338842	-47.700000
858.563840	-57.200000
860.792213	-33.700000
863.016107	-21.900000
865.241411	-43.600000
867.462240	-52.100000
869.686441	-38.300000
871.906169	-34.500000
874.127308	-62.200000
876.347896	-29.500000
878.565974	-38.300000
880.785463	-29.700000
883.000485	-49.400000
885.214959	-60.400000
887.428886	-41.900000
889.642265	-53.800000
891.855097	-56.200000
894.067383	-45.600000
896.277167	-28.000000
898.486405	-31.100000
900.695097	-35.100000
902.901291	-21.400000
905.108894	-27.300000
907.314000	-58.600000
909.518562	-29.200000
911.720628	-37.600000
913.924104	-14.800000
916.125086	1.600000
918.325527	-2.600000
920.527376	8.700000
922.722833	-6.300000
924.921650	-5.000000
927.116029	-21.000000
929.313764	19.300000
931.507064	26.300000
933.701773	27.500000
935.893996	4.800000
938.085681	10.200000
940.276828	23.800000
942.465492	28.100000
944.653619	33.400000
946.839266	41.300000
949.028265	37.100000
951.212841	22.200000
953.396882	34.400000
955.584273	21.100000
957.763361	-4.800000
959.945798	5.900000
962.127702	60.800000
964.307132	20.400000
966.484089	29.800000
968.662454	51.300000
970.842225	41.100000
973.015648	23.800000
975.192417	31.700000
977.364780	37.600000
979.538549	23.500000
981.707915	70.100000
983.880626	39.500000
986.050870	59.900000
988.220586	54.700000
990.389773	69.700000
992.554563	47.800000
994.722694	100.900000
996.886431	84.000000
999.051574	50.200000
1001.214259	79.700000
1003.376417	77.200000
1005.536119	83.200000
1007.695297	85.700000
1009.855881	132.100000
1012.014010	77.000000
1014.171615	89.900000
1016.328697	70.100000
1018.485256	98.700000
1020.637435	101.800000
1022.791020	86.800000
1024.944084	117.700000
1027.094700	125.500000
1029.246721	131.000000
1031.394369	109.700000
1033.545349	120.800000
1035.691958	112.800000
1037.838049	123.600000
1039.983620	139.300000
1042.130597	143.000000
1044.271286	140.300000
1046.415303	152.600000
1048.556880	132.600000
1050.697941	150.800000
1052.840406	152.400000
1054.976592	175.200000
1057.116104	192.300000
1059.251260	171.800000
1061.389741	181.000000
1063.523869	223.200000
1065.657482	188.300000
1067.792501	198.500000
1069.923170	241.700000
1072.055244	230.200000
1074.184889	211.100000
1076.314022	252.800000
1078.442643	268.200000
1080.570753	249.100000
1082.696437	237.600000
1084.821611	245.500000
1086.948189	232.500000
1089.070430	239.400000
1091.194074	260.700000
1093.313385	242.300000
1095.437924	271.000000
1097.556218	232.500000
1099.675917	259.800000
1101.793197	226.000000
1103.909971	253.300000
1106.026238	241.800000
1108.140090	234.000000
1110.255345	246.900000
1112.366278	218.300000
1114.480522	197.700000
1116.590446	215.300000
1118.701774	179.700000
1120.812597	162.800000
1122.919105	165.100000
1125.028921	138.200000
1127.134423	139.800000
1129.241328	136.000000
1131.342018	146.700000
1133.447920	137.000000
1135.549513	137.200000
1137.652509	114.600000
1139.755004	103.000000
1141.851293	93.200000
1143.952788	81.200000
1146.049981	95.500000
1148.146675	68.600000
1150.242872	74.000000
1152.338570	61.600000
1154.433771	52.200000
1156.526575	73.600000
1158.620781	76.700000
1160.708796	38.700000
1162.802009	65.800000
1164.889034	51.600000
1166.979359	64.500000
1169.065395	-3.400000
1171.154729	12.100000
1173.237882	37.800000
1175.322438	32.300000
1177.408394	16.700000
1179.490069	23.600000
1181.573146	-2.000000
1183.653837	0.900000
1185.734036	28.800000
1187.813744	-10.000000
1189.892961	15.600000
1191.969796	-9.300000
1194.044250	5.400000
1196.121996	38.000000
1198.195471	-18.500000
1200.270347	-40.400000
1202.340956	-30.800000
1204.412967	3.100000
1206.482601	-32.300000
1208.553636	-33.200000
1210.624183	-46.300000
1212.690469	-30.400000
1214.758156	-43.800000
1216.823471	-12.100000
1218.890186	-30.300000
1220.952645	-26.900000
1223.018389	-51.400000
1225.079880	-51.400000
1227.142770	-47.300000
1229.203293	-63.200000
1231.263333	-19.600000
1233.322889	-48.800000
1235.380080	-37.300000
1237.436790	-64.300000
1239.491137	-46.600000
1241.548764	-29.200000
1243.604029	-56.600000
1245.655053	-28.000000
1247.707477	-61.400000
1249.759421	-43.800000
1251.809007	-60.700000
1253.858114	-56.800000
1255.906743	-42.400000
1257.954893	-30.300000
1260.002565	-38.800000
1262.046006	-41.200000
1264.092722	-70.900000
1266.137086	-60.100000
1268.180972	-23.500000
1270.222508	-33.100000
1272.261694	-32.600000
1274.304152	-39.000000
1276.342388	-75.000000
1278.382023	-56.700000
1280.421183	-18.900000
1282.456125	-22.700000
1284.492465	-33.200000
1286.526460	-43.100000
1288.561854	-60.500000
1290.593034	-14.200000
1292.625613	-47.400000
1294.657719	-53.200000
1296.687485	-37.900000
1298.718649	-48.000000
1300.745605	-57.600000
1302.773959	-50.600000
1304.798109	-35.600000
1306.825523	-33.400000
1308.848736	-46.200000
1310.873345	-68.500000
1312.895621	-37.500000
1314.919294	-12.600000
1316.940634	-46.700000
1318.961506	-67.300000
1320.981912	-56.300000
1322.998123	-62.900000
1325.015733	-35.300000
1327.031014	-56.700000
1329.049553	-55.700000
1331.063904	-31.200000
1333.075929	-56.800000
1335.091211	-50.400000
1337.102308	-60.300000
1339.114802	-42.900000
1341.123113	-44.300000
1343.134680	-38.800000
1345.140207	-59.200000
1347.148990	-29.700000
1349.153595	-31.000000
1351.161454	-32.600000
1353.168851	-33.800000
1355.170217	-71.900000
1357.172980	-34.500000
1359.175282	-34.600000
1361.177125	-58.200000
1363.178508	-54.800000
1365.177578	-29.500000
1367.176189	-66.800000
1369.174342	-31.200000
1371.172037	-51.800000
1373.165568	-16.800000
1375.160496	-39.700000
1377.154967	-45.300000
1379.148981	-69.700000
1381.140688	-59.500000
1383.131939	-48.100000
1385.120885	-43.100000
1387.111226	-29.900000
1389.101112	-30.700000
1391.088695	-55.000000
1393.075824	-49.600000
1395.060651	-31.000000
1397.046872	-22.900000
1399.030794	-24.100000
1401.014263	-60.300000
1402.997280	-67.600000
1404.977999	-57.100000
1406.960112	-21.300000
1408.939928	-24.700000
1410.919294	-75.800000
1412.894520	-29.000000
1414.872986	-13.900000
1416.849158	-44.000000
1418.824880	-36.700000
1420.800153	-39.700000
1422.773135	-40.300000
1424.745669	-35.800000
1426.717756	-28.600000
1428.689394	-38.000000
1430.656904	-51.400000
1432.629489	-67.600000
1434.594267	-35.300000
1436.564118	-40.500000
1438.529844	-50.900000
1440.496964	-13.300000
1442.461799	-17.500000
1444.422516	-22.500000
1446.388300	-14.100000
1448.348129	-36.000000
1450.309351	-30.000000
1452.271966	-13.300000
1454.230466	-59.300000
1456.188524	-49.300000
1458.146139	-45.000000
1460.103313	-52.400000
1462.058211	-41.300000
1464.014501	-35.400000
1465.968517	-18.100000
1467.922093	-11.500000
1469.873396	-30.900000
1471.826091	-40.100000
1473.776515	-23.400000
1475.726500	-25.200000
1477.676045	-21.500000
1479.623322	-30.300000
1481.568332	-41.900000
1483.514733	-22.000000
1485.460698	-30.200000
1487.406224	-40.000000
1489.349486	-40.600000
1491.292311	-20.300000
1493.232873	-21.700000
1495.174826	-53.400000
1497.114518	-40.100000
1499.053774	-57.900000
1500.992595	-39.300000
1502.929157	-24.300000
1504.867110	-37.800000
1506.802805	-8.800000
1508.738066	-4.100000
1510.671070	-21.200000
1512.603642	-38.100000
1514.535782	-24.800000
1516.467490	-19.300000
1518.396944	-40.500000
1520.327789	-18.400000
1522.258203	-3.700000
1524.184543	-24.900000
1526.112275	-39.900000
1528.037756	-31.700000
1529.962808	-36.100000
1531.887431	-33.200000
1533.811625	-24.500000
1535.733572	-41.500000
1537.656908	-50.800000
1539.577999	-18.400000
1541.496845	-36.800000
1543.417081	-30.700000
1545.335073	-38.200000
1547.252639	-16.700000
1549.167963	-23.300000
1551.084677	-19.200000
1552.997336	-51.000000
1554.913199	-18.100000
1556.826822	-56.500000
1558.738208	-34.900000
1560.650982	-19.800000
1562.559707	-36.800000
1564.469822	-37.000000
1566.379513	-22.800000
1568.288780	-35.100000
1570.195814	-41.400000
1572.100615	-31.400000
1574.006805	-15.300000
1575.910763	-45.000000
1577.814301	-29.200000
1579.717417	-59.200000
1581.618305	-38.700000
1583.520580	-45.100000
1585.420628	-6.500000
1587.322064	7.800000
1589.219465	-34.100000
1591.116448	-4.200000
1593.013013	-25.800000
1594.910966	-20.100000
1596.803084	-32.400000
1598.698395	-60.300000
1600.593289	-53.500000
1602.485961	-40.500000
1604.378217	-20.700000
1606.268253	-41.500000
1608.157873	-45.800000
1610.047078	-28.300000
1611.935867	-16.600000
1613.822440	-23.000000
1615.710399	-18.000000
1617.594342	-32.200000
1619.479673	-5.400000
1621.364589	-12.300000
1623.247293	-51.100000
1625.131382	-55.300000
1627.011461	-24.100000
1628.892926	13.300000
1630.772181	-38.000000
1632.652822	-24.300000
1634.527659	-40.200000
1636.407478	-19.200000
1638.283291	-26.000000
1640.158694	-21.900000
1642.035484	-25.600000
1643.906476	-36.100000
1645.780650	-34.600000
1647.650826	-36.000000
1649.524182	-35.700000
1651.395335	-26.600000
1653.264286	-40.500000
1655.134623	-18.200000
1657.000966	-37.100000
1658.868695	-14.200000
1660.734226	-25.000000
1662.601141	-10.300000
1664.464068	-23.300000
1666.328380	-21.500000
1668.190496	-27.800000
1670.052208	-32.000000
1671.915304	-4.500000
1673.776206	1.600000
1675.634914	-43.900000
1677.493219	-42.800000
1679.352909	-1.700000
1681.206832	-16.700000
1683.063927	-30.200000
1684.920620	-14.100000
1686.773337	-24.700000
1688.629225	-23.600000
1690.481138	-25.600000
1692.332651	-29.800000
1694.183763	13.500000
1696.034475	-10.500000
1697.884786	-26.900000
1699.732913	-33.900000
1701.582423	-51.800000
1703.426185	-14.600000
1705.274897	-18.700000
1707.117862	5.500000
1708.963993	-45.900000
1710.806163	-29.500000
1712.651497	-18.400000
1714.491091	-3.200000
1716.332069	-23.500000
1718.174430	-14.900000
1720.012835	-12.100000
1721.852623	-4.800000
1723.690236	-17.400000
1725.527453	-31.800000
1727.362497	-22.600000
1729.198924	-3.000000
1731.033179	-14.300000
1732.867039	-17.100000
1734.700506	-15.500000
1736.530026	-7.300000
1738.362705	-10.500000
1740.191440	-15.200000
1742.023333	-18.500000
1743.851283	-24.300000
1745.678841	-37.600000
1747.506007	-18.300000
1749.332782	-8.300000
1751.159166	2.000000
1752.981613	3.700000
1754.807214	6.500000
1756.628881	-15.200000
1758.451930	-18.900000
1760.272818	-27.500000
1762.093316	-27.900000
1763.915196	-21.900000
1765.731376	-15.700000
1767.550708	9.400000
1769.366113	-31.000000
1771.184668	-40.700000
1772.999298	-10.300000
1774.813542	-32.900000
1776.627398	-14.000000
1778.440868	-3.000000
1780.252185	-18.900000
1782.064883	1.200000
1783.877194	-29.200000
1785.685588	-19.800000
1787.495363	-18.800000
1789.301222	-9.400000
1791.110228	-10.200000
1792.915319	-23.000000
1794.721792	-24.400000
1796.527881	-24.400000
1798.330060	-26.000000
1800.135382	-15.600000
1801.936796	-26.500000
1803.739590	-11.800000
1805.538478	-20.000000
1807.338747	-33.700000
1809.138634	4.300000
1810.936380	-8.800000
1812.733745	-29.900000
1814.530729	-1.300000
1816.327333	14.900000
1818.121798	-14.700000
1819.917642	-20.400000
1821.707832	-7.000000
1823.502918	-3.400000
1825.292351	-19.700000
1827.084921	-2.800000
1828.875356	-25.800000
1830.663657	5.400000
1832.455093	-50.600000
1834.240883	-35.200000
1836.028053	-29.200000
1837.813091	-6.400000
1839.601263	-0.800000
1841.385549	-10.700000
1843.167706	-14.000000
1844.951241	-20.800000
1846.732648	-21.800000
1848.515434	-7.100000
1850.294340	-19.000000
1852.074624	-9.000000
1853.852782	-32.400000
1855.632319	-19.100000
1857.409731	-27.600000
1859.185019	1.900000
1860.961686	-37.500000
1862.736230	0.900000
1864.512151	-9.100000
1866.282453	-31.800000
1868.055881	-12.800000
1869.827190	-15.100000
1871.598129	-11.200000
1873.370444	-23.600000
1875.137147	-22.800000
1876.906974	-9.200000
1878.672938	-12.800000
1880.442026	-8.100000
1882.207252	-24.400000
1883.972109	-11.600000
1885.738344	-5.900000
1887.500720	-29.100000
1889.262729	-18.800000
1891.024370	-8.200000
1892.785645	-19.900000
1894.546552	-11.700000
1896.307093	-12.800000
1898.065524	14.500000
1899.823590	-21.400000
1901.579547	-8.500000
1903.336882	-20.400000
1905.093850	-16.500000
1906.848713	-27.700000
1908.601470	-24.600000
1910.353864	-30.200000
1912.107633	-14.000000
1913.859299	-14.100000
1915.608863	-23.000000
1917.359803	14.400000
1919.110379	-34.700000
1920.857116	-36.800000
1922.605230	-17.200000
1924.351244	-23.600000
1926.098634	-27.500000
1927.843925	-22.000000
1929.587119	-12.100000
1931.331689	-11.400000
1933.074162	-15.100000
1934.816275	9.000000
1936.558028	-24.200000
1938.299422	5.300000
1940.038722	-18.700000
1941.777663	6.100000
1943.516245	-33.900000
1945.252735	-5.400000
1946.988868	-5.950000
1948.726375	-6.500000
1950.460060	-15.700000
1952.195120	-5.100000
1953.928092	-24.400000
1955.660707	-6.800000
1957.392965	-11.800000
1959.124867	6.800000
1960.854683	-0.600000
1962.582415	11.100000
1964.311520	2.500000
1966.040271	18.400000
1967.766938	4.500000
1969.493251	-11.500000
1971.220937	13.500000
1972.943087	-5.300000
1974.668338	-4.200000
1976.389783	-16.600000
1978.114327	-19.300000
1979.836792	-21.300000
1981.555453	-23.000000
1983.277213	22.100000
1984.995171	4.300000
1986.714502	-9.000000
1988.430034	-19.300000
1990.150387	-20.100000
1991.866940	-7.900000
1993.579698	-10.100000
1995.295551	6.900000
1997.009331	24.400000
1998.722762	-24.400000
2000.434122	-24.100000
2002.146855	-12.500000
2003.855796	19.200000
2005.567831	-17.800000
2007.274356	9.800000
2008.983974	-3.700000
2010.691524	11.000000
2012.398727	-2.300000
2014.103864	-13.500000
2015.808654	3.600000
2017.514816	-10.900000
2019.217196	-16.000000
2020.920948	-10.200000
2022.622636	12.600000
2024.323980	-29.800000
2026.024978	-0.200000
2027.723916	20.600000
2029.424224	-21.500000
2031.120758	-32.400000
2032.818663	-9.800000
2034.514510	12.300000
2036.213441	-18.900000
2037.906887	-10.200000
2039.601705	7.100000
2041.296179	-4.800000
2042.986885	-12.100000
2044.680675	-3.700000
2046.370698	9.300000
2048.062092	-15.600000
2049.751433	-4.900000
2051.442144	-15.200000
2053.129093	-23.400000
2054.815701	-11.000000
2056.503680	3.700000
2058.187899	-12.800000
2059.873488	-19.700000
2061.558738	-24.200000
2063.241940	-5.000000
2064.926511	-10.000000
2066.605620	-29.500000
2068.289514	-13.200000
2069.967948	1.800000
2071.649458	-7.000000
2073.327218	-0.100000
2075.004640	12.600000
2076.683433	-10.800000
2078.360182	-9.900000
2080.034890	-12.300000
2081.710967	-29.800000
2083.385004	-9.700000
2085.058705	-18.700000
2086.732071	-3.600000
2088.403399	-11.900000
2090.074392	9.400000
2091.745051	-7.500000
2093.415375	-17.100000
2095.085366	-17.400000
2096.753321	6.100000
2098.420943	-10.100000
2100.086531	6.200000
2101.753487	1.700000
2103.418409	-11.900000
2105.083000	-6.800000
2106.745559	5.200000
2108.409486	14.100000
2110.071383	2.500000
2111.732948	5.200000
2113.394183	-2.200000
2115.053388	-9.400000
2116.712264	1.100000
2118.370809	0.600000
2120.029025	-17.000000
2121.683517	-8.200000
2123.341074	26.600000
2124.998302	-39.600000
2126.651808	-21.900000
2128.306682	-24.500000
2129.957838	-9.400000
2131.612055	13.000000
2133.262556	-0.800000
2134.914423	9.000000
2136.560882	-5.200000
2138.212096	9.400000
2139.859596	-10.800000
2141.508463	37.400000
2143.155312	7.500000
2144.801834	5.800000
2146.448031	-6.500000
2148.090520	5.600000
2149.736067	18.900000
2151.377907	-26.100000
2153.022804	-8.100000
2154.663996	25.800000
2156.304864	-23.000000
2157.945409	-4.300000
2159.583941	14.400000
2161.223839	16.400000
2162.860037	7.500000
2164.497601	11.700000
2166.134842	8.800000
2167.770074	-9.300000
2169.404985	1.900000
2171.039574	15.200000
2172.673841	6.200000
2174.304416	19.600000
2175.938041	-10.200000
2177.567975	2.200000
2179.199274	-1.100000
2180.828569	-7.400000
2182.457543	1.500000
2184.086199	30.900000
2185.714535	5.300000
2187.340868	11.200000
2188.966883	-7.500000
2190.590897	33.900000
2192.216275	12.700000
2193.839654	-6.400000
2195.464396	17.400000
2197.085458	6.000000
2198.706203	29.800000
2200.328313	6.900000
2201.948425	0.400000
2203.566540	23.200000
2205.184340	-1.800000
2206.801825	30.400000
2208.418994	-20.300000
2210.035848	12.900000
2211.652387	5.800000
2213.266932	-20.800000
2214.879485	-8.700000
2216.493402	-5.400000
2218.105328	-9.500000
2219.718617	-8.200000
2221.329916	-14.700000
2222.939225	-3.700000
2224.549898	21.200000
2226.158582	-8.000000
2227.766954	-4.500000
2229.373338	16.500000
2230.981086	8.100000
2232.586847	6.100000
2234.192297	-12.000000
2235.795763	25.300000
2237.400591	22.800000
2239.003435	2.800000
2240.604296	1.500000
2242.206520	41.800000
2243.806761	19.300000
2245.408365	2.900000
2247.006317	15.800000
2248.605631	18.500000
2250.202965	2.600000
2251.799991	18.800000
2253.398378	17.900000
2254.993117	-2.900000
2256.585880	-1.500000
2258.180004	5.000000
2259.775490	8.800000
2261.367332	8.100000
2262.958867	25.800000
2264.551763	1.900000
2266.139350	0.900000
2267.731634	8.000000
2269.318610	1.700000
2270.908615	2.600000
2272.493315	26.700000
2274.082709	9.400000
2275.666800	3.200000
2277.252253	-0.200000
2278.835736	20.100000
2280.422246	18.200000
2282.005122	17.200000
2283.587694	23.000000
2285.169963	-6.300000
2286.748603	11.600000
2288.330266	19.800000
2289.908301	8.700000
2291.489359	18.100000
2293.066791	10.200000
2294.642259	2.300000
2296.220748	7.400000
2297.795614	17.000000
2299.370179	19.500000
2300.944444	32.800000
2302.518408	25.600000
2304.092072	-0.800000
2305.665435	15.900000
2307.235180	6.300000
2308.804626	9.500000
2310.377091	30.400000
2311.944280	17.300000
2313.514488	-27.300000
2315.081081	-1.200000
2316.649034	33.600000
2318.215032	18.900000
2319.780731	14.500000
2321.346134	23.800000
2322.909583	16.800000
2324.474390	8.000000
2326.035590	1.900000
2327.599804	21.900000
2329.158757	23.000000
2330.720723	25.300000
2332.280739	18.900000
2333.840459	16.600000
2335.398230	20.400000
2336.955707	35.600000
2338.512888	21.100000
2340.068123	16.500000
2341.623063	14.100000
2343.177710	21.100000
2344.732063	4.100000
2346.286122	40.000000
2347.839887	36.600000
2349.391709	22.400000
2350.941587	24.100000
2352.494473	32.200000
2354.042117	34.900000
2355.592768	26.400000
2357.139829	30.500000
2358.688247	63.500000
2360.236373	56.900000
2361.780912	41.500000
2363.326808	43.800000
2364.870765	18.600000
2366.416080	29.800000
2367.957810	32.800000
2369.500897	10.300000
2371.042049	33.100000
2372.582911	29.300000
2374.123484	34.500000
2375.663768	37.900000
2377.203763	12.000000
2378.740179	38.800000
2380.279597	47.900000
2381.815438	36.700000
2383.352635	62.500000
2384.886258	54.500000
2386.422880	42.800000
2387.957571	28.300000
2389.490333	61.300000
2391.022809	40.300000
2392.553356	48.800000
2394.086901	52.100000
2395.615235	37.200000
2397.144925	48.700000
2398.674330	76.900000
2400.203449	45.100000
2401.732284	40.800000
2403.255913	30.100000
2404.784179	30.900000
2406.307241	30.500000
2407.834937	53.000000
2409.355794	42.600000
2410.881284	52.300000
2412.403213	45.300000
2413.926498	61.000000
2415.447862	59.900000
2416.967306	66.700000
2418.488105	47.000000
2420.006985	63.500000
2421.525583	60.600000
2423.042264	27.000000
2424.560299	61.300000
2426.078053	54.900000
2427.592256	54.000000
2429.106178	45.300000
2430.619821	47.900000
2432.134817	55.000000
2433.646265	75.900000
2435.159068	51.500000
2436.669958	59.000000
2438.180568	40.600000
2439.689267	57.700000
2441.200953	38.300000
2442.709094	53.500000
2444.216958	55.600000
2445.724544	24.900000
2447.228589	31.000000
2448.735620	55.200000
2450.240742	52.400000
2451.745587	53.400000
2453.248525	48.400000
2454.751186	46.500000
2456.253571	65.800000
2457.754051	53.800000
2459.255884	59.900000
2460.755813	55.800000
2462.255466	79.800000
2463.754844	45.200000
2465.252318	47.600000
2466.747892	38.000000
2468.246445	49.400000
2469.741469	69.600000
2471.237847	34.100000
2472.730698	71.800000
2474.224901	47.300000
2475.718831	20.300000
2477.209238	11.500000
2478.702621	43.600000
2480.194107	32.700000
2481.683696	64.400000
2483.173013	29.700000
2484.660435	46.800000
2486.150832	43.000000
2487.637710	30.500000
2489.125940	38.200000
2490.610654	50.400000
2492.095097	45.400000
2493.580892	26.600000
2495.064794	39.200000
2496.550048	52.500000
2498.030168	34.400000
2499.513260	57.800000
2500.994462	33.800000
2502.475395	48.000000
2503.954439	67.100000
2505.433215	53.800000
2506.911721	52.700000
2508.389960	31.600000
2509.867930	74.500000
2511.342396	37.700000
2512.819830	48.000000
2514.293761	50.300000
2515.769043	44.900000
2517.244057	38.900000
2518.715570	29.800000
2520.188434	48.600000
2521.659414	51.800000
2523.131745	38.200000
2524.598963	32.900000
2526.069146	49.200000
2527.537449	57.400000
2529.005487	41.100000
2530.473260	41.200000
2531.940768	66.200000
2533.408011	44.500000
2534.871762	59.200000
2536.336864	47.300000
2537.800087	40.000000
2539.264661	52.900000
2540.725745	59.500000
2542.188179	34.500000
2543.650350	47.400000
2545.109035	44.800000
2546.572292	53.400000
2548.030452	36.800000
2549.489961	45.700000
2550.944377	20.300000
2552.403362	43.700000
2553.860476	57.500000
2555.315719	42.600000
2556.770701	41.100000
2558.223813	48.000000
2559.678274	61.400000
2561.130866	36.800000
2562.583198	39.000000
2564.033662	47.200000
2565.487082	31.200000
2566.935420	22.000000
2568.386714	46.100000
2569.836141	28.700000
2571.282097	34.900000
2572.731007	56.000000
2574.176446	31.100000
2575.623234	32.500000
2577.068158	47.300000
2578.512825	28.700000
2579.958839	26.800000
2581.401386	47.100000
2582.845281	59.700000
2584.285711	28.500000
2585.727489	36.800000
2587.167406	38.300000
2588.608671	35.400000
2590.046475	27.300000
2591.487228	22.800000
2592.922918	35.500000
2594.361558	50.400000
2595.798341	43.600000
2597.233267	53.200000
2598.671142	37.600000
2600.103959	57.300000
2601.538122	45.900000
2602.970432	48.100000
2604.404088	33.900000
2605.835891	43.600000
2607.267441	44.000000
2608.698737	40.100000
2610.128182	48.000000
2611.557374	54.300000
2612.984715	49.000000
2614.413403	30.400000
2615.841838	53.900000
2617.266826	20.100000
2618.693161	32.600000
2620.117647	55.900000
2621.543479	36.500000
2622.965867	25.900000
2624.389601	25.300000
2625.811489	39.300000
2627.233126	21.000000
2628.652918	48.500000
2630.074056	20.800000
2631.494944	18.300000
2632.912394	35.300000
2634.332783	61.300000
2635.749735	43.400000
2637.166439	39.700000
2638.582894	52.300000
2639.999101	61.600000
2641.415059	41.000000
2642.829177	33.700000
2644.243048	51.900000
2645.655079	58.200000
2647.068455	54.800000
2648.478401	38.100000
2649.891282	37.000000
2651.300736	43.200000
2652.709943	46.200000
2654.117314	46.500000
2655.527619	39.000000
2656.936088	23.800000
2658.342722	51.500000
2659.749111	40.000000
2661.153666	34.500000
2662.559565	38.300000
2663.963631	62.200000
2665.367453	57.300000
2666.771030	48.500000
2668.172775	27.200000
2669.575864	21.000000
2670.975536	44.400000
2672.376550	43.700000
2673.774149	31.800000
2675.174678	44.900000
2676.571792	61.600000
2677.970249	41.300000
2679.366878	48.800000
2680.763265	35.600000
2682.159411	64.800000
2683.553730	33.300000
2684.949392	40.100000
2686.341644	49.400000
2687.735240	27.000000
2689.127011	34.200000
2690.520124	41.800000
2691.911414	33.100000
2693.300881	37.200000
2694.690109	32.600000
2696.079096	38.000000
2697.469426	46.600000
2698.854771	38.000000
2700.243040	33.500000
2701.629489	32.100000
2703.015699	18.700000
2704.401671	57.200000
2705.784243	36.100000
2707.168158	31.700000
2708.551835	26.500000
2709.935274	27.900000
2711.315317	33.400000
2712.696702	50.300000
2714.076271	51.700000
2715.457182	20.500000
2716.836278	66.200000
2718.213559	64.900000
2719.592182	35.100000
2720.968992	29.400000
2722.345566	35.500000
2723.721904	38.600000
2725.096430	67.800000
2726.472297	48.300000
2727.844777	30.800000
2729.220174	32.800000
2730.590609	38.700000
2731.962386	42.300000
2733.333929	27.300000
2734.703663	53.300000
2736.074737	39.400000
2737.444004	30.400000
2738.813037	43.700000
2740.180263	50.200000
2741.547257	30.700000
2742.914018	60.200000
2744.280546	72.600000
2745.645269	24.500000
2747.009761	50.100000
2748.374020	38.600000
2749.738048	55.600000
2751.101843	38.000000
2752.462265	64.200000
2753.825598	50.700000
2755.183988	56.600000
2756.545288	35.000000
2757.903217	26.000000
2759.264056	43.800000
2760.623094	60.800000
2761.978764	52.700000
2763.337342	39.300000
2764.692554	43.000000
2766.047536	58.500000
2767.400721	38.700000
2768.756813	67.200000
2770.109541	36.200000
2771.462040	34.300000
2772.814311	31.900000
2774.167921	35.400000
2775.518169	44.600000
2776.866624	13.500000
2778.217983	31.800000
2779.565983	32.900000
2780.915322	23.300000
2782.262868	29.800000
2783.610187	42.700000
2784.957280	35.600000
2786.302582	58.600000
2787.647658	50.700000
2788.992508	44.800000
2790.337131	46.600000
2791.678403	30.700000
2793.021013	42.500000
2794.363397	34.400000
2795.705557	50.000000
2797.044367	32.600000
2798.386076	47.000000
2799.724438	44.500000
2801.064137	37.200000
2802.402050	29.300000
2803.738179	53.200000
2805.074085	70.500000
2806.411327	40.600000
2807.746786	35.000000
2809.082022	23.500000
2810.415476	65.200000
2811.750266	35.600000
2813.081715	22.200000
2814.416060	40.900000
2815.745507	33.600000
2817.076291	41.600000
2818.406853	39.800000
2819.735636	47.600000
2821.065756	50.200000
2822.394096	47.900000
2823.722216	36.000000
2825.048559	49.100000
2826.376237	51.900000
2827.700583	38.400000
2829.026264	51.300000
2830.350170	35.800000
2831.673857	44.700000
2832.998879	63.900000
2834.320572	35.900000
2835.642045	66.700000
2836.963300	39.000000
2838.284336	35.400000
2839.603600	46.600000
2840.924199	47.600000
2842.243026	46.300000
2843.561635	37.700000
2844.878474	48.800000
2846.195095	52.800000
2847.511498	24.500000
2848.826133	43.600000
2850.142102	53.000000
2851.454751	38.900000
2852.768736	65.800000
2854.082504	52.900000
2855.396055	47.000000
2856.707839	66.200000
2858.017858	48.600000
2859.329210	23.500000
2860.637248	45.700000
2861.946621	43.400000
2863.255778	51.100000
2864.564720	18.400000
2865.871899	58.700000
2867.177314	54.500000
2868.484064	61.500000
2869.789051	66.000000
2871.093825	58.700000
2872.396837	48.900000
2873.702731	46.000000
2875.003769	47.500000
2876.306142	48.400000
2877.606755	59.200000
2878.908702	60.200000
2880.210436	42.800000
2881.508865	44.200000
2882.808629	51.100000
2884.106634	32.500000
2885.404428	31.600000
2886.700466	48.300000
2887.997837	44.900000
2889.293452	41.300000
2890.588856	66.800000
2891.884050	49.800000
2893.175945	64.100000
2894.470717	58.900000
2895.762192	70.200000
2897.055001	47.300000
2898.347598	43.100000
2899.636902	31.000000
2900.927538	46.800000
2902.216423	58.800000
2903.506641	27.600000
2904.793567	48.300000
2906.081825	39.800000
2907.368333	34.500000
2908.654634	61.800000
2909.940726	51.600000
2911.225070	45.900000
2912.512286	42.300000
2913.794675	50.400000
2915.078395	46.400000
2916.360370	43.800000
2917.642138	65.700000
2918.922160	46.700000
2920.205052	37.700000
2921.486199	58.400000
2922.764064	35.100000
2924.044798	49.000000
2925.322251	45.000000
2926.599499	52.800000
2927.875004	51.800000
2929.153377	56.700000
2930.426935	50.500000
2931.703361	39.600000
2932.978046	57.300000
2934.250991	42.400000
2935.525266	31.500000
2936.797802	59.100000
2938.070134	60.200000
2939.339193	45.000000
2940.611116	59.700000
2941.881302	57.800000
2943.151285	64.100000
2944.421064	55.900000
2945.689106	43.100000
2946.955413	32.100000
2948.221517	51.900000
2949.488951	60.100000
2950.754651	51.800000
2952.020148	31.100000
2953.285443	51.000000
2954.547473	19.500000
2955.810834	41.200000
2957.073993	68.300000
2958.335419	52.300000
2959.598175	54.200000
2960.859200	49.800000
2962.118494	52.900000
2963.377587	40.300000
2964.636480	49.600000
2965.895173	50.000000
2967.153666	34.300000
2968.410430	30.600000
2969.666994	47.800000
2970.921831	59.100000
2972.177997	67.800000
2973.430907	38.700000
2974.685147	44.400000
2975.939188	59.000000
2977.191503	64.200000
2978.443620	55.100000
2979.694012	48.000000
2980.947259	51.100000
2982.195729	41.100000
2983.447053	33.900000
2984.695129	67.100000
2985.943007	46.600000
2987.190688	42.000000
2988.438173	36.300000
2989.683936	63.400000
2990.929502	59.700000
2992.176397	63.000000
2993.420046	43.900000
2994.665024	42.600000
2995.906759	48.600000
2997.151345	47.000000
2998.394211	46.400000
2999.633837	84.600000
3000.876314	30.300000
3002.115550	52.900000
3003.356114	58.800000
3004.594961	28.700000
3005.833614	49.900000
3007.070551	44.000000
3008.308815	61.300000
3009.545365	59.000000
3010.781720	55.300000
3012.017882	54.400000
3013.252331	55.700000
3014.486586	62.700000
3015.720648	55.200000
3016.952998	36.200000
3018.183636	54.100000
3019.417120	52.300000
3020.648892	63.300000
3021.878954	50.300000
3023.108824	61.400000
3024.336984	59.900000
3025.566470	62.600000
3026.794248	55.800000
3028.021834	52.900000
3029.250746	70.700000
3030.474916	70.200000
3031.701929	65.200000
3032.925719	47.600000
3034.150834	65.000000
3035.374243	51.800000
3036.597463	68.900000
3037.818977	64.900000
3039.043332	60.100000
3040.262952	33.700000
3041.483897	61.800000
3042.704654	56.400000
3043.923707	82.300000
3045.144086	64.200000
3046.361248	50.300000
3047.579735	51.300000
3048.796521	40.200000
3050.013118	46.100000
3051.229528	71.200000
3052.442724	68.500000
3053.658758	50.000000
3054.871580	57.800000
3056.087239	52.900000
3057.298175	41.400000
3058.510436	56.100000
3059.722511	57.500000
3060.934399	57.400000
3062.144589	67.200000
3063.354593	38.300000
3064.564412	73.900000
3065.772534	60.300000
3066.980470	68.200000
3068.186712	45.100000
3069.394277	72.500000
3070.600149	62.950000
3071.805835	53.400000
3073.011336	52.900000
3074.215145	62.000000
3075.420277	56.800000
3076.623716	51.600000
3077.825463	65.100000
3079.027027	53.300000
3080.228407	52.900000
3081.429603	44.000000
3082.629109	47.400000
3083.828431	50.800000
3085.029077	66.100000
3086.228034	76.000000
3087.423795	67.800000
3088.622386	54.700000
3089.817783	84.600000
3091.014503	56.300000
3092.208031	49.900000
3093.404388	56.100000
3094.599057	65.800000
3095.790536	72.000000
3096.986346	60.200000
3098.177463	63.900000
3099.369902	43.600000
3100.559154	60.400000
3101.751232	57.600000
3102.941625	57.300000
3104.128833	58.700000
3105.317364	78.500000
3106.507217	62.300000
3107.693885	67.700000
3108.880374	32.300000
3110.066683	75.900000
3111.254314	55.300000
3112.438764	57.800000
3113.621533	81.000000
3114.807126	50.600000
3115.991038	53.600000
3117.173272	66.900000
3118.355328	52.200000
3119.537205	54.700000
3120.718904	77.900000
3121.898925	44.700000
3123.077270	58.300000
3124.258436	73.900000
3125.436426	60.400000
3126.614239	66.000000
3127.791875	80.300000
3128.967836	69.500000
3130.143621	70.700000
3131.320726	68.100000
3132.496157	51.200000
3133.669915	63.200000
3134.842001	62.600000
3136.015407	61.600000
3137.188638	43.800000
3138.360196	62.300000
3139.533076	79.100000
3140.702788	43.300000
3141.873821	62.400000
3143.043183	59.500000
3144.210876	69.400000
3145.381384	70.900000
3146.547233	68.600000
3147.717392	53.300000
3148.882893	62.800000
3150.048221	63.000000
3151.213375	76.300000
3152.378355	63.100000
3153.544656	59.400000
3154.706303	61.100000
3155.869271	44.900000
3157.032065	62.800000
3158.194687	65.900000
3159.355644	78.300000
3160.516428	77.700000
3161.677040	59.200000
3162.835989	45.400000
3163.994765	64.100000
3165.153370	54.700000
3166.311803	47.100000
3167.470064	58.100000
3168.626663	73.400000
3169.781601	55.100000
3170.937858	63.700000
3172.092455	65.100000
3173.246880	77.900000
3174.399646	45.500000
3175.552242	63.800000
3176.704667	49.400000
3177.856923	80.500000
3179.009009	63.600000
3180.157948	75.400000
3181.309694	42.800000
3182.459783	59.000000
3183.608214	46.600000
3184.756477	48.200000
3185.904570	52.900000
3187.052495	63.300000
3188.198765	75.900000
3189.344866	48.200000
3190.489312	60.300000
3191.633591	58.900000
3192.777702	61.600000
3193.923131	54.900000
3195.065421	73.000000
3196.207543	80.200000
3197.349499	67.900000
3198.491287	79.000000
3199.632908	71.600000
3200.771393	84.300000
3201.911196	74.900000
3203.052317	51.000000
3204.190303	78.000000
3205.326640	85.000000
3206.462811	81.700000
3207.600300	62.000000
3208.736140	70.400000
3209.873296	49.000000
3211.005840	54.100000
3212.142666	80.900000
3213.274880	57.300000
3214.408412	63.900000
3215.541778	54.600000
3216.672017	84.400000
3217.805054	59.000000
3218.934965	62.200000
3220.066193	59.700000
3221.194295	70.400000
3222.325194	73.600000
3223.454450	74.200000
3224.582061	77.600000
3225.706551	82.200000
3226.835316	54.700000
3227.960959	56.200000
3229.086439	64.100000
3230.210278	73.900000
3231.336911	57.900000
3232.458947	88.000000
3233.582299	67.000000
3234.705489	64.900000
3235.828517	79.500000
3236.949905	60.100000
3238.071132	77.300000
3239.190720	64.200000
3240.310147	64.700000
3241.427936	71.300000
3242.548518	59.700000
3243.665985	75.400000
3244.783293	62.300000
3245.900439	69.800000
3247.015950	82.600000
3248.132776	79.900000
3249.246491	54.000000
3250.362997	68.200000
3251.477867	81.100000
3252.589629	76.000000
3253.701232	83.100000
3254.814149	69.800000
3255.926908	80.300000
3257.036560	57.500000
3258.147527	89.900000
3259.258335	65.800000
3260.367511	77.300000
3261.475056	72.700000
3262.583916	86.000000
3263.692617	73.300000
3264.798216	63.600000
3265.905130	71.600000
3267.010414	77.500000
3268.117012	62.700000
3269.220510	78.200000
3270.325322	69.100000
3271.429977	71.400000
3272.531533	79.600000
3273.632934	83.200000
3274.735648	67.800000
3275.838205	84.600000
3276.937667	60.800000
3278.039911	58.300000
3279.139061	68.300000
3280.236585	77.300000
3281.333954	69.200000
3282.434106	65.500000
3283.531164	73.900000
3284.628067	66.000000
3285.724816	58.000000
3286.817005	74.400000
3287.913444	61.400000
3289.008260	70.500000
3290.102921	70.000000
3291.195961	76.800000
3292.288847	96.700000
3293.380112	72.000000
3294.472690	59.200000
3295.563647	59.500000
3296.652986	70.600000
3297.742170	63.700000
3298.832668	80.600000
3299.920081	66.800000
3301.007342	81.000000
3302.095915	87.900000
3303.184335	72.900000
3304.268208	57.100000
3305.356323	74.100000
3306.441357	63.800000
3307.524775	72.000000
3308.609504	67.000000
3309.692619	77.700000
3310.777045	100.100000
3311.858393	74.000000
3312.941053	78.500000
3314.022099	73.200000
3315.102994	73.400000
3316.182276	79.200000
3317.261407	71.400000
3318.341849	81.800000
3319.419218	48.000000
3320.497898	65.400000
3321.574966	61.500000
3322.651884	87.900000
3323.727191	78.000000
3324.802349	64.500000
3325.878819	81.500000
3326.952217	92.100000
3328.025467	87.100000
3329.100028	74.400000
3330.172979	71.900000
3331.244323	86.100000
3332.316977	67.700000
3333.386564	68.700000
3334.457462	65.900000
3335.526753	84.000000
3336.597355	90.200000
3337.666350	58.700000
3338.733739	76.200000
3339.799523	106.300000
3340.869533	71.800000
3341.936480	111.000000
3343.000365	56.800000
3344.067018	83.000000
3345.132066	87.500000
3346.195512	77.700000
3347.258810	75.600000
3348.321963	69.000000
3349.384969	78.200000
3350.447828	84.300000
3351.509086	75.200000
3352.567287	65.300000
3353.629709	76.800000
3354.689074	87.200000
3355.748294	72.500000
3356.808824	65.000000
3357.864844	81.400000
3358.923629	75.500000
3359.977906	80.100000
3361.034946	58.400000
3362.090389	65.400000
3363.147140	91.300000
3364.202294	76.700000
3365.255850	78.800000
3366.307809	73.900000
3367.362530	76.600000
3368.414202	92.300000
3369.465731	87.500000
3370.518569	82.400000
3371.568359	78.900000
3372.619457	84.700000
3373.667510	79.100000
3374.718323	72.800000
3375.766090	102.900000
3376.813715	74.900000
3377.861197	68.800000
3378.907087	79.600000
3379.954285	68.400000
3380.998441	85.000000
3382.045355	90.000000
3383.090677	72.900000
3384.132959	92.800000
3385.175099	86.700000
3386.218547	69.000000
3387.261855	89.100000
3388.303572	90.000000
3389.345148	94.200000
3390.386584	73.300000
3391.426430	72.500000
3392.464689	63.600000
3393.504255	93.400000
3394.543680	81.000000
3395.581519	86.200000
3396.617770	89.500000
3397.653881	70.300000
3398.691300	62.800000
3399.725686	66.400000
3400.761379	76.800000
3401.796933	75.700000
3402.829456	90.300000
3403.864732	98.000000
3404.896977	80.600000
3405.929084	91.100000
3406.959607	94.400000
3407.991438	93.500000
3409.023129	71.300000
3410.051794	87.500000
3411.080320	94.300000
3412.110154	74.800000
3413.139849	80.600000
3414.166519	100.100000
3415.194496	86.800000
3416.219448	80.300000
3417.247150	86.300000
3418.271829	83.400000
3419.297814	104.500000
3420.322219	69.500000
3421.346488	97.000000
3422.369178	75.300000
3423.391732	80.300000
3424.415592	79.300000
3425.436432	87.100000
3426.457137	71.600000
3427.479147	93.100000
3428.498139	76.800000
3429.516996	73.600000
3430.537158	86.700000
3431.554304	80.000000
