-117.702309	11.000000
-115.032709	16.400000
-112.366044	19.650000
-109.700131	26.800000
-107.037150	22.700000
-104.372740	13.350000
-101.711260	14.000000
-99.048350	10.000000
-96.390548	11.050000
-93.731315	13.400000
-91.072831	10.800000
-88.417272	22.700000
-85.760284	14.000000
-83.108393	15.500000
-80.455073	18.200000
-77.804673	21.850000
-75.152843	29.650000
-72.506104	16.950000
-69.857935	18.950000
-67.210510	20.050000
-64.565998	14.350000
-61.920058	20.950000
-59.279199	24.900000
-56.636911	20.400000
-53.997531	16.850000
-51.356723	20.000000
-48.716655	13.000000
-46.081659	16.000000
-43.445234	20.800000
-40.811713	6.800000
-38.176763	13.800000
-35.546878	26.200000
-32.913401	16.800000
-30.284986	12.450000
-27.657304	24.600000
-25.028195	29.800000
-22.404142	18.500000
-19.776500	13.650000
-17.153911	20.050000
-14.532053	22.650000
-11.910927	31.800000
-9.290530	40.900000
-6.673021	101.000000
-4.054084	292.700000
-1.438033	598.850000
1.177290	587.450000
3.791886	255.800000
6.403599	36.000000
9.016741	22.300000
11.624849	16.750000
14.236539	23.500000
16.843198	31.900000
19.451285	24.800000
22.058648	24.600000
24.660986	22.900000
27.266902	35.650000
29.867796	27.200000
32.470119	26.000000
35.067423	22.550000
37.668303	22.450000
40.264169	18.850000
42.861462	15.450000
45.458036	28.450000
48.049601	26.650000
50.642594	34.850000
53.232726	33.700000
55.824286	22.350000
58.412986	39.450000
61.003113	29.300000
63.588242	23.450000
66.174798	33.950000
68.760639	27.250000
71.343627	28.100000
73.928042	27.900000
76.505327	32.550000
79.086179	35.500000
81.664182	37.800000
84.241475	41.150000
86.820194	29.700000
89.393932	46.900000
91.969096	40.700000
94.541417	33.450000
97.113030	50.950000
99.681804	53.200000
102.252004	45.800000
104.819365	49.200000
107.388153	47.700000
109.954103	65.150000
112.517219	78.400000
115.083891	98.500000
117.641342	114.400000
120.204478	158.300000
122.762655	220.800000
125.324385	305.950000
127.881160	439.450000
130.439360	662.150000
132.992608	979.100000
135.545157	1426.000000
138.101257	1988.900000
140.652410	2616.300000
143.202864	3309.300000
145.752622	3858.000000
148.299560	4283.350000
150.845802	4525.350000
153.393471	4717.250000
155.940443	4796.700000
158.482479	4824.450000
161.023822	4797.550000
163.564473	4815.900000
166.106548	4823.850000
168.645813	4858.900000
171.182268	4826.300000
173.718033	4826.650000
176.255223	4788.500000
178.791721	4801.500000
181.325414	4798.250000
183.856304	4801.050000
186.386505	4773.950000
188.918131	4754.550000
191.446956	4753.350000
193.972982	4770.950000
196.498323	4774.000000
199.025088	4757.100000
201.549056	4750.700000
204.072340	4746.950000
206.594939	4720.750000
209.114745	4777.750000
211.633868	4759.150000
214.152308	4712.600000
216.672172	4732.600000
219.185035	4727.400000
221.701429	4767.300000
224.217141	4757.450000
226.727964	4743.900000
229.240211	4742.400000
231.749675	4714.800000
234.258461	4711.400000
236.766569	4755.200000
239.276100	4734.050000
241.780752	4742.150000
244.284727	4726.300000
246.790126	4741.500000
249.290650	4757.000000
251.794697	4781.950000
254.291774	4722.950000
256.792373	4763.850000
259.290201	4781.450000
261.787356	4779.450000
264.283838	4780.350000
266.775458	4782.100000
269.270596	4800.550000
271.762969	4735.250000
274.254671	4773.050000
276.743610	4754.400000
279.233972	4732.050000
281.721573	4683.700000
284.206414	4720.500000
286.694769	4624.850000
289.176185	4632.500000
291.661115	4643.400000
294.141200	4629.950000
296.624797	4596.350000
299.103551	4635.100000
301.583729	4600.050000
304.061154	4578.450000
306.537916	4560.750000
309.014015	4554.350000
311.487365	4530.350000
313.960053	4535.700000
316.432080	4561.700000
318.903446	4560.700000
321.372068	4562.750000
323.840030	4634.700000
326.309415	4576.800000
328.773977	4544.450000
331.242042	4591.450000
333.705288	4562.300000
336.167877	4604.450000
338.629808	4557.200000
341.091083	4596.800000
343.549624	4609.600000
346.009587	4599.900000
348.466818	4593.200000
350.923393	4570.250000
353.379315	4534.400000
355.832508	4592.100000
358.287122	4495.000000
360.736935	4555.250000
363.190245	4567.500000
365.638755	4521.200000
368.086615	4522.450000
370.535896	4517.250000
372.980384	4477.650000
375.426294	4472.650000
377.871555	4496.800000
380.314097	4485.800000
382.755991	4479.600000
385.197237	4492.150000
387.635768	4478.400000
390.075721	4454.400000
392.512960	4474.550000
394.947487	4432.300000
397.385502	4502.450000
399.818740	4517.200000
402.253400	4447.600000
404.683286	4506.850000
407.116658	4520.000000
409.545260	4513.000000
411.973221	4497.350000
414.402602	4529.350000
416.827218	4554.200000
419.253256	4506.800000
421.678653	4495.700000
424.103410	4520.550000
426.523409	4476.550000
428.944829	4540.000000
431.363552	4570.050000
433.783696	4546.450000
436.201145	4572.950000
438.620014	4524.250000
441.036190	4542.400000
443.447619	4485.800000
445.862524	4542.400000
448.274739	4519.000000
450.686320	4528.150000
453.097267	4544.050000
455.505528	4531.800000
457.913156	4506.700000
460.320153	4537.400000
462.726517	4528.700000
465.130199	4533.700000
467.533251	4524.950000
469.935673	4511.500000
472.337466	4535.850000
474.736580	4529.550000
477.137114	4595.150000
479.537019	4568.750000
481.932201	4574.400000
484.330850	4568.900000
486.724779	4566.700000
489.118082	4582.850000
491.510759	4530.600000
493.902811	4542.450000
496.296282	4488.050000
498.685040	4537.750000
501.071132	4547.500000
503.458644	4532.650000
505.845532	4551.350000
508.229757	4573.600000
510.615401	4624.150000
512.998382	4591.150000
515.378703	4593.500000
517.760443	4624.200000
520.139524	4566.050000
522.520024	4620.400000
524.897866	4547.950000
527.273053	4573.000000
529.647622	4541.050000
532.023610	4583.800000
534.396944	4554.950000
536.771697	4534.650000
539.141763	4562.850000
541.511214	4590.050000
543.882083	4585.700000
546.248272	4554.950000
548.615879	4627.200000
550.980840	4566.750000
553.345188	4576.750000
555.708924	4600.600000
558.074077	4581.300000
560.434557	4607.700000
562.796456	4596.900000
565.155715	4609.500000
567.512335	4570.300000
569.872400	4611.650000
572.225775	4574.400000
574.582594	4629.800000
576.936777	4553.250000
579.290353	4568.850000
581.643320	4592.050000
583.993656	4572.250000
586.345408	4579.850000
588.690484	4607.300000
591.041024	4544.150000
593.384891	4613.400000
595.734218	4639.650000
598.078898	4596.000000
600.420953	4603.650000
602.764424	4549.650000
605.105273	4591.600000
607.445520	4581.900000
609.783146	4589.050000
612.124207	4529.650000
614.460631	4571.700000
616.798471	4553.500000
619.133693	4537.000000
621.466300	4562.450000
623.800323	4551.900000
626.131733	4558.500000
628.462544	4573.900000
630.792757	4570.850000
633.122372	4574.350000
635.447365	4529.300000
637.777799	4535.400000
640.103611	4562.950000
642.426817	4592.700000
644.751438	4559.350000
647.073455	4563.050000
649.394877	4601.050000
651.713696	4574.450000
654.033931	4587.500000
656.353573	4610.100000
658.670614	4620.450000
660.987064	4600.200000
663.300915	4600.150000
665.616181	4605.900000
667.928851	4628.750000
670.242936	4578.050000
672.552421	4639.250000
674.863322	4684.500000
677.171630	4672.400000
679.479350	4636.650000
681.788485	4670.850000
684.093027	4655.350000
686.396983	4643.100000
688.700352	4693.750000
691.005136	4665.400000
693.305334	4689.200000
695.606946	4675.150000
697.907974	4632.400000
700.204419	4672.150000
702.502280	4714.400000
704.799557	4672.350000
707.096251	4628.950000
709.388369	4658.200000
711.683898	4661.400000
713.974854	4739.450000
716.267224	4675.350000
718.557018	4662.350000
720.846233	4689.000000
723.134867	4677.550000
725.420930	4723.850000
727.708406	4731.150000
729.993312	4722.100000
732.277639	4735.950000
734.559398	4728.850000
736.842572	4683.250000
739.125167	4762.000000
741.403208	4762.350000
743.682662	4756.100000
745.961541	4790.100000
748.239844	4805.200000
750.513598	4847.850000
752.788766	4812.550000
755.063360	4852.350000
757.335395	4833.300000
759.608842	4868.500000
761.879732	4866.150000
764.148066	4904.800000
766.417813	4935.150000
768.685006	4902.550000
770.951628	4948.050000
773.217681	4930.200000
775.481181	4928.700000
777.746095	4913.650000
780.010439	4987.650000
782.270254	4977.200000
784.531482	4992.700000
786.792142	5035.850000
789.050255	5066.950000
791.305824	5106.600000
793.564784	5208.850000
795.817245	5244.000000
798.075073	5286.850000
800.328381	5324.550000
802.579150	5367.450000
804.831331	5340.250000
807.080974	5368.150000
809.332028	5408.650000
811.578571	5415.400000
813.826527	5460.200000
816.071947	5418.650000
818.318779	5329.800000
820.565050	5306.850000
822.806817	5312.150000
825.051966	5328.450000
827.290643	5382.600000
829.532703	5404.750000
831.770264	5368.000000
834.009236	5435.750000
836.245682	5455.500000
838.483540	5533.050000
840.718872	5410.700000
842.951680	5367.300000
845.185900	5299.650000
847.417598	5188.050000
849.648741	5165.100000
851.879329	5093.850000
854.109363	5121.900000
856.338842	5104.100000
858.563840	5105.600000
860.792213	5112.050000
863.016107	5092.950000
865.241411	5117.000000
867.462240	5173.800000
869.686441	5176.850000
871.906169	5197.600000
874.127308	5246.550000
876.347896	5298.450000
878.565974	5320.500000
880.785463	5359.250000
883.000485	5324.650000
885.214959	5272.650000
887.428886	5231.950000
889.642265	5212.450000
891.855097	5136.500000
894.067383	5096.800000
896.277167	5122.850000
898.486405	5041.200000
900.695097	5049.600000
902.901291	5005.250000
905.108894	5007.500000
907.314000	4939.350000
909.518562	5008.150000
911.720628	5009.950000
913.924104	4958.400000
916.125086	5016.550000
918.325527	4983.900000
920.527376	5012.700000
922.722833	5025.950000
924.921650	5045.500000
927.116029	5055.300000
929.313764	5015.000000
931.507064	5043.100000
933.701773	5053.150000
935.893996	5028.500000
938.085681	5094.100000
940.276828	5120.850000
942.465492	5094.350000
944.653619	5118.400000
946.839266	5099.000000
949.028265	5157.000000
951.212841	5131.300000
953.396882	5171.700000
955.584273	5148.350000
957.763361	5209.000000
959.945798	5212.750000
962.127702	5223.550000
964.307132	5275.000000
966.484089	5288.250000
968.662454	5302.300000
970.842225	5346.800000
973.015648	5339.400000
975.192417	5339.100000
977.364780	5351.750000
979.538549	5354.500000
981.707915	5370.750000
983.880626	5366.700000
986.050870	5387.200000
988.220586	5326.600000
990.389773	5331.650000
992.554563	5319.200000
994.722694	5320.850000
996.886431	5341.350000
999.051574	5364.700000
1001.214259	5324.000000
1003.376417	5338.450000
1005.536119	5387.400000
1007.695297	5320.150000
1009.855881	5361.700000
1012.014010	5295.200000
1014.171615	5314.500000
1016.328697	5298.550000
1018.485256	5271.000000
1020.637435	5289.350000
1022.791020	5267.900000
1024.944084	5257.050000
1027.094700	5238.400000
1029.246721	5281.850000
1031.394369	5311.850000
1033.545349	5307.200000
1035.691958	5283.050000
1037.838049	5297.450000
1039.983620	5256.300000
1042.130597	5284.350000
1044.271286	5269.500000
1046.415303	5228.200000
1048.556880	5279.550000
1050.697941	5288.900000
1052.840406	5244.100000
1054.976592	5258.650000
1057.116104	5226.750000
1059.251260	5199.900000
1061.389741	5211.750000
1063.523869	5226.050000
1065.657482	5222.600000
1067.792501	5161.750000
1069.923170	5229.250000
1072.055244	5195.950000
1074.184889	5256.650000
1076.314022	5259.250000
1078.442643	5229.300000
1080.570753	5236.300000
1082.696437	5247.100000
1084.821611	5208.500000
1086.948189	5233.400000
1089.070430	5239.600000
1091.194074	5176.050000
1093.313385	5181.000000
1095.437924	5119.000000
1097.556218	5167.500000
1099.675917	5165.300000
1101.793197	5188.000000
1103.909971	5182.050000
1106.026238	5188.100000
1108.140090	5155.900000
1110.255345	5108.300000
1112.366278	5156.900000
1114.480522	5072.100000
1116.590446	5137.600000
1118.701774	5100.750000
1120.812597	5103.200000
1122.919105	5051.300000
1125.028921	5072.450000
1127.134423	5079.250000
1129.241328	5056.950000
1131.342018	5049.000000
1133.447920	5062.900000
1135.549513	5051.300000
1137.652509	5039.650000
1139.755004	5000.400000
1141.851293	5006.500000
1143.952788	5017.550000
1146.049981	5018.800000
1148.146675	5013.400000
1150.242872	4983.450000
1152.338570	5019.500000
1154.433771	4972.000000
1156.526575	4964.850000
1158.620781	5052.500000
1160.708796	4992.300000
1162.802009	5009.700000
1164.889034	5033.450000
1166.979359	5031.700000
1169.065395	5034.500000
1171.154729	5046.200000
1173.237882	5042.150000
1175.322438	5081.250000
1177.408394	4983.550000
1179.490069	5051.550000
1181.573146	5019.750000
1183.653837	5006.550000
1185.734036	5018.000000
1187.813744	4978.100000
1189.892961	4955.400000
1191.969796	4965.000000
1194.044250	4976.000000
1196.121996	4946.100000
1198.195471	4903.400000
1200.270347	4947.400000
1202.340956	4950.600000
1204.412967	4928.000000
1206.482601	4958.700000
1208.553636	4861.650000
1210.624183	4938.850000
1212.690469	4930.300000
1214.758156	4877.800000
1216.823471	4885.250000
1218.890186	4867.450000
1220.952645	4915.550000
1223.018389	4895.350000
1225.079880	4904.100000
1227.142770	4874.800000
1229.203293	4835.500000
1231.263333	4783.450000
1233.322889	4838.350000
1235.380080	4853.350000
1237.436790	4860.900000
1239.491137	4856.800000
1241.548764	4793.700000
1243.604029	4853.500000
1245.655053	4793.900000
1247.707477	4816.400000
1249.759421	4837.100000
1251.809007	4812.500000
1253.858114	4852.250000
1255.906743	4845.550000
1257.954893	4818.900000
1260.002565	4841.750000
1262.046006	4867.900000
1264.092722	4796.450000
1266.137086	4802.350000
1268.180972	4813.000000
1270.222508	4855.450000
1272.261694	4799.450000
1274.304152	4830.650000
1276.342388	4815.050000
1278.382023	4767.850000
1280.421183	4800.950000
1282.456125	4778.650000
1284.492465	4728.950000
1286.526460	4740.150000
1288.561854	4734.000000
1290.593034	4720.000000
1292.625613	4765.100000
1294.657719	4723.400000
1296.687485	4690.400000
1298.718649	4706.750000
1300.745605	4724.550000
1302.773959	4717.700000
1304.798109	4762.300000
1306.825523	4700.750000
1308.848736	4721.550000
1310.873345	4681.800000
1312.895621	4699.100000
1314.919294	4687.100000
1316.940634	4650.800000
1318.961506	4678.650000
1320.981912	4648.700000
1322.998123	4659.500000
1325.015733	4617.900000
1327.031014	4607.200000
1329.049553	4616.900000
1331.063904	4613.400000
1333.075929	4598.850000
1335.091211	4562.150000
1337.102308	4524.350000
1339.114802	4533.000000
1341.123113	4525.100000
1343.134680	4498.250000
1345.140207	4463.550000
1347.148990	4428.300000
1349.153595	4410.550000
1351.161454	4445.100000
1353.168851	4442.850000
1355.170217	4409.400000
1357.172980	4415.050000
1359.175282	4448.450000
1361.177125	4374.500000
1363.178508	4365.650000
1365.177578	4375.300000
1367.176189	4317.500000
1369.174342	4345.050000
1371.172037	4317.400000
1373.165568	4255.700000
1375.160496	4284.500000
1377.154967	4290.550000
1379.148981	4292.550000
1381.140688	4305.150000
1383.131939	4267.350000
1385.120885	4268.350000
1387.111226	4239.500000
1389.101112	4208.350000
1391.088695	4254.900000
1393.075824	4261.000000
1395.060651	4266.550000
1397.046872	4188.250000
1399.030794	4230.650000
1401.014263	4253.550000
1402.997280	4217.100000
1404.977999	4231.900000
1406.960112	4178.100000
1408.939928	4204.350000
1410.919294	4180.800000
1412.894520	4224.000000
1414.872986	4242.300000
1416.849158	4177.600000
1418.824880	4231.050000
1420.800153	4204.950000
1422.773135	4263.850000
1424.745669	4290.450000
1426.717756	4307.300000
1428.689394	4463.800000
1430.656904	4467.150000
1432.629489	4502.700000
1434.594267	4417.550000
1436.564118	4323.800000
1438.529844	4262.700000
1440.496964	4239.350000
1442.461799	4196.050000
1444.422516	4134.400000
1446.388300	4104.550000
1448.348129	4112.450000
1450.309351	4096.350000
1452.271966	4071.950000
1454.230466	4083.600000
1456.188524	4055.900000
1458.146139	4093.850000
1460.103313	4043.000000
1462.058211	4085.850000
1464.014501	4042.650000
1465.968517	4051.350000
1467.922093	4042.800000
1469.873396	4018.250000
1471.826091	4034.750000
1473.776515	4001.000000
1475.726500	3996.500000
1477.676045	4029.850000
1479.623322	3967.150000
1481.568332	3938.000000
1483.514733	3918.800000
1485.460698	3961.550000
1487.406224	3989.700000
1489.349486	3925.800000
1491.292311	3919.700000
1493.232873	3908.150000
1495.174826	3936.100000
1497.114518	3921.850000
1499.053774	3923.950000
1500.992595	3917.800000
1502.929157	3867.400000
1504.867110	3921.850000
1506.802805	3881.300000
1508.738066	3873.650000
1510.671070	3848.250000
1512.603642	3848.500000
1514.535782	3885.500000
1516.467490	3843.700000
1518.396944	3846.550000
1520.327789	3846.500000
1522.258203	3826.450000
1524.184543	3803.000000
1526.112275	3849.550000
1528.037756	3806.000000
1529.962808	3780.800000
1531.887431	3817.400000
1533.811625	3783.550000
1535.733572	3774.550000
1537.656908	3737.900000
1539.577999	3778.150000
1541.496845	3783.800000
1543.417081	3790.200000
1545.335073	3767.450000
1547.252639	3758.400000
1549.167963	3766.000000
1551.084677	3744.250000
1552.997336	3745.100000
1554.913199	3760.300000
1556.826822	3721.950000
1558.738208	3706.450000
1560.650982	3685.150000
1562.559707	3681.800000
1564.469822	3675.350000
1566.379513	3637.350000
1568.288780	3715.850000
1570.195814	3645.650000
1572.100615	3642.000000
1574.006805	3660.650000
1575.910763	3635.550000
1577.814301	3641.550000
1579.717417	3644.800000
1581.618305	3626.200000
1583.520580	3601.250000
1585.420628	3600.200000
1587.322064	3613.900000
1589.219465	3600.100000
1591.116448	3615.300000
1593.013013	3540.700000
1594.910966	3599.900000
1596.803084	3569.300000
1598.698395	3526.300000
1600.593289	3558.150000
1602.485961	3535.150000
1604.378217	3535.250000
1606.268253	3497.100000
1608.157873	3497.300000
1610.047078	3479.050000
1611.935867	3497.300000
1613.822440	3509.750000
1615.710399	3513.900000
1617.594342	3469.400000
1619.479673	3519.650000
1621.364589	3496.950000
1623.247293	3462.950000
1625.131382	3473.500000
1627.011461	3453.000000
1628.892926	3455.900000
1630.772181	3453.550000
1632.652822	3436.000000
1634.527659	3463.300000
1636.407478	3443.500000
1638.283291	3452.300000
1640.158694	3437.900000
1642.035484	3457.050000
1643.906476	3424.150000
1645.780650	3406.950000
1647.650826	3380.050000
1649.524182	3418.750000
1651.395335	3446.500000
1653.264286	3374.900000
1655.134623	3390.550000
1657.000966	3370.350000
1658.868695	3348.200000
1660.734226	3370.600000
1662.601141	3366.350000
1664.464068	3342.950000
1666.328380	3318.750000
1668.190496	3316.650000
1670.052208	3323.650000
1671.915304	3292.450000
1673.776206	3324.200000
1675.634914	3276.000000
1677.493219	3260.050000
1679.352909	3296.700000
1681.206832	3236.600000
1683.063927	3266.050000
1684.920620	3289.150000
1686.773337	3277.850000
1688.629225	3266.200000
1690.481138	3259.100000
1692.332651	3231.750000
1694.183763	3219.850000
1696.034475	3218.000000
1697.884786	3228.250000
1699.732913	3243.100000
1701.582423	3181.750000
1703.426185	3131.200000
1705.274897	3169.250000
1707.117862	3194.150000
1708.963993	3182.800000
1710.806163	3147.300000
1712.651497	3150.000000
1714.491091	3144.950000
1716.332069	3134.150000
1718.174430	3164.500000
1720.012835	3145.800000
1721.852623	3135.400000
1723.690236	3142.100000
1725.527453	3117.550000
1727.362497	3112.150000
1729.198924	3077.250000
1731.033179	3035.950000
1732.867039	3033.000000
1734.700506	3044.350000
1736.530026	3047.400000
1738.362705	3025.100000
1740.191440	3055.750000
1742.023333	3031.850000
1743.851283	3036.850000
1745.678841	2980.850000
1747.506007	2986.900000
1749.332782	2990.400000
1751.159166	2964.750000
1752.981613	2984.150000
1754.807214	2966.450000
1756.628881	2976.250000
1758.451930	2932.300000
1760.272818	2944.850000
1762.093316	2938.350000
1763.915196	2936.700000
1765.731376	2930.650000
1767.550708	2909.450000
1769.366113	2903.650000
1771.184668	2905.700000
1772.999298	2889.250000
1774.813542	2891.600000
1776.627398	2881.250000
1778.440868	2938.200000
1780.252185	2874.400000
1782.064883	2903.750000
1783.877194	2899.750000
1785.685588	2863.100000
1787.495363	2870.750000
1789.301222	2865.950000
1791.110228	2881.200000
1792.915319	2852.850000
1794.721792	2854.950000
1796.527881	2864.800000
1798.330060	2867.750000
1800.135382	2875.300000
1801.936796	2857.600000
1803.739590	2882.000000
1805.538478	2856.700000
1807.338747	2830.600000
1809.138634	2846.350000
1810.936380	2847.350000
1812.733745	2839.800000
1814.530729	2848.850000
1816.327333	2841.850000
1818.121798	2843.550000
1819.917642	2825.600000
1821.707832	2811.600000
1823.502918	2822.550000
1825.292351	2833.600000
1827.084921	2774.400000
1828.875356	2811.800000
1830.663657	2798.700000
1832.455093	2784.400000
1834.240883	2789.600000
1836.028053	2806.500000
1837.813091	2750.700000
1839.601263	2758.150000
1841.385549	2779.800000
1843.167706	2739.250000
1844.951241	2727.800000
1846.732648	2760.300000
1848.515434	2762.650000
1850.294340	2742.550000
1852.074624	2741.600000
1853.852782	2751.400000
1855.632319	2709.600000
1857.409731	2743.350000
1859.185019	2718.950000
1860.961686	2701.850000
1862.736230	2688.600000
1864.512151	2733.600000
1866.282453	2714.200000
1868.055881	2684.950000
1869.827190	2692.200000
1871.598129	2687.600000
1873.370444	2672.900000
1875.137147	2673.700000
1876.906974	2663.700000
1878.672938	2679.650000
1880.442026	2712.300000
1882.207252	2671.450000
1883.972109	2640.750000
1885.738344	2671.500000
1887.500720	2684.500000
1889.262729	2650.550000
1891.024370	2663.200000
1892.785645	2635.050000
1894.546552	2649.950000
1896.307093	2630.050000
1898.065524	2634.350000
1899.823590	2638.450000
1901.579547	2618.350000
1903.336882	2619.450000
1905.093850	2615.950000
1906.848713	2619.950000
1908.601470	2625.300000
1910.353864	2590.700000
1912.107633	2592.350000
1913.859299	2592.700000
1915.608863	2595.100000
1917.359803	2585.550000
1919.110379	2598.500000
1920.857116	2599.150000
1922.605230	2609.400000
1924.351244	2590.800000
1926.098634	2606.450000
1927.843925	2584.200000
1929.587119	2587.100000
1931.331689	2589.850000
1933.074162	2558.500000
1934.816275	2567.950000
1936.558028	2554.000000
1938.299422	2572.100000
1940.038722	2579.200000
1941.777663	2564.600000
1943.516245	2554.500000
1945.252735	2579.600000
1946.988868	2574.575000
1948.726375	2569.550000
1950.460060	2581.300000
1952.195120	2578.500000
1953.928092	2583.200000
1955.660707	2544.500000
1957.392965	2523.900000
1959.124867	2564.150000
1960.854683	2549.350000
1962.582415	2527.900000
1964.311520	2553.300000
1966.040271	2544.900000
1967.766938	2548.200000
1969.493251	2548.700000
1971.220937	2528.400000
1972.943087	2580.050000
1974.668338	2530.950000
1976.389783	2534.600000
1978.114327	2500.350000
1979.836792	2535.300000
1981.555453	2551.700000
1983.277213	2526.000000
1984.995171	2527.550000
1986.714502	2522.650000
1988.430034	2540.000000
1990.150387	2493.050000
1991.866940	2531.150000
1993.579698	2508.400000
1995.295551	2560.400000
1997.009331	2525.250000
1998.722762	2535.250000
2000.434122	2532.200000
2002.146855	2505.650000
2003.855796	2557.350000
2005.567831	2512.100000
2007.274356	2529.300000
2008.983974	2535.000000
2010.691524	2534.350000
2012.398727	2550.950000
2014.103864	2530.800000
2015.808654	2539.400000
2017.514816	2508.650000
2019.217196	2517.900000
2020.920948	2540.850000
2022.622636	2513.350000
2024.323980	2517.850000
2026.024978	2553.800000
2027.723916	2537.500000
2029.424224	2491.300000
2031.120758	2515.100000
2032.818663	2527.550000
2034.514510	2525.300000
2036.213441	2548.750000
2037.906887	2505.200000
2039.601705	2499.300000
2041.296179	2511.500000
2042.986885	2519.300000
2044.680675	2506.750000
2046.370698	2497.750000
2048.062092	2481.650000
2049.751433	2514.050000
2051.442144	2484.100000
2053.129093	2458.950000
2054.815701	2440.400000
2056.503680	2462.100000
2058.187899	2445.350000
2059.873488	2430.100000
2061.558738	2428.450000
2063.241940	2421.150000
2064.926511	2420.950000
2066.605620	2434.750000
2068.289514	2396.100000
2069.967948	2395.450000
2071.649458	2407.800000
2073.327218	2425.750000
2075.004640	2406.450000
2076.683433	2378.600000
2078.360182	2376.450000
2080.034890	2363.600000
2081.710967	2400.250000
2083.385004	2372.050000
2085.058705	2398.550000
2086.732071	2419.300000
2088.403399	2402.950000
2090.074392	2358.700000
2091.745051	2370.950000
2093.415375	2366.000000
2095.085366	2397.000000
2096.753321	2353.100000
2098.420943	2345.150000
2100.086531	2413.400000
2101.753487	2394.850000
2103.418409	2387.200000
2105.083000	2366.450000
2106.745559	2391.100000
2108.409486	2414.150000
2110.071383	2374.650000
2111.732948	2413.300000
2113.394183	2399.500000
2115.053388	2400.600000
2116.712264	2374.550000
2118.370809	2398.150000
2120.029025	2403.700000
2121.683517	2378.350000
2123.341074	2398.650000
2124.998302	2409.200000
2126.651808	2422.350000
2128.306682	2376.450000
2129.957838	2381.050000
2131.612055	2388.700000
2133.262556	2370.850000
2134.914423	2392.650000
2136.560882	2360.100000
2138.212096	2383.650000
2139.859596	2363.950000
2141.508463	2353.650000
2143.155312	2380.950000
2144.801834	2368.850000
2146.448031	2363.900000
2148.090520	2372.200000
2149.736067	2364.150000
2151.377907	2374.750000
2153.022804	2357.450000
2154.663996	2326.250000
2156.304864	2329.200000
2157.945409	2320.200000
2159.583941	2341.200000
2161.223839	2318.000000
2162.860037	2346.300000
2164.497601	2317.600000
2166.134842	2301.750000
2167.770074	2287.150000
2169.404985	2316.600000
2171.039574	2319.200000
2172.673841	2312.500000
2174.304416	2331.500000
2175.938041	2294.100000
2177.567975	2301.650000
2179.199274	2302.200000
2180.828569	2285.400000
2182.457543	2306.450000
2184.086199	2276.350000
2185.714535	2303.200000
2187.340868	2277.950000
2188.966883	2270.850000
2190.590897	2273.600000
2192.216275	2281.950000
2193.839654	2268.850000
2195.464396	2253.550000
2197.085458	2274.500000
2198.706203	2267.800000
2200.328313	2286.700000
2201.948425	2255.550000
2203.566540	2254.550000
2205.184340	2255.100000
2206.801825	2236.050000
2208.418994	2279.750000
2210.035848	2220.500000
2211.652387	2262.400000
2213.266932	2255.550000
2214.879485	2279.600000
2216.493402	2237.500000
2218.105328	2228.200000
2219.718617	2216.550000
2221.329916	2245.600000
2222.939225	2256.700000
2224.549898	2245.000000
2226.158582	2258.700000
2227.766954	2227.300000
2229.373338	2231.500000
2230.981086	2216.450000
2232.586847	2220.450000
2234.192297	2189.350000
2235.795763	2217.750000
2237.400591	2231.650000
2239.003435	2204.750000
2240.604296	2226.900000
2242.206520	2219.600000
2243.806761	2225.700000
2245.408365	2228.500000
2247.006317	2228.050000
2248.605631	2233.900000
2250.202965	2220.600000
2251.799991	2193.900000
2253.398378	2203.350000
2254.993117	2185.050000
2256.585880	2189.800000
2258.180004	2184.100000
2259.775490	2203.350000
2261.367332	2177.700000
2262.958867	2206.700000
2264.551763	2206.600000
2266.139350	2180.750000
2267.731634	2165.550000
2269.318610	2184.550000
2270.908615	2194.600000
2272.493315	2161.600000
2274.082709	2159.600000
2275.666800	2140.450000
2277.252253	2132.750000
2278.835736	2153.250000
2280.422246	2118.700000
2282.005122	2157.450000
2283.587694	2110.200000
2285.169963	2083.700000
2286.748603	2102.150000
2288.330266	2094.950000
2289.908301	2112.450000
2291.489359	2098.300000
2293.066791	2086.500000
2294.642259	2074.700000
2296.220748	2064.300000
2297.795614	2064.100000
2299.370179	2067.050000
2300.944444	2080.650000
2302.518408	2057.450000
2304.092072	2075.950000
2305.665435	2074.950000
2307.235180	2057.650000
2308.804626	2052.750000
2310.377091	2065.650000
2311.944280	2044.050000
2313.514488	2044.450000
2315.081081	2060.650000
2316.649034	2062.000000
2318.215032	2058.950000
2319.780731	2051.700000
2321.346134	2075.200000
2322.909583	2053.350000
2324.474390	2079.250000
2326.035590	2088.150000
2327.599804	2048.600000
2329.158757	2100.050000
2330.720723	2069.700000
2332.280739	2069.950000
2333.840459	2078.550000
2335.398230	2076.750000
2336.955707	2076.150000
2338.512888	2072.400000
2340.068123	2076.000000
2341.623063	2081.800000
2343.177710	2075.200000
2344.732063	2080.000000
2346.286122	2029.000000
2347.839887	2052.000000
2349.391709	2045.900000
2350.941587	2049.050000
2352.494473	2088.100000
2354.042117	2046.350000
2355.592768	2021.400000
2357.139829	2026.600000
2358.688247	2046.950000
2360.236373	1996.150000
2361.780912	2020.750000
2363.326808	2026.000000
2364.870765	1995.950000
2366.416080	2009.150000
2367.957810	1992.900000
2369.500897	1995.350000
2371.042049	1990.600000
2372.582911	1978.750000
2374.123484	2004.850000
2375.663768	1984.950000
2377.203763	1978.800000
2378.740179	2000.400000
2380.279597	1967.400000
2381.815438	2003.000000
2383.352635	1963.400000
2384.886258	1970.050000
2386.422880	1971.100000
2387.957571	1945.550000
2389.490333	1972.650000
2391.022809	1991.100000
2392.553356	1977.600000
2394.086901	1940.650000
2395.615235	1994.750000
2397.144925	1997.050000
2398.674330	1994.500000
2400.203449	1948.400000
2401.732284	1964.400000
2403.255913	1967.900000
2404.784179	1975.950000
2406.307241	1980.950000
2407.834937	1973.900000
2409.355794	1928.750000
2410.881284	1960.650000
2412.403213	1948.050000
2413.926498	1969.550000
2415.447862	1932.800000
2416.967306	1939.800000
2418.488105	1940.550000
2420.006985	1937.600000
2421.525583	1967.850000
2423.042264	1931.800000
2424.560299	1914.000000
2426.078053	1900.250000
2427.592256	1931.600000
2429.106178	1872.150000
2430.619821	1878.550000
2432.134817	1897.650000
2433.646265	1911.650000
2435.159068	1911.150000
2436.669958	1888.300000
2438.180568	1880.250000
2439.689267	1894.950000
2441.200953	1889.000000
2442.709094	1875.000000
2444.216958	1879.100000
2445.724544	1883.850000
2447.228589	1862.300000
2448.735620	1875.650000
2450.240742	1876.250000
2451.745587	1870.500000
2453.248525	1886.400000
2454.751186	1857.450000
2456.253571	1857.550000
2457.754051	1842.700000
2459.255884	1844.500000
2460.755813	1852.700000
2462.255466	1812.250000
2463.754844	1842.500000
2465.252318	1839.950000
2466.747892	1851.500000
2468.246445	1856.500000
2469.741469	1837.650000
2471.237847	1823.100000
2472.730698	1845.100000
2474.224901	1828.100000
2475.718831	1832.550000
2477.209238	1837.150000
2478.702621	1839.550000
2480.194107	1842.900000
2481.683696	1835.050000
2483.173013	1835.800000
2484.660435	1834.900000
2486.150832	1824.050000
2487.637710	1828.000000
2489.125940	1835.150000
2490.610654	1827.200000
2492.095097	1821.050000
2493.580892	1853.050000
2495.064794	1835.250000
2496.550048	1814.200000
2498.030168	1808.450000
2499.513260	1823.450000
2500.994462	1821.900000
2502.475395	1801.000000
2503.954439	1795.500000
2505.433215	1805.700000
2506.911721	1804.750000
2508.389960	1822.250000
2509.867930	1807.050000
2511.342396	1808.750000
2512.819830	1796.450000
2514.293761	1783.800000
2515.769043	1795.250000
2517.244057	1781.200000
2518.715570	1778.300000
2520.188434	1794.100000
2521.659414	1794.550000
2523.131745	1808.450000
2524.598963	1792.150000
2526.069146	1799.800000
2527.537449	1776.950000
2529.005487	1786.550000
2530.473260	1784.300000
2531.940768	1779.900000
2533.408011	1775.800000
2534.871762	1791.850000
2536.336864	1779.250000
2537.800087	1789.800000
2539.264661	1790.350000
2540.725745	1794.650000
2542.188179	1780.150000
2543.650350	1787.500000
2545.109035	1791.400000
2546.572292	1811.150000
2548.030452	1797.800000
2549.489961	1805.150000
2550.944377	1778.200000
2552.403362	1797.050000
2553.860476	1809.550000
2555.315719	1785.450000
2556.770701	1751.150000
2558.223813	1767.650000
2559.678274	1770.200000
2561.130866	1760.500000
2562.583198	1745.300000
2564.033662	1754.650000
2565.487082	1773.550000
2566.935420	1757.650000
2568.386714	1764.550000
2569.836141	1758.500000
2571.282097	1745.100000
2572.731007	1756.100000
2574.176446	1746.550000
2575.623234	1732.850000
2577.068158	1741.850000
2578.512825	1734.600000
2579.958839	1713.800000
2581.401386	1727.050000
2582.845281	1724.550000
2584.285711	1726.550000
2585.727489	1699.700000
2587.167406	1735.150000
2588.608671	1704.100000
2590.046475	1705.900000
2591.487228	1710.150000
2592.922918	1697.450000
2594.361558	1730.750000
2595.798341	1717.950000
2597.233267	1700.750000
2598.671142	1682.050000
2600.103959	1713.900000
2601.538122	1693.550000
2602.970432	1697.550000
2604.404088	1707.750000
2605.835891	1682.750000
2607.267441	1696.450000
2608.698737	1668.950000
2610.128182	1674.150000
2611.557374	1694.250000
2612.984715	1668.000000
2614.413403	1655.150000
2615.841838	1669.350000
2617.266826	1670.250000
2618.693161	1652.300000
2620.117647	1654.850000
2621.543479	1624.700000
2622.965867	1668.900000
2624.389601	1639.650000
2625.811489	1664.350000
2627.233126	1643.400000
2628.652918	1624.000000
2630.074056	1633.200000
2631.494944	1638.950000
2632.912394	1622.700000
2634.332783	1618.300000
2635.749735	1620.550000
2637.166439	1639.100000
2638.582894	1635.300000
2639.999101	1647.500000
2641.415059	1618.500000
2642.829177	1620.700000
2644.243048	1614.450000
2645.655079	1612.700000
2647.068455	1597.600000
2648.478401	1608.350000
2649.891282	1577.850000
2651.300736	1603.300000
2652.709943	1604.150000
2654.117314	1596.400000
2655.527619	1620.400000
2656.936088	1625.050000
2658.342722	1602.500000
2659.749111	1594.250000
2661.153666	1587.450000
2662.559565	1604.450000
2663.963631	1572.700000
2665.367453	1569.000000
2666.771030	1579.200000
2668.172775	1576.800000
2669.575864	1561.000000
2670.975536	1599.150000
2672.376550	1573.600000
2673.774149	1570.500000
2675.174678	1567.850000
2676.571792	1560.900000
2677.970249	1558.700000
2679.366878	1580.700000
2680.763265	1572.150000
2682.159411	1579.600000
2683.553730	1534.300000
2684.949392	1527.250000
2686.341644	1550.100000
2687.735240	1530.800000
2689.127011	1549.400000
2690.520124	1521.050000
2691.911414	1516.700000
2693.300881	1526.150000
2694.690109	1519.950000
2696.079096	1530.150000
2697.469426	1523.250000
2698.854771	1519.800000
2700.243040	1505.100000
2701.629489	1523.150000
2703.015699	1507.800000
2704.401671	1514.500000
2705.784243	1523.000000
2707.168158	1517.400000
2708.551835	1499.900000
2709.935274	1505.750000
2711.315317	1485.850000
2712.696702	1504.000000
2714.076271	1497.800000
2715.457182	1506.500000
2716.836278	1511.100000
2718.213559	1504.600000
2719.592182	1471.550000
2720.968992	1503.750000
2722.345566	1473.100000
2723.721904	1489.850000
2725.096430	1501.100000
2726.472297	1483.450000
2727.844777	1484.900000
2729.220174	1473.650000
2730.590609	1466.350000
2731.962386	1482.900000
2733.333929	1468.700000
2734.703663	1464.600000
2736.074737	1491.950000
2737.444004	1465.000000
2738.813037	1475.100000
2740.180263	1484.050000
2741.547257	1480.350000
2742.914018	1447.800000
2744.280546	1468.650000
2745.645269	1480.050000
2747.009761	1480.700000
2748.374020	1488.400000
2749.738048	1494.550000
2751.101843	1475.750000
2752.462265	1475.600000
2753.825598	1456.900000
2755.183988	1453.450000
2756.545288	1458.850000
2757.903217	1468.150000
2759.264056	1421.450000
2760.623094	1418.900000
2761.978764	1432.200000
2763.337342	1404.550000
2764.692554	1418.150000
2766.047536	1422.050000
2767.400721	1415.700000
2768.756813	1422.200000
2770.109541	1407.800000
2771.462040	1403.650000
2772.814311	1406.200000
2774.167921	1352.700000
2775.518169	1404.600000
2776.866624	1406.600000
2778.217983	1381.350000
2779.565983	1367.000000
2780.915322	1380.950000
2782.262868	1398.600000
2783.610187	1386.250000
2784.957280	1389.000000
2786.302582	1386.150000
2787.647658	1402.250000
2788.992508	1352.600000
2790.337131	1367.450000
2791.678403	1368.350000
2793.021013	1354.900000
2794.363397	1355.850000
2795.705557	1355.050000
2797.044367	1352.750000
2798.386076	1342.450000
2799.724438	1363.350000
2801.064137	1358.850000
2802.402050	1349.300000
2803.738179	1359.100000
2805.074085	1350.550000
2806.411327	1352.700000
2807.746786	1352.250000
2809.082022	1350.200000
2810.415476	1352.150000
2811.750266	1346.450000
2813.081715	1360.350000
2814.416060	1346.450000
2815.745507	1345.750000
2817.076291	1345.300000
2818.406853	1356.800000
2819.735636	1337.300000
2821.065756	1328.300000
2822.394096	1327.800000
2823.722216	1327.000000
2825.048559	1344.100000
2826.376237	1305.250000
2827.700583	1311.700000
2829.026264	1328.500000
2830.350170	1311.700000
2831.673857	1304.650000
2832.998879	1323.050000
2834.320572	1319.000000
2835.642045	1310.300000
2836.963300	1315.250000
2838.284336	1299.250000
2839.603600	1316.850000
2840.924199	1311.200000
2842.243026	1297.250000
2843.561635	1286.300000
2844.878474	1285.600000
2846.195095	1302.750000
2847.511498	1283.550000
2848.826133	1267.150000
2850.142102	1283.500000
2851.454751	1274.400000
2852.768736	1264.400000
2854.082504	1307.600000
2855.396055	1290.550000
2856.707839	1276.700000
2858.017858	1270.100000
2859.329210	1298.250000
2860.637248	1272.450000
2861.946621	1264.950000
2863.255778	1276.200000
2864.564720	1275.350000
2865.871899	1282.800000
2867.177314	1274.350000
2868.484064	1278.350000
2869.789051	1259.050000
2871.093825	1254.400000
2872.396837	1264.550000
2873.702731	1255.900000
2875.003769	1239.700000
2876.306142	1247.950000
2877.606755	1236.650000
2878.908702	1242.850000
2880.210436	1221.550000
2881.508865	1262.550000
2882.808629	1228.500000
2884.106634	1240.550000
2885.404428	1236.600000
2886.700466	1214.500000
2887.997837	1225.000000
2889.293452	1233.250000
2890.588856	1220.350000
2891.884050	1228.750000
2893.175945	1233.300000
2894.470717	1224.050000
2895.762192	1214.350000
2897.055001	1240.100000
2898.347598	1202.050000
2899.636902	1210.450000
2900.927538	1191.300000
2902.216423	1229.250000
2903.506641	1208.100000
2904.793567	1204.500000
2906.081825	1202.650000
2907.368333	1211.950000
2908.654634	1183.800000
2909.940726	1190.800000
2911.225070	1201.850000
2912.512286	1220.700000
2913.794675	1216.250000
2915.078395	1207.700000
2916.360370	1181.450000
2917.642138	1202.850000
2918.922160	1175.350000
2920.205052	1193.950000
2921.486199	1194.550000
2922.764064	1196.200000
2924.044798	1195.700000
2925.322251	1146.400000
2926.599499	1170.400000
2927.875004	1167.100000
2929.153377	1180.500000
2930.426935	1172.500000
2931.703361	1166.150000
2932.978046	1195.700000
2934.250991	1174.600000
2935.525266	1175.150000
2936.797802	1172.300000
2938.070134	1165.050000
2939.339193	1189.300000
2940.611116	1153.800000
2941.881302	1162.050000
2943.151285	1167.850000
2944.421064	1172.350000
2945.689106	1200.600000
2946.955413	1168.250000
2948.221517	1201.100000
2949.488951	1235.200000
2950.754651	1237.550000
2952.020148	1237.750000
2953.285443	1247.050000
2954.547473	1272.800000
2955.810834	1310.300000
2957.073993	1336.000000
2958.335419	1362.200000
2959.598175	1389.450000
2960.859200	1429.800000
2962.118494	1462.500000
2963.377587	1497.500000
2964.636480	1541.500000
2965.895173	1588.050000
2967.153666	1594.050000
2968.410430	1622.600000
2969.666994	1662.700000
2970.921831	1691.250000
2972.177997	1756.150000
2973.430907	1777.650000
2974.685147	1813.400000
2975.939188	1854.050000
2977.191503	1840.600000
2978.443620	1852.100000
2979.694012	1841.750000
2980.947259	1832.650000
2982.195729	1745.650000
2983.447053	1749.950000
2984.695129	1664.750000
2985.943007	1584.600000
2987.190688	1519.650000
2988.438173	1452.100000
2989.683936	1386.100000
2990.929502	1359.750000
2992.176397	1335.900000
2993.420046	1332.050000
2994.665024	1293.050000
2995.906759	1265.700000
2997.151345	1267.650000
2998.394211	1258.500000
2999.633837	1218.750000
3000.876314	1239.750000
3002.115550	1236.950000
3003.356114	1243.700000
3004.594961	1222.950000
3005.833614	1233.900000
3007.070551	1239.000000
3008.308815	1238.850000
3009.545365	1282.850000
3010.781720	1256.300000
3012.017882	1278.700000
3013.252331	1284.450000
3014.486586	1259.400000
3015.720648	1280.650000
3016.952998	1291.100000
3018.183636	1249.400000
3019.417120	1247.800000
3020.648892	1264.850000
3021.878954	1252.000000
3023.108824	1229.800000
3024.336984	1235.500000
3025.566470	1214.850000
3026.794248	1204.850000
3028.021834	1200.500000
3029.250746	1160.650000
3030.474916	1145.850000
3031.701929	1136.300000
3032.925719	1103.250000
3034.150834	1110.700000
3035.374243	1105.700000
3036.597463	1102.150000
3037.818977	1078.200000
3039.043332	1074.650000
3040.262952	1068.900000
3041.483897	1059.900000
3042.704654	1069.250000
3043.923707	1058.450000
3045.144086	1067.000000
3046.361248	1040.650000
3047.579735	1043.350000
3048.796521	1058.400000
3050.013118	1037.400000
3051.229528	1029.250000
3052.442724	1027.450000
3053.658758	1019.350000
3054.871580	1023.500000
3056.087239	1011.900000
3057.298175	1012.300000
3058.510436	1010.600000
3059.722511	1009.300000
3060.934399	1004.350000
3062.144589	1013.800000
3063.354593	1012.600000
3064.564412	984.800000
3065.772534	969.750000
3066.980470	984.350000
3068.186712	984.500000
3069.394277	997.600000
3070.600149	990.900000
3071.805835	984.200000
3073.011336	980.900000
3074.215145	986.300000
3075.420277	980.500000
3076.623716	985.350000
3077.825463	962.000000
3079.027027	977.050000
3080.228407	963.550000
3081.429603	964.650000
3082.629109	979.150000
3083.828431	978.450000
3085.029077	960.600000
3086.228034	967.400000
3087.423795	962.250000
3088.622386	958.800000
3089.817783	956.600000
3091.014503	954.150000
3092.208031	938.850000
3093.404388	956.250000
3094.599057	946.300000
3095.790536	962.950000
3096.986346	936.100000
3098.177463	954.600000
3099.369902	942.300000
3100.559154	932.150000
3101.751232	934.300000
3102.941625	919.850000
3104.128833	936.900000
3105.317364	926.550000
3106.507217	919.000000
3107.693885	939.250000
3108.880374	924.700000
3110.066683	897.600000
3111.254314	931.650000
3112.438764	914.550000
3113.621533	924.300000
3114.807126	927.000000
3115.991038	908.800000
3117.173272	904.200000
3118.355328	907.250000
3119.537205	921.550000
3120.718904	899.350000
3121.898925	912.800000
3123.077270	906.750000
3124.258436	889.200000
3125.436426	881.250000
3126.614239	903.150000
3127.791875	922.400000
3128.967836	886.250000
3130.143621	887.650000
3131.320726	891.050000
3132.496157	896.750000
3133.669915	880.050000
3134.842001	896.150000
3136.015407	895.000000
3137.188638	881.700000
3138.360196	893.550000
3139.533076	878.900000
3140.702788	889.350000
3141.873821	874.050000
3143.043183	889.400000
3144.210876	891.350000
3145.381384	881.750000
3146.547233	888.150000
3147.717392	867.950000
3148.882893	871.800000
3150.048221	852.650000
3151.213375	874.150000
3152.378355	879.800000
3153.544656	890.900000
3154.706303	885.700000
3155.869271	849.300000
3157.032065	849.550000
3158.194687	874.400000
3159.355644	851.300000
3160.516428	835.200000
3161.677040	841.350000
3162.835989	849.350000
3163.994765	862.600000
3165.153370	838.600000
3166.311803	835.150000
3167.470064	833.500000
3168.626663	835.200000
3169.781601	813.900000
3170.937858	806.900000
3172.092455	835.650000
3173.246880	837.600000
3174.399646	825.150000
3175.552242	817.300000
3176.704667	815.800000
3177.856923	823.600000
3179.009009	810.150000
3180.157948	813.050000
3181.309694	828.100000
3182.459783	820.850000
3183.608214	827.300000
3184.756477	826.600000
3185.904570	815.550000
3187.052495	846.750000
3188.198765	839.050000
3189.344866	822.300000
3190.489312	836.550000
3191.633591	817.800000
3192.777702	847.600000
3193.923131	809.000000
3195.065421	824.450000
3196.207543	830.200000
3197.349499	815.450000
3198.491287	813.200000
3199.632908	820.850000
3200.771393	819.550000
3201.911196	819.100000
3203.052317	838.050000
3204.190303	810.350000
3205.326640	819.850000
3206.462811	815.600000
3207.600300	823.400000
3208.736140	812.850000
3209.873296	800.800000
3211.005840	786.700000
3212.142666	805.950000
3213.274880	821.150000
3214.408412	805.250000
3215.541778	800.500000
3216.672017	794.050000
3217.805054	773.100000
3218.934965	784.050000
3220.066193	792.450000
3221.194295	773.200000
3222.325194	777.850000
3223.454450	783.850000
3224.582061	778.950000
3225.706551	782.900000
3226.835316	775.800000
3227.960959	770.600000
3229.086439	766.100000
3230.210278	763.250000
3231.336911	779.150000
3232.458947	763.550000
3233.582299	755.200000
3234.705489	763.600000
3235.828517	758.500000
3236.949905	767.600000
3238.071132	745.850000
3239.190720	781.550000
3240.310147	759.150000
3241.427936	771.500000
3242.548518	752.150000
3243.665985	766.250000
3244.783293	756.300000
3245.900439	761.200000
3247.015950	764.200000
3248.132776	765.900000
3249.246491	763.550000
3250.362997	781.750000
3251.477867	754.550000
3252.589629	768.950000
3253.701232	745.600000
3254.814149	768.250000
3255.926908	757.250000
3257.036560	775.450000
3258.147527	752.750000
3259.258335	751.750000
3260.367511	771.050000
3261.475056	771.300000
3262.583916	743.450000
3263.692617	761.250000
3264.798216	755.950000
3265.905130	754.750000
3267.010414	765.200000
3268.117012	751.800000
3269.220510	734.300000
3270.325322	766.950000
3271.429977	757.550000
3272.531533	751.200000
3273.632934	740.750000
3274.735648	753.950000
3275.838205	765.450000
3276.937667	733.700000
3278.039911	742.550000
3279.139061	741.200000
3280.236585	735.900000
3281.333954	737.850000
3282.434106	730.500000
3283.531164	747.800000
3284.628067	737.400000
3285.724816	728.950000
3286.817005	736.400000
3287.913444	712.000000
3289.008260	720.450000
3290.102921	746.200000
3291.195961	698.050000
3292.288847	729.450000
3293.380112	700.550000
3294.472690	714.850000
3295.563647	713.350000
3296.652986	708.400000
3297.742170	705.100000
3298.832668	714.700000
3299.920081	713.150000
3301.007342	696.250000
3302.095915	721.100000
3303.184335	692.750000
3304.268208	699.100000
3305.356323	723.700000
3306.441357	724.200000
3307.524775	709.100000
3308.609504	687.750000
3309.692619	690.650000
3310.777045	712.900000
3311.858393	699.200000
3312.941053	707.300000
3314.022099	690.000000
3315.102994	694.150000
3316.182276	698.700000
3317.261407	696.650000
3318.341849	690.100000
3319.419218	701.100000
3320.497898	697.050000
3321.574966	697.750000
3322.651884	694.450000
3323.727191	681.050000
3324.802349	698.750000
3325.878819	687.100000
3326.952217	690.400000
3328.025467	694.850000
3329.100028	679.900000
3330.172979	674.550000
3331.244323	703.500000
3332.316977	688.450000
3333.386564	669.650000
3334.457462	685.200000
3335.526753	678.350000
3336.597355	690.550000
3337.666350	660.800000
3338.733739	676.350000
3339.799523	668.300000
3340.869533	661.750000
3341.936480	654.950000
3343.000365	660.000000
3344.067018	670.200000
3345.132066	663.450000
3346.195512	653.050000
3347.258810	679.800000
3348.321963	657.800000
3349.384969	646.350000
3350.447828	678.850000
3351.509086	657.500000
3352.567287	646.100000
3353.629709	645.750000
3354.689074	661.350000
3355.748294	661.050000
3356.808824	654.600000
3357.864844	652.900000
3358.923629	675.200000
3359.977906	657.800000
3361.034946	663.200000
3362.090389	657.900000
3363.147140	637.850000
3364.202294	654.650000
3365.255850	674.600000
3366.307809	651.800000
3367.362530	655.950000
3368.414202	653.300000
3369.465731	660.850000
3370.518569	648.700000
3371.568359	662.350000
3372.619457	641.800000
3373.667510	639.050000
3374.718323	641.200000
3375.766090	646.150000
3376.813715	647.400000
3377.861197	650.050000
3378.907087	652.950000
3379.954285	638.150000
3380.998441	643.050000
3382.045355	634.550000
3383.090677	640.600000
3384.132959	633.500000
3385.175099	641.800000
3386.218547	663.850000
3387.261855	635.250000
3388.303572	637.100000
3389.345148	637.350000
3390.386584	626.300000
3391.426430	635.900000
3392.464689	646.350000
3393.504255	633.550000
3394.543680	638.750000
3395.581519	639.050000
3396.617770	612.350000
3397.653881	622.850000
3398.691300	652.750000
3399.725686	633.250000
3400.761379	618.850000
3401.796933	639.600000
3402.829456	632.750000
3403.864732	630.100000
3404.896977	616.300000
3405.929084	641.550000
3406.959607	650.250000
3407.991438	626.050000
3409.023129	606.550000
3410.051794	623.050000
3411.080320	618.000000
3412.110154	619.300000
3413.139849	609.950000
3414.166519	627.300000
3415.194496	616.900000
3416.219448	623.150000
3417.247150	602.150000
3418.271829	619.900000
3419.297814	612.300000
3420.322219	609.900000
3421.346488	617.800000
3422.369178	600.200000
3423.391732	624.400000
3424.415592	601.150000
3425.436432	614.600000
3426.457137	590.750000
3427.479147	585.600000
3428.498139	595.400000
3429.516996	601.150000
3430.537158	601.650000
3431.554304	595.800000
