-117.702309	7.700000
-115.032709	15.100000
-112.366044	26.800000
-109.700131	15.300000
-107.037150	27.500000
-104.372740	41.300000
-101.711260	41.700000
-99.048350	42.600000
-96.390548	49.400000
-93.731315	28.100000
-91.072831	36.200000
-88.417272	24.200000
-85.760284	46.900000
-83.108393	20.300000
-80.455073	39.500000
-77.804673	14.800000
-75.152843	43.200000
-72.506104	30.800000
-69.857935	32.800000
-67.210510	23.900000
-64.565998	38.900000
-61.920058	40.400000
-59.279199	12.700000
-56.636911	33.600000
-53.997531	22.300000
-51.356723	29.700000
-48.716655	17.300000
-46.081659	17.200000
-43.445234	44.300000
-40.811713	31.800000
-38.176763	30.000000
-35.546878	16.700000
-32.913401	21.300000
-30.284986	19.700000
-27.657304	30.500000
-25.028195	25.800000
-22.404142	31.800000
-19.776500	19.000000
-17.153911	45.800000
-14.532053	36.400000
-11.910927	41.700000
-9.290530	66.800000
-6.673021	117.600000
-4.054084	290.500000
-1.438033	665.500000
1.177290	624.200000
3.791886	250.200000
6.403599	52.700000
9.016741	43.800000
11.624849	35.600000
14.236539	32.500000
16.843198	35.200000
19.451285	49.500000
22.058648	40.300000
24.660986	43.000000
27.266902	48.800000
29.867796	34.900000
32.470119	41.000000
35.067423	56.600000
37.668303	45.600000
40.264169	50.500000
42.861462	56.700000
45.458036	34.000000
48.049601	44.300000
50.642594	55.900000
53.232726	43.900000
55.824286	33.800000
58.412986	60.500000
61.003113	30.800000
63.588242	36.100000
66.174798	41.700000
68.760639	50.900000
71.343627	63.700000
73.928042	36.500000
76.505327	57.800000
79.086179	46.100000
81.664182	65.900000
84.241475	61.000000
86.820194	60.900000
89.393932	47.500000
91.969096	60.700000
94.541417	58.600000
97.113030	73.200000
99.681804	70.000000
102.252004	74.700000
104.819365	90.300000
107.388153	102.300000
109.954103	96.200000
112.517219	130.600000
115.083891	144.700000
117.641342	181.400000
120.204478	238.800000
122.762655	338.100000
125.324385	444.200000
127.881160	694.900000
130.439360	1005.500000
132.992608	1504.200000
135.545157	2207.900000
138.101257	3080.100000
140.652410	4109.500000
143.202864	5209.100000
145.752622	6115.700000
148.299560	6786.800000
150.845802	7221.200000
153.393471	7453.400000
155.940443	7564.400000
158.482479	7614.000000
161.023822	7548.200000
163.564473	7656.200000
166.106548	7566.000000
168.645813	7718.200000
171.182268	7645.300000
173.718033	7671.900000
176.255223	7670.900000
178.791721	7589.300000
181.325414	7679.500000
183.856304	7658.400000
186.386505	7591.300000
188.918131	7538.900000
191.446956	7574.900000
193.972982	7536.300000
196.498323	7608.000000
199.025088	7623.100000
201.549056	7573.700000
204.072340	7586.000000
206.594939	7624.800000
209.114745	7560.600000
211.633868	7546.500000
214.152308	7595.900000
216.672172	7580.900000
219.185035	7532.100000
221.701429	7608.100000
224.217141	7576.700000
226.727964	7564.200000
229.240211	7632.600000
231.749675	7556.200000
234.258461	7597.900000
236.766569	7645.900000
239.276100	7655.000000
241.780752	7597.700000
244.284727	7564.100000
246.790126	7561.400000
249.290650	7493.700000
251.794697	7662.800000
254.291774	7593.300000
256.792373	7616.100000
259.290201	7710.900000
261.787356	7596.800000
264.283838	7691.400000
266.775458	7604.200000
269.270596	7630.400000
271.762969	7562.400000
274.254671	7570.100000
276.743610	7549.900000
279.233972	7543.500000
281.721573	7480.800000
284.206414	7506.000000
286.694769	7388.600000
289.176185	7395.600000
291.661115	7391.400000
294.141200	7429.500000
296.624797	7347.100000
299.103551	7350.100000
301.583729	7295.900000
304.061154	7354.300000
306.537916	7282.000000
309.014015	7259.600000
311.487365	7223.300000
313.960053	7278.000000
316.432080	7199.400000
318.903446	7340.000000
321.372068	7345.800000
323.840030	7376.500000
326.309415	7359.100000
328.773977	7336.200000
331.242042	7291.800000
333.705288	7347.000000
336.167877	7370.400000
338.629808	7334.800000
341.091083	7379.000000
343.549624	7429.900000
346.009587	7391.900000
348.466818	7382.800000
350.923393	7361.200000
353.379315	7306.800000
355.832508	7334.300000
358.287122	7349.700000
360.736935	7339.600000
363.190245	7263.400000
365.638755	7284.100000
368.086615	7286.900000
370.535896	7242.300000
372.980384	7243.200000
375.426294	7249.900000
377.871555	7234.200000
380.314097	7246.400000
382.755991	7239.300000
385.197237	7177.200000
387.635768	7244.200000
390.075721	7170.700000
392.512960	7183.300000
394.947487	7169.100000
397.385502	7233.000000
399.818740	7256.600000
402.253400	7249.100000
404.683286	7222.000000
407.116658	7271.400000
409.545260	7341.200000
411.973221	7229.600000
414.402602	7318.700000
416.827218	7362.800000
419.253256	7313.300000
421.678653	7223.200000
424.103410	7257.000000
426.523409	7284.800000
428.944829	7277.700000
431.363552	7332.200000
433.783696	7309.500000
436.201145	7376.700000
438.620014	7306.300000
441.036190	7379.900000
443.447619	7374.100000
445.862524	7337.200000
448.274739	7279.000000
450.686320	7420.800000
453.097267	7346.200000
455.505528	7334.100000
457.913156	7276.500000
460.320153	7410.300000
462.726517	7352.200000
465.130199	7405.300000
467.533251	7380.600000
469.935673	7387.500000
472.337466	7366.800000
474.736580	7469.200000
477.137114	7375.700000
479.537019	7448.800000
481.932201	7362.200000
484.330850	7405.100000
486.724779	7298.200000
489.118082	7368.100000
491.510759	7376.800000
493.902811	7314.700000
496.296282	7302.900000
498.685040	7410.400000
501.071132	7332.800000
503.458644	7376.600000
505.845532	7375.900000
508.229757	7482.400000
510.615401	7399.400000
512.998382	7390.200000
515.378703	7456.200000
517.760443	7444.300000
520.139524	7438.400000
522.520024	7445.200000
524.897866	7340.800000
527.273053	7410.300000
529.647622	7305.500000
532.023610	7487.100000
534.396944	7348.100000
536.771697	7391.700000
539.141763	7412.700000
541.511214	7386.600000
543.882083	7430.400000
546.248272	7276.600000
548.615879	7488.700000
550.980840	7393.700000
553.345188	7446.600000
555.708924	7425.400000
558.074077	7412.600000
560.434557	7422.900000
562.796456	7474.300000
565.155715	7410.800000
567.512335	7397.500000
569.872400	7429.800000
572.225775	7364.700000
574.582594	7491.500000
576.936777	7440.000000
579.290353	7433.200000
581.643320	7327.600000
583.993656	7402.600000
586.345408	7445.100000
588.690484	7373.300000
591.041024	7305.700000
593.384891	7417.200000
595.734218	7435.800000
598.078898	7378.200000
600.420953	7427.000000
602.764424	7409.200000
605.105273	7368.500000
607.445520	7433.800000
609.783146	7450.400000
612.124207	7391.000000
614.460631	7371.200000
616.798471	7421.100000
619.133693	7468.100000
621.466300	7344.800000
623.800323	7406.600000
626.131733	7383.300000
628.462544	7443.100000
630.792757	7373.800000
633.122372	7444.600000
635.447365	7412.500000
637.777799	7441.600000
640.103611	7414.400000
642.426817	7379.000000
644.751438	7435.200000
647.073455	7367.600000
649.394877	7472.800000
651.713696	7465.300000
654.033931	7456.300000
656.353573	7528.600000
658.670614	7480.300000
660.987064	7540.900000
663.300915	7468.800000
665.616181	7434.100000
667.928851	7558.400000
670.242936	7429.400000
672.552421	7550.700000
674.863322	7643.200000
677.171630	7519.700000
679.479350	7568.600000
681.788485	7628.900000
684.093027	7644.800000
686.396983	7546.500000
688.700352	7615.300000
691.005136	7599.300000
693.305334	7552.800000
695.606946	7580.100000
697.907974	7634.900000
700.204419	7610.700000
702.502280	7595.800000
704.799557	7604.800000
707.096251	7606.500000
709.388369	7581.900000
711.683898	7551.900000
713.974854	7685.300000
716.267224	7672.500000
718.557018	7669.000000
720.846233	7664.900000
723.134867	7669.700000
725.420930	7689.900000
727.708406	7694.400000
729.993312	7678.800000
732.277639	7606.600000
734.559398	7745.400000
736.842572	7588.200000
739.125167	7722.100000
741.403208	7676.000000
743.682662	7742.400000
745.961541	7766.300000
748.239844	7782.900000
750.513598	7817.600000
752.788766	7798.200000
755.063360	7837.200000
757.335395	7905.100000
759.608842	7950.600000
761.879732	7897.200000
764.148066	7945.500000
766.417813	7907.300000
768.685006	7994.400000
770.951628	8028.900000
773.217681	7992.500000
775.481181	7993.200000
777.746095	7993.400000
780.010439	8078.400000
782.270254	8095.800000
784.531482	8071.900000
786.792142	8132.300000
789.050255	8217.800000
791.305824	8271.500000
793.564784	8322.500000
795.817245	8356.900000
798.075073	8395.000000
800.328381	8416.700000
802.579150	8441.000000
804.831331	8473.200000
807.080974	8495.200000
809.332028	8562.500000
811.578571	8534.100000
813.826527	8569.100000
816.071947	8525.200000
818.318779	8377.500000
820.565050	8525.700000
822.806817	8377.700000
825.051966	8399.500000
827.290643	8485.000000
829.532703	8490.000000
831.770264	8444.100000
834.009236	8569.200000
836.245682	8596.200000
838.483540	8559.700000
840.718872	8481.700000
842.951680	8569.100000
845.185900	8406.200000
847.417598	8317.400000
849.648741	8356.500000
851.879329	8288.000000
854.109363	8272.300000
856.338842	8258.000000
858.563840	8261.800000
860.792213	8263.600000
863.016107	8253.200000
865.241411	8253.600000
867.462240	8403.700000
869.686441	8327.500000
871.906169	8311.600000
874.127308	8328.300000
876.347896	8412.600000
878.565974	8474.000000
880.785463	8461.500000
883.000485	8381.500000
885.214959	8439.300000
887.428886	8398.700000
889.642265	8347.600000
891.855097	8261.000000
894.067383	8174.000000
896.277167	8254.600000
898.486405	8168.700000
900.695097	8090.300000
902.901291	8095.000000
905.108894	8132.200000
907.314000	8124.900000
909.518562	8091.600000
911.720628	8091.500000
913.924104	8038.500000
916.125086	8058.400000
918.325527	8067.600000
920.527376	8079.300000
922.722833	8096.500000
924.921650	8107.800000
927.116029	8108.700000
929.313764	8138.300000
931.507064	8165.800000
933.701773	8246.400000
935.893996	8188.100000
938.085681	8246.800000
940.276828	8218.000000
942.465492	8301.400000
944.653619	8318.900000
946.839266	8293.200000
949.028265	8380.600000
951.212841	8384.900000
953.396882	8383.400000
955.584273	8437.900000
957.763361	8441.500000
959.945798	8504.000000
962.127702	8516.700000
964.307132	8578.100000
966.484089	8614.200000
968.662454	8628.100000
970.842225	8693.600000
973.015648	8663.300000
975.192417	8656.900000
977.364780	8664.300000
979.538549	8681.700000
981.707915	8726.200000
983.880626	8750.500000
986.050870	8723.500000
988.220586	8677.500000
990.389773	8743.800000
992.554563	8685.200000
994.722694	8727.100000
996.886431	8666.300000
999.051574	8637.700000
1001.214259	8762.500000
1003.376417	8695.200000
1005.536119	8764.900000
1007.695297	8718.300000
1009.855881	8717.700000
1012.014010	8661.500000
1014.171615	8631.700000
1016.328697	8672.300000
1018.485256	8573.400000
1020.637435	8584.600000
1022.791020	8545.700000
1024.944084	8653.000000
1027.094700	8563.100000
1029.246721	8681.000000
1031.394369	8635.300000
1033.545349	8621.100000
1035.691958	8643.600000
1037.838049	8671.800000
1039.983620	8609.000000
1042.130597	8654.500000
1044.271286	8595.400000
1046.415303	8595.600000
1048.556880	8525.300000
1050.697941	8584.400000
1052.840406	8517.700000
1054.976592	8536.300000
1057.116104	8478.200000
1059.251260	8496.100000
1061.389741	8495.500000
1063.523869	8419.900000
1065.657482	8403.200000
1067.792501	8456.200000
1069.923170	8412.500000
1072.055244	8480.900000
1074.184889	8403.600000
1076.314022	8500.600000
1078.442643	8432.400000
1080.570753	8471.100000
1082.696437	8369.500000
1084.821611	8446.400000
1086.948189	8375.800000
1089.070430	8462.800000
1091.194074	8410.500000
1093.313385	8330.100000
1095.437924	8287.100000
1097.556218	8347.700000
1099.675917	8358.200000
1101.793197	8399.500000
1103.909971	8412.300000
1106.026238	8439.900000
1108.140090	8394.300000
1110.255345	8307.000000
1112.366278	8328.600000
1114.480522	8253.000000
1116.590446	8299.900000
1118.701774	8224.800000
1120.812597	8299.300000
1122.919105	8206.000000
1125.028921	8213.800000
1127.134423	8222.600000
1129.241328	8259.000000
1131.342018	8193.100000
1133.447920	8207.200000
1135.549513	8224.200000
1137.652509	8220.600000
1139.755004	8195.400000
1141.851293	8114.000000
1143.952788	8099.500000
1146.049981	8159.200000
1148.146675	8100.900000
1150.242872	8183.300000
1152.338570	8179.600000
1154.433771	8140.300000
1156.526575	8147.000000
1158.620781	8099.800000
1160.708796	8117.200000
1162.802009	8181.800000
1164.889034	8206.700000
1166.979359	8191.800000
1169.065395	8245.400000
1171.154729	8232.100000
1173.237882	8248.400000
1175.322438	8221.500000
1177.408394	8194.200000
1179.490069	8173.300000
1181.573146	8179.700000
1183.653837	8145.800000
1185.734036	8177.500000
1187.813744	8146.100000
1189.892961	8150.600000
1191.969796	8132.900000
1194.044250	8025.000000
1196.121996	8019.500000
1198.195471	8072.900000
1200.270347	8095.900000
1202.340956	8038.600000
1204.412967	8095.100000
1206.482601	8077.400000
1208.553636	8037.700000
1210.624183	8151.800000
1212.690469	8077.300000
1214.758156	8050.300000
1216.823471	7991.700000
1218.890186	8018.100000
1220.952645	7955.000000
1223.018389	7933.200000
1225.079880	7946.800000
1227.142770	7983.700000
1229.203293	7913.500000
1231.263333	7931.300000
1233.322889	7941.500000
1235.380080	7888.100000
1237.436790	8011.300000
1239.491137	7904.600000
1241.548764	7963.800000
1243.604029	7876.100000
1245.655053	7916.800000
1247.707477	7908.800000
1249.759421	7936.300000
1251.809007	7909.400000
1253.858114	7943.600000
1255.906743	7940.400000
1257.954893	7964.000000
1260.002565	7928.900000
1262.046006	7828.000000
1264.092722	7836.100000
1266.137086	7936.800000
1268.180972	7912.800000
1270.222508	7962.400000
1272.261694	7968.800000
1274.304152	7879.200000
1276.342388	7958.800000
1278.382023	7961.100000
1280.421183	7799.500000
1282.456125	7880.500000
1284.492465	7818.400000
1286.526460	7842.600000
1288.561854	7843.300000
1290.593034	7791.700000
1292.625613	7837.300000
1294.657719	7799.100000
1296.687485	7794.300000
1298.718649	7762.300000
1300.745605	7844.600000
1302.773959	7812.700000
1304.798109	7784.000000
1306.825523	7787.500000
1308.848736	7809.800000
1310.873345	7792.400000
1312.895621	7868.500000
1314.919294	7817.400000
1316.940634	7703.100000
1318.961506	7780.500000
1320.981912	7757.300000
1322.998123	7744.400000
1325.015733	7670.800000
1327.031014	7595.600000
1329.049553	7667.200000
1331.063904	7641.200000
1333.075929	7717.100000
1335.091211	7559.000000
1337.102308	7564.800000
1339.114802	7470.500000
1341.123113	7539.100000
1343.134680	7467.300000
1345.140207	7423.200000
1347.148990	7417.300000
1349.153595	7369.600000
1351.161454	7411.400000
1353.168851	7444.000000
1355.170217	7413.100000
1357.172980	7375.300000
1359.175282	7411.300000
1361.177125	7307.400000
1363.178508	7305.700000
1365.177578	7351.400000
1367.176189	7177.800000
1369.174342	7268.000000
1371.172037	7191.600000
1373.165568	7134.700000
1375.160496	7178.500000
1377.154967	7089.600000
1379.148981	7091.700000
1381.140688	7139.100000
1383.131939	7106.700000
1385.120885	7136.400000
1387.111226	7065.400000
1389.101112	7043.600000
1391.088695	7130.500000
1393.075824	7083.600000
1395.060651	7054.700000
1397.046872	7040.400000
1399.030794	7041.800000
1401.014263	7025.600000
1402.997280	7081.800000
1404.977999	7090.400000
1406.960112	7033.100000
1408.939928	7085.200000
1410.919294	7028.300000
1412.894520	7014.600000
1414.872986	7041.500000
1416.849158	7046.800000
1418.824880	7063.200000
1420.800153	7034.100000
1422.773135	7055.500000
1424.745669	7120.900000
1426.717756	7149.000000
1428.689394	7269.800000
1430.656904	7289.000000
1432.629489	7245.000000
1434.594267	7192.600000
1436.564118	7176.900000
1438.529844	7038.000000
1440.496964	7053.400000
1442.461799	7005.700000
1444.422516	6940.200000
1446.388300	6951.300000
1448.348129	6862.900000
1450.309351	6867.400000
1452.271966	6893.500000
1454.230466	6882.000000
1456.188524	6808.200000
1458.146139	6887.600000
1460.103313	6870.200000
1462.058211	6874.100000
1464.014501	6828.500000
1465.968517	6820.400000
1467.922093	6760.000000
1469.873396	6783.200000
1471.826091	6853.400000
1473.776515	6746.800000
1475.726500	6733.500000
1477.676045	6738.900000
1479.623322	6736.400000
1481.568332	6727.100000
1483.514733	6782.900000
1485.460698	6675.300000
1487.406224	6762.300000
1489.349486	6687.800000
1491.292311	6701.100000
1493.232873	6611.900000
1495.174826	6624.700000
1497.114518	6629.000000
1499.053774	6618.700000
1500.992595	6607.200000
1502.929157	6557.700000
1504.867110	6565.800000
1506.802805	6542.400000
1508.738066	6571.900000
1510.671070	6532.600000
1512.603642	6517.200000
1514.535782	6553.500000
1516.467490	6505.100000
1518.396944	6528.400000
1520.327789	6501.400000
1522.258203	6486.700000
1524.184543	6472.700000
1526.112275	6474.300000
1528.037756	6478.800000
1529.962808	6405.900000
1531.887431	6465.400000
1533.811625	6434.900000
1535.733572	6413.900000
1537.656908	6414.600000
1539.577999	6427.600000
1541.496845	6368.100000
1543.417081	6506.400000
1545.335073	6379.600000
1547.252639	6450.400000
1549.167963	6450.300000
1551.084677	6406.900000
1552.997336	6315.700000
1554.913199	6303.300000
1556.826822	6305.700000
1558.738208	6285.600000
1560.650982	6246.100000
1562.559707	6215.200000
1564.469822	6284.700000
1566.379513	6242.800000
1568.288780	6212.400000
1570.195814	6256.000000
1572.100615	6155.100000
1574.006805	6167.800000
1575.910763	6251.600000
1577.814301	6200.300000
1579.717417	6189.300000
1581.618305	6278.800000
1583.520580	6150.500000
1585.420628	6131.500000
1587.322064	6190.900000
1589.219465	6106.000000
1591.116448	6225.400000
1593.013013	6063.800000
1594.910966	6115.200000
1596.803084	6068.100000
1598.698395	6114.500000
1600.593289	6099.000000
1602.485961	6007.900000
1604.378217	6038.800000
1606.268253	5994.400000
1608.157873	5983.800000
1610.047078	5892.100000
1611.935867	6028.400000
1613.822440	5929.600000
1615.710399	5994.900000
1617.594342	5944.500000
1619.479673	5946.100000
1621.364589	5957.400000
1623.247293	5879.300000
1625.131382	5938.500000
1627.011461	5885.100000
1628.892926	5943.400000
1630.772181	5894.400000
1632.652822	5880.200000
1634.527659	5894.600000
1636.407478	5907.300000
1638.283291	5902.200000
1640.158694	5849.400000
1642.035484	5865.900000
1643.906476	5855.900000
1645.780650	5848.800000
1647.650826	5852.100000
1649.524182	5800.200000
1651.395335	5817.400000
1653.264286	5832.700000
1655.134623	5806.700000
1657.000966	5776.500000
1658.868695	5788.800000
1660.734226	5744.000000
1662.601141	5695.600000
1664.464068	5712.900000
1666.328380	5715.900000
1668.190496	5716.000000
1670.052208	5635.800000
1671.915304	5623.600000
1673.776206	5638.400000
1675.634914	5641.300000
1677.493219	5545.200000
1679.352909	5627.500000
1681.206832	5607.900000
1683.063927	5552.700000
1684.920620	5609.000000
1686.773337	5535.700000
1688.629225	5628.700000
1690.481138	5576.400000
1692.332651	5584.100000
1694.183763	5506.900000
1696.034475	5534.200000
1697.884786	5507.800000
1699.732913	5535.400000
1701.582423	5462.600000
1703.426185	5443.200000
1705.274897	5432.400000
1707.117862	5436.800000
1708.963993	5469.500000
1710.806163	5375.800000
1712.651497	5419.800000
1714.491091	5338.700000
1716.332069	5414.800000
1718.174430	5335.700000
1720.012835	5362.400000
1721.852623	5363.100000
1723.690236	5324.400000
1725.527453	5317.000000
1727.362497	5308.500000
1729.198924	5273.700000
1731.033179	5285.700000
1732.867039	5185.900000
1734.700506	5238.100000
1736.530026	5207.300000
1738.362705	5143.600000
1740.191440	5187.800000
1742.023333	5110.500000
1743.851283	5153.500000
1745.678841	5037.300000
1747.506007	5112.700000
1749.332782	5128.600000
1751.159166	5064.500000
1752.981613	5070.900000
1754.807214	5024.900000
1756.628881	5037.500000
1758.451930	5113.600000
1760.272818	5044.600000
1762.093316	5034.600000
1763.915196	5037.200000
1765.731376	4998.700000
1767.550708	4960.500000
1769.366113	5017.600000
1771.184668	4965.200000
1772.999298	5056.500000
1774.813542	4931.900000
1776.627398	4953.700000
1778.440868	4942.000000
1780.252185	4953.400000
1782.064883	4932.300000
1783.877194	4982.400000
1785.685588	4939.600000
1787.495363	5000.900000
1789.301222	4868.000000
1791.110228	4940.700000
1792.915319	4882.300000
1794.721792	4879.000000
1796.527881	4936.900000
1798.330060	4883.600000
1800.135382	4906.800000
1801.936796	4871.800000
1803.739590	4913.500000
1805.538478	4902.000000
1807.338747	4878.000000
1809.138634	4872.300000
1810.936380	4905.600000
1812.733745	4859.700000
1814.530729	4849.000000
1816.327333	4838.000000
1818.121798	4801.800000
1819.917642	4819.600000
1821.707832	4786.900000
1823.502918	4780.300000
1825.292351	4840.700000
1827.084921	4805.100000
1828.875356	4781.300000
1830.663657	4757.800000
1832.455093	4742.100000
1834.240883	4761.900000
1836.028053	4824.900000
1837.813091	4781.800000
1839.601263	4727.700000
1841.385549	4721.000000
1843.167706	4747.800000
1844.951241	4726.700000
1846.732648	4713.700000
1848.515434	4678.100000
1850.294340	4674.900000
1852.074624	4706.800000
1853.852782	4691.400000
1855.632319	4666.300000
1857.409731	4693.800000
1859.185019	4656.300000
1860.961686	4709.400000
1862.736230	4674.600000
1864.512151	4657.200000
1866.282453	4677.500000
1868.055881	4578.100000
1869.827190	4648.600000
1871.598129	4625.500000
1873.370444	4626.100000
1875.137147	4665.600000
1876.906974	4590.600000
1878.672938	4593.300000
1880.442026	4581.800000
1882.207252	4533.900000
1883.972109	4538.300000
1885.738344	4518.000000
1887.500720	4528.000000
1889.262729	4517.700000
1891.024370	4556.800000
1892.785645	4547.800000
1894.546552	4541.100000
1896.307093	4506.500000
1898.065524	4480.400000
1899.823590	4513.400000
1901.579547	4478.700000
1903.336882	4453.200000
1905.093850	4466.200000
1906.848713	4483.000000
1908.601470	4455.700000
1910.353864	4480.500000
1912.107633	4448.700000
1913.859299	4414.900000
1915.608863	4454.000000
1917.359803	4383.700000
1919.110379	4448.900000
1920.857116	4473.200000
1922.605230	4442.900000
1924.351244	4420.500000
1926.098634	4441.200000
1927.843925	4454.500000
1929.587119	4377.900000
1931.331689	4407.500000
1933.074162	4353.500000
1934.816275	4463.400000
1936.558028	4398.500000
1938.299422	4385.400000
1940.038722	4421.700000
1941.777663	4367.900000
1943.516245	4398.900000
1945.252735	4385.600000
1946.988868	4385.500000
1948.726375	4385.400000
1950.460060	4394.800000
1952.195120	4380.700000
1953.928092	4395.200000
1955.660707	4388.100000
1957.392965	4373.700000
1959.124867	4465.700000
1960.854683	4442.100000
1962.582415	4355.100000
1964.311520	4392.100000
1966.040271	4379.300000
1967.766938	4378.700000
1969.493251	4367.000000
1971.220937	4346.300000
1972.943087	4365.800000
1974.668338	4390.900000
1976.389783	4387.200000
1978.114327	4360.600000
1979.836792	4339.500000
1981.555453	4399.000000
1983.277213	4364.800000
1984.995171	4363.000000
1986.714502	4324.000000
1988.430034	4336.500000
1990.150387	4306.600000
1991.866940	4347.100000
1993.579698	4341.800000
1995.295551	4397.700000
1997.009331	4296.400000
1998.722762	4330.900000
2000.434122	4316.900000
2002.146855	4374.700000
2003.855796	4346.300000
2005.567831	4376.500000
2007.274356	4337.200000
2008.983974	4376.500000
2010.691524	4331.400000
2012.398727	4363.400000
2014.103864	4373.600000
2015.808654	4349.300000
2017.514816	4347.100000
2019.217196	4386.100000
2020.920948	4385.900000
2022.622636	4298.400000
2024.323980	4371.300000
2026.024978	4349.000000
2027.723916	4316.500000
2029.424224	4355.200000
2031.120758	4363.200000
2032.818663	4352.800000
2034.514510	4323.800000
2036.213441	4317.200000
2037.906887	4319.300000
2039.601705	4341.200000
2041.296179	4342.300000
2042.986885	4309.300000
2044.680675	4318.400000
2046.370698	4308.500000
2048.062092	4241.400000
2049.751433	4319.900000
2051.442144	4255.800000
2053.129093	4293.000000
2054.815701	4208.200000
2056.503680	4261.800000
2058.187899	4173.300000
2059.873488	4210.200000
2061.558738	4198.500000
2063.241940	4142.800000
2064.926511	4163.400000
2066.605620	4143.000000
2068.289514	4154.300000
2069.967948	4166.800000
2071.649458	4132.700000
2073.327218	4108.500000
2075.004640	4136.600000
2076.683433	4120.500000
2078.360182	4140.800000
2080.034890	4116.700000
2081.710967	4135.300000
2083.385004	4171.700000
2085.058705	4130.000000
2086.732071	4138.200000
2088.403399	4108.200000
2090.074392	4064.700000
2091.745051	4080.200000
2093.415375	4051.700000
2095.085366	4073.800000
2096.753321	4094.900000
2098.420943	4097.200000
2100.086531	4055.200000
2101.753487	4141.700000
2103.418409	4101.200000
2105.083000	4100.000000
2106.745559	4135.300000
2108.409486	4180.800000
2110.071383	4110.700000
2111.732948	4134.300000
2113.394183	4118.100000
2115.053388	4147.400000
2116.712264	4090.600000
2118.370809	4106.500000
2120.029025	4088.800000
2121.683517	4142.000000
2123.341074	4094.600000
2124.998302	4086.600000
2126.651808	4107.000000
2128.306682	4107.700000
2129.957838	4117.600000
2131.612055	4113.600000
2133.262556	4084.400000
2134.914423	4123.800000
2136.560882	4052.300000
2138.212096	4092.500000
2139.859596	4057.900000
2141.508463	4091.300000
2143.155312	4093.900000
2144.801834	4070.100000
2146.448031	4070.200000
2148.090520	4065.500000
2149.736067	4073.000000
2151.377907	4039.800000
2153.022804	4111.600000
2154.663996	4043.300000
2156.304864	4034.300000
2157.945409	4004.300000
2159.583941	4008.600000
2161.223839	4030.300000
2162.860037	4019.900000
2164.497601	4035.000000
2166.134842	3961.500000
2167.770074	3977.900000
2169.404985	3948.800000
2171.039574	3961.300000
2172.673841	3952.400000
2174.304416	3915.000000
2175.938041	3971.200000
2177.567975	3975.900000
2179.199274	3969.500000
2180.828569	3979.900000
2182.457543	3932.000000
2184.086199	3976.700000
2185.714535	3931.200000
2187.340868	3950.900000
2188.966883	3910.400000
2190.590897	3914.800000
2192.216275	3933.600000
2193.839654	3919.000000
2195.464396	3894.200000
2197.085458	3882.900000
2198.706203	3903.900000
2200.328313	3918.100000
2201.948425	3853.700000
2203.566540	3840.900000
2205.184340	3857.100000
2206.801825	3851.700000
2208.418994	3879.800000
2210.035848	3828.700000
2211.652387	3901.200000
2213.266932	3857.000000
2214.879485	3873.200000
2216.493402	3884.200000
2218.105328	3872.400000
2219.718617	3870.900000
2221.329916	3877.200000
2222.939225	3791.200000
2224.549898	3847.600000
2226.158582	3859.900000
2227.766954	3837.400000
2229.373338	3811.300000
2230.981086	3807.500000
2232.586847	3764.800000
2234.192297	3812.000000
2235.795763	3776.800000
2237.400591	3836.100000
2239.003435	3813.500000
2240.604296	3783.500000
2242.206520	3780.700000
2243.806761	3764.600000
2245.408365	3811.100000
2247.006317	3789.400000
2248.605631	3806.500000
2250.202965	3812.000000
2251.799991	3849.100000
2253.398378	3763.300000
2254.993117	3774.000000
2256.585880	3787.900000
2258.180004	3767.500000
2259.775490	3751.000000
2261.367332	3731.000000
2262.958867	3732.500000
2264.551763	3758.200000
2266.139350	3739.500000
2267.731634	3714.100000
2269.318610	3755.800000
2270.908615	3694.400000
2272.493315	3670.000000
2274.082709	3672.600000
2275.666800	3615.200000
2277.252253	3684.500000
2278.835736	3665.200000
2280.422246	3626.500000
2282.005122	3579.000000
2283.587694	3589.000000
2285.169963	3658.800000
2286.748603	3642.600000
2288.330266	3615.100000
2289.908301	3590.700000
2291.489359	3570.100000
2293.066791	3575.000000
2294.642259	3579.900000
2296.220748	3507.000000
2297.795614	3563.900000
2299.370179	3538.700000
2300.944444	3573.600000
2302.518408	3528.500000
2304.092072	3564.900000
2305.665435	3496.800000
2307.235180	3506.200000
2308.804626	3543.500000
2310.377091	3529.700000
2311.944280	3494.600000
2313.514488	3505.700000
2315.081081	3524.800000
2316.649034	3494.600000
2318.215032	3554.300000
2319.780731	3508.600000
2321.346134	3521.700000
2322.909583	3527.400000
2324.474390	3543.000000
2326.035590	3539.400000
2327.599804	3542.900000
2329.158757	3523.100000
2330.720723	3542.800000
2332.280739	3549.700000
2333.840459	3489.300000
2335.398230	3548.900000
2336.955707	3530.900000
2338.512888	3553.900000
2340.068123	3560.100000
2341.623063	3515.800000
2343.177710	3534.900000
2344.732063	3567.800000
2346.286122	3533.300000
2347.839887	3475.500000
2349.391709	3473.600000
2350.941587	3457.100000
2352.494473	3460.100000
2354.042117	3509.700000
2355.592768	3470.200000
2357.139829	3489.800000
2358.688247	3435.300000
2360.236373	3451.400000
2361.780912	3422.000000
2363.326808	3400.200000
2364.870765	3451.900000
2366.416080	3399.500000
2367.957810	3417.300000
2369.500897	3414.400000
2371.042049	3358.700000
2372.582911	3426.500000
2374.123484	3385.100000
2375.663768	3368.600000
2377.203763	3402.500000
2378.740179	3373.400000
2380.279597	3388.400000
2381.815438	3318.900000
2383.352635	3320.500000
2384.886258	3366.900000
2386.422880	3373.900000
2387.957571	3349.000000
2389.490333	3369.800000
2391.022809	3368.400000
2392.553356	3347.700000
2394.086901	3397.700000
2395.615235	3382.100000
2397.144925	3332.200000
2398.674330	3353.400000
2400.203449	3332.000000
2401.732284	3301.600000
2403.255913	3359.800000
2404.784179	3368.900000
2406.307241	3345.900000
2407.834937	3365.000000
2409.355794	3280.000000
2410.881284	3320.300000
2412.403213	3320.000000
2413.926498	3306.700000
2415.447862	3345.700000
2416.967306	3293.200000
2418.488105	3264.200000
2420.006985	3272.700000
2421.525583	3281.000000
2423.042264	3251.000000
2424.560299	3298.600000
2426.078053	3238.200000
2427.592256	3265.000000
2429.106178	3214.200000
2430.619821	3192.000000
2432.134817	3239.000000
2433.646265	3214.200000
2435.159068	3236.500000
2436.669958	3220.500000
2438.180568	3182.800000
2439.689267	3210.800000
2441.200953	3207.300000
2442.709094	3161.200000
2444.216958	3140.300000
2445.724544	3154.700000
2447.228589	3206.600000
2448.735620	3168.900000
2450.240742	3190.700000
2451.745587	3175.200000
2453.248525	3130.700000
2454.751186	3171.500000
2456.253571	3139.100000
2457.754051	3171.400000
2459.255884	3123.300000
2460.755813	3141.100000
2462.255466	3081.100000
2463.754844	3134.300000
2465.252318	3118.900000
2466.747892	3157.500000
2468.246445	3109.200000
2469.741469	3139.800000
2471.237847	3151.900000
2472.730698	3135.800000
2474.224901	3134.500000
2475.718831	3130.500000
2477.209238	3114.600000
2478.702621	3112.900000
2480.194107	3109.700000
2481.683696	3158.100000
2483.173013	3082.700000
2484.660435	3072.700000
2486.150832	3149.100000
2487.637710	3163.500000
2489.125940	3082.400000
2490.610654	3110.800000
2492.095097	3109.300000
2493.580892	3096.500000
2495.064794	3099.800000
2496.550048	3076.700000
2498.030168	3086.100000
2499.513260	3087.100000
2500.994462	3031.000000
2502.475395	3039.400000
2503.954439	3059.900000
2505.433215	3084.100000
2506.911721	3033.400000
2508.389960	3117.900000
2509.867930	3021.100000
2511.342396	3067.100000
2512.819830	3065.500000
2514.293761	3050.800000
2515.769043	3077.300000
2517.244057	3030.100000
2518.715570	3027.900000
2520.188434	3037.900000
2521.659414	3046.200000
2523.131745	3022.200000
2524.598963	3062.900000
2526.069146	3045.600000
2527.537449	3029.500000
2529.005487	3037.700000
2530.473260	3066.500000
2531.940768	3020.000000
2533.408011	3035.000000
2534.871762	3036.800000
2536.336864	3043.100000
2537.800087	3004.400000
2539.264661	3061.900000
2540.725745	3041.100000
2542.188179	3036.700000
2543.650350	3031.800000
2545.109035	3046.700000
2546.572292	3036.400000
2548.030452	3041.500000
2549.489961	3027.100000
2550.944377	3035.600000
2552.403362	3025.700000
2553.860476	3000.600000
2555.315719	3004.600000
2556.770701	3013.900000
2558.223813	3015.900000
2559.678274	2966.000000
2561.130866	2987.700000
2562.583198	2990.600000
2564.033662	3010.600000
2565.487082	3000.400000
2566.935420	2976.200000
2568.386714	2965.000000
2569.836141	3005.300000
2571.282097	2989.800000
2572.731007	2995.300000
2574.176446	2977.800000
2575.623234	2974.800000
2577.068158	2931.500000
2578.512825	3019.000000
2579.958839	2920.400000
2581.401386	2977.700000
2582.845281	2937.500000
2584.285711	2912.700000
2585.727489	2906.800000
2587.167406	2931.300000
2588.608671	2877.700000
2590.046475	2909.600000
2591.487228	2912.300000
2592.922918	2874.900000
2594.361558	2880.800000
2595.798341	2915.700000
2597.233267	2867.600000
2598.671142	2852.100000
2600.103959	2914.900000
2601.538122	2885.600000
2602.970432	2879.500000
2604.404088	2875.200000
2605.835891	2822.600000
2607.267441	2873.500000
2608.698737	2871.500000
2610.128182	2878.500000
2611.557374	2845.300000
2612.984715	2834.100000
2614.413403	2819.400000
2615.841838	2823.800000
2617.266826	2817.000000
2618.693161	2830.900000
2620.117647	2779.300000
2621.543479	2802.300000
2622.965867	2848.100000
2624.389601	2826.500000
2625.811489	2785.300000
2627.233126	2791.300000
2628.652918	2763.800000
2630.074056	2778.200000
2631.494944	2769.100000
2632.912394	2771.500000
2634.332783	2785.900000
2635.749735	2762.000000
2637.166439	2752.700000
2638.582894	2758.100000
2639.999101	2784.600000
2641.415059	2698.600000
2642.829177	2747.300000
2644.243048	2729.900000
2645.655079	2705.600000
2647.068455	2715.800000
2648.478401	2712.000000
2649.891282	2727.600000
2651.300736	2690.800000
2652.709943	2730.600000
2654.117314	2712.300000
2655.527619	2705.500000
2656.936088	2703.300000
2658.342722	2676.100000
2659.749111	2707.600000
2661.153666	2693.800000
2662.559565	2722.300000
2663.963631	2663.000000
2665.367453	2690.400000
2666.771030	2652.600000
2668.172775	2673.700000
2669.575864	2686.700000
2670.975536	2672.100000
2672.376550	2659.000000
2673.774149	2716.100000
2675.174678	2634.000000
2676.571792	2650.300000
2677.970249	2678.600000
2679.366878	2658.600000
2680.763265	2663.100000
2682.159411	2644.100000
2683.553730	2591.700000
2684.949392	2664.400000
2686.341644	2634.600000
2687.735240	2609.400000
2689.127011	2677.500000
2690.520124	2605.200000
2691.911414	2612.400000
2693.300881	2607.900000
2694.690109	2599.100000
2696.079096	2577.300000
2697.469426	2604.600000
2698.854771	2585.400000
2700.243040	2563.600000
2701.629489	2566.800000
2703.015699	2569.000000
2704.401671	2572.900000
2705.784243	2578.600000
2707.168158	2553.800000
2708.551835	2580.800000
2709.935274	2547.500000
2711.315317	2521.300000
2712.696702	2547.600000
2714.076271	2573.800000
2715.457182	2523.600000
2716.836278	2558.200000
2718.213559	2534.400000
2719.592182	2499.800000
2720.968992	2519.500000
2722.345566	2489.900000
2723.721904	2540.500000
2725.096430	2524.600000
2726.472297	2526.600000
2727.844777	2494.800000
2729.220174	2554.400000
2730.590609	2516.000000
2731.962386	2511.500000
2733.333929	2504.900000
2734.703663	2496.200000
2736.074737	2489.300000
2737.444004	2512.700000
2738.813037	2476.800000
2740.180263	2491.200000
2741.547257	2507.600000
2742.914018	2492.300000
2744.280546	2533.600000
2745.645269	2517.200000
2747.009761	2458.500000
2748.374020	2490.100000
2749.738048	2500.900000
2751.101843	2483.000000
2752.462265	2506.200000
2753.825598	2472.200000
2755.183988	2468.400000
2756.545288	2484.800000
2757.903217	2470.600000
2759.264056	2400.700000
2760.623094	2475.900000
2761.978764	2424.800000
2763.337342	2425.200000
2764.692554	2383.900000
2766.047536	2382.900000
2767.400721	2387.100000
2768.756813	2438.100000
2770.109541	2424.000000
2771.462040	2398.800000
2772.814311	2366.000000
2774.167921	2379.700000
2775.518169	2364.100000
2776.866624	2399.500000
2778.217983	2337.200000
2779.565983	2347.600000
2780.915322	2359.800000
2782.262868	2334.800000
2783.610187	2337.800000
2784.957280	2351.100000
2786.302582	2304.700000
2787.647658	2342.500000
2788.992508	2309.400000
2790.337131	2346.800000
2791.678403	2318.300000
2793.021013	2333.600000
2794.363397	2325.900000
2795.705557	2294.400000
2797.044367	2323.200000
2798.386076	2281.700000
2799.724438	2328.600000
2801.064137	2331.200000
2802.402050	2328.400000
2803.738179	2312.400000
2805.074085	2318.400000
2806.411327	2289.200000
2807.746786	2312.200000
2809.082022	2300.000000
2810.415476	2292.000000
2811.750266	2278.500000
2813.081715	2290.100000
2814.416060	2297.800000
2815.745507	2295.400000
2817.076291	2326.200000
2818.406853	2297.400000
2819.735636	2270.200000
2821.065756	2234.300000
2822.394096	2308.100000
2823.722216	2243.400000
2825.048559	2266.400000
2826.376237	2250.700000
2827.700583	2284.100000
2829.026264	2261.100000
2830.350170	2248.900000
2831.673857	2207.600000
2832.998879	2236.700000
2834.320572	2257.100000
2835.642045	2259.900000
2836.963300	2242.500000
2838.284336	2232.100000
2839.603600	2224.300000
2840.924199	2230.800000
2842.243026	2200.800000
2843.561635	2226.300000
2844.878474	2214.600000
2846.195095	2183.600000
2847.511498	2202.100000
2848.826133	2202.500000
2850.142102	2166.400000
2851.454751	2214.200000
2852.768736	2156.900000
2854.082504	2201.000000
2855.396055	2180.100000
2856.707839	2179.000000
2858.017858	2161.400000
2859.329210	2197.300000
2860.637248	2162.600000
2861.946621	2156.900000
2863.255778	2165.300000
2864.564720	2148.400000
2865.871899	2160.300000
2867.177314	2184.300000
2868.484064	2148.300000
2869.789051	2181.000000
2871.093825	2151.000000
2872.396837	2169.900000
2873.702731	2148.700000
2875.003769	2124.700000
2876.306142	2126.500000
2877.606755	2155.000000
2878.908702	2121.300000
2880.210436	2081.400000
2881.508865	2125.700000
2882.808629	2094.300000
2884.106634	2114.600000
2885.404428	2085.600000
2886.700466	2109.100000
2887.997837	2089.700000
2889.293452	2089.300000
2890.588856	2099.600000
2891.884050	2091.900000
2893.175945	2059.100000
2894.470717	2080.700000
2895.762192	2093.300000
2897.055001	2066.000000
2898.347598	2067.600000
2899.636902	2087.400000
2900.927538	2045.300000
2902.216423	2060.800000
2903.506641	2033.800000
2904.793567	2018.300000
2906.081825	2062.600000
2907.368333	2045.500000
2908.654634	2047.000000
2909.940726	2078.800000
2911.225070	2026.500000
2912.512286	2025.900000
2913.794675	2036.600000
2915.078395	2035.100000
2916.360370	2034.800000
2917.642138	2009.800000
2918.922160	2000.000000
2920.205052	2030.700000
2921.486199	2004.100000
2922.764064	2014.800000
2924.044798	2020.100000
2925.322251	2032.200000
2926.599499	1999.600000
2927.875004	1999.000000
2929.153377	1979.600000
2930.426935	1949.500000
2931.703361	2023.900000
2932.978046	1968.700000
2934.250991	1969.500000
2935.525266	1931.600000
2936.797802	1991.200000
2938.070134	2001.500000
2939.339193	1985.500000
2940.611116	1989.200000
2941.881302	1975.500000
2943.151285	1977.700000
2944.421064	1970.400000
2945.689106	1996.700000
2946.955413	1981.200000
2948.221517	2004.200000
2949.488951	2034.000000
2950.754651	2040.100000
2952.020148	2049.700000
2953.285443	2073.200000
2954.547473	2094.900000
2955.810834	2136.200000
2957.073993	2140.900000
2958.335419	2159.200000
2959.598175	2161.600000
2960.859200	2194.400000
2962.118494	2285.700000
2963.377587	2285.000000
2964.636480	2281.400000
2965.895173	2359.100000
2967.153666	2389.400000
2968.410430	2417.300000
2969.666994	2434.300000
2970.921831	2444.900000
2972.177997	2546.500000
2973.430907	2539.100000
2974.685147	2588.400000
2975.939188	2638.300000
2977.191503	2601.800000
2978.443620	2610.400000
2979.694012	2601.400000
2980.947259	2576.100000
2982.195729	2554.700000
2983.447053	2494.400000
2984.695129	2433.200000
2985.943007	2349.600000
2987.190688	2269.100000
2988.438173	2222.000000
2989.683936	2164.200000
2990.929502	2129.700000
2992.176397	2110.900000
2993.420046	2057.100000
2994.665024	2015.900000
2995.906759	2000.200000
2997.151345	2030.300000
2998.394211	2009.400000
2999.633837	1967.500000
3000.876314	1975.100000
3002.115550	1934.800000
3003.356114	2015.300000
3004.594961	1967.400000
3005.833614	1982.100000
3007.070551	2002.800000
3008.308815	2035.800000
3009.545365	2022.800000
3010.781720	2032.300000
3012.017882	2032.400000
3013.252331	2040.400000
3014.486586	2004.800000
3015.720648	2022.900000
3016.952998	2020.500000
3018.183636	2002.300000
3019.417120	1990.600000
3020.648892	1989.600000
3021.878954	1979.100000
3023.108824	1963.800000
3024.336984	1948.500000
3025.566470	1950.600000
3026.794248	1953.400000
3028.021834	1933.500000
3029.250746	1895.100000
3030.474916	1863.500000
3031.701929	1855.800000
3032.925719	1871.200000
3034.150834	1871.800000
3035.374243	1799.900000
3036.597463	1847.400000
3037.818977	1850.000000
3039.043332	1825.500000
3040.262952	1820.500000
3041.483897	1798.400000
3042.704654	1766.400000
3043.923707	1792.600000
3045.144086	1794.800000
3046.361248	1747.400000
3047.579735	1725.600000
3048.796521	1757.100000
3050.013118	1749.700000
3051.229528	1745.800000
3052.442724	1751.000000
3053.658758	1770.700000
3054.871580	1736.700000
3056.087239	1725.600000
3057.298175	1717.600000
3058.510436	1749.000000
3059.722511	1706.400000
3060.934399	1700.200000
3062.144589	1712.000000
3063.354593	1695.500000
3064.564412	1697.700000
3065.772534	1678.900000
3066.980470	1663.800000
3068.186712	1677.300000
3069.394277	1693.600000
3070.600149	1697.550000
3071.805835	1701.500000
3073.011336	1694.300000
3074.215145	1696.900000
3075.420277	1695.600000
3076.623716	1690.400000
3077.825463	1668.300000
3079.027027	1618.600000
3080.228407	1655.500000
3081.429603	1657.600000
3082.629109	1661.900000
3083.828431	1662.200000
3085.029077	1647.600000
3086.228034	1637.500000
3087.423795	1676.500000
3088.622386	1632.500000
3089.817783	1601.400000
3091.014503	1629.400000
3092.208031	1622.600000
3093.404388	1616.400000
3094.599057	1572.500000
3095.790536	1619.600000
3096.986346	1625.900000
3098.177463	1602.900000
3099.369902	1623.200000
3100.559154	1622.600000
3101.751232	1588.800000
3102.941625	1571.600000
3104.128833	1629.900000
3105.317364	1590.100000
3106.507217	1594.000000
3107.693885	1574.600000
3108.880374	1610.000000
3110.066683	1579.000000
3111.254314	1563.300000
3112.438764	1565.300000
3113.621533	1538.000000
3114.807126	1540.400000
3115.991038	1551.800000
3117.173272	1540.200000
3118.355328	1576.400000
3119.537205	1547.300000
3120.718904	1575.600000
3121.898925	1535.900000
3123.077270	1551.200000
3124.258436	1506.900000
3125.436426	1530.700000
3126.614239	1537.400000
3127.791875	1562.000000
3128.967836	1507.500000
3130.143621	1508.600000
3131.320726	1525.600000
3132.496157	1529.700000
3133.669915	1473.200000
3134.842001	1527.400000
3136.015407	1498.700000
3137.188638	1546.400000
3138.360196	1522.200000
3139.533076	1512.100000
3140.702788	1547.800000
3141.873821	1536.800000
3143.043183	1524.900000
3144.210876	1511.900000
3145.381384	1517.800000
3146.547233	1505.700000
3147.717392	1495.000000
3148.882893	1493.200000
3150.048221	1534.200000
3151.213375	1526.300000
3152.378355	1501.900000
3153.544656	1478.000000
3154.706303	1472.900000
3155.869271	1471.300000
3157.032065	1487.700000
3158.194687	1476.100000
3159.355644	1446.500000
3160.516428	1449.100000
3161.677040	1486.300000
3162.835989	1453.500000
3163.994765	1439.700000
3165.153370	1438.700000
3166.311803	1423.100000
3167.470064	1403.700000
3168.626663	1429.300000
3169.781601	1444.000000
3170.937858	1417.500000
3172.092455	1422.300000
3173.246880	1421.600000
3174.399646	1432.500000
3175.552242	1411.000000
3176.704667	1405.200000
3177.856923	1411.200000
3179.009009	1414.300000
3180.157948	1403.700000
3181.309694	1411.500000
3182.459783	1393.600000
3183.608214	1431.100000
3184.756477	1359.900000
3185.904570	1396.900000
3187.052495	1405.100000
3188.198765	1422.300000
3189.344866	1418.900000
3190.489312	1440.100000
3191.633591	1407.100000
3192.777702	1420.900000
3193.923131	1394.300000
3195.065421	1432.600000
3196.207543	1386.700000
3197.349499	1414.900000
3198.491287	1401.300000
3199.632908	1435.900000
3200.771393	1422.400000
3201.911196	1406.100000
3203.052317	1399.600000
3204.190303	1396.600000
3205.326640	1381.800000
3206.462811	1360.800000
3207.600300	1388.400000
3208.736140	1381.900000
3209.873296	1395.300000
3211.005840	1403.400000
3212.142666	1382.700000
3213.274880	1374.500000
3214.408412	1393.700000
3215.541778	1339.100000
3216.672017	1372.900000
3217.805054	1369.100000
3218.934965	1349.100000
3220.066193	1338.200000
3221.194295	1348.300000
3222.325194	1334.300000
3223.454450	1336.600000
3224.582061	1302.300000
3225.706551	1337.400000
3226.835316	1327.100000
3227.960959	1322.400000
3229.086439	1322.500000
3230.210278	1335.400000
3231.336911	1332.100000
3232.458947	1287.500000
3233.582299	1311.000000
3234.705489	1321.200000
3235.828517	1286.500000
3236.949905	1310.100000
3238.071132	1265.500000
3239.190720	1328.400000
3240.310147	1305.900000
3241.427936	1333.100000
3242.548518	1301.900000
3243.665985	1301.500000
3244.783293	1306.800000
3245.900439	1306.700000
3247.015950	1274.300000
3248.132776	1330.700000
3249.246491	1326.100000
3250.362997	1346.200000
3251.477867	1286.800000
3252.589629	1312.200000
3253.701232	1310.200000
3254.814149	1294.000000
3255.926908	1282.600000
3257.036560	1291.100000
3258.147527	1282.100000
3259.258335	1295.400000
3260.367511	1269.900000
3261.475056	1294.800000
3262.583916	1267.000000
3263.692617	1290.000000
3264.798216	1279.100000
3265.905130	1303.900000
3267.010414	1305.600000
3268.117012	1314.700000
3269.220510	1301.000000
3270.325322	1258.300000
3271.429977	1277.500000
3272.531533	1292.200000
3273.632934	1300.500000
3274.735648	1284.000000
3275.838205	1264.600000
3276.937667	1289.200000
3278.039911	1283.500000
3279.139061	1265.300000
3280.236585	1246.100000
3281.333954	1271.800000
3282.434106	1256.800000
3283.531164	1252.100000
3284.628067	1259.700000
3285.724816	1260.600000
3286.817005	1248.300000
3287.913444	1247.000000
3289.008260	1252.200000
3290.102921	1257.800000
3291.195961	1199.300000
3292.288847	1193.300000
3293.380112	1229.600000
3294.472690	1211.200000
3295.563647	1236.900000
3296.652986	1208.700000
3297.742170	1219.900000
3298.832668	1198.000000
3299.920081	1192.500000
3301.007342	1198.000000
3302.095915	1220.400000
3303.184335	1178.600000
3304.268208	1190.200000
3305.356323	1208.600000
3306.441357	1208.600000
3307.524775	1198.700000
3308.609504	1195.800000
3309.692619	1169.500000
3310.777045	1190.300000
3311.858393	1184.200000
3312.941053	1167.300000
3314.022099	1196.400000
3315.102994	1217.800000
3316.182276	1183.000000
3317.261407	1178.900000
3318.341849	1181.000000
3319.419218	1180.500000
3320.497898	1183.000000
3321.574966	1198.000000
3322.651884	1201.000000
3323.727191	1180.100000
3324.802349	1191.600000
3325.878819	1181.700000
3326.952217	1171.400000
3328.025467	1157.700000
3329.100028	1179.300000
3330.172979	1157.500000
3331.244323	1173.200000
3332.316977	1186.500000
3333.386564	1150.800000
3334.457462	1151.700000
3335.526753	1148.300000
3336.597355	1140.300000
3337.666350	1152.400000
3338.733739	1159.500000
3339.799523	1133.600000
3340.869533	1137.800000
3341.936480	1131.900000
3343.000365	1119.000000
3344.067018	1147.400000
3345.132066	1110.300000
3346.195512	1136.000000
3347.258810	1110.200000
3348.321963	1144.300000
3349.384969	1128.400000
3350.447828	1120.400000
3351.509086	1105.200000
3352.567287	1117.900000
3353.629709	1118.400000
3354.689074	1115.200000
3355.748294	1120.300000
3356.808824	1114.000000
3357.864844	1124.800000
3358.923629	1104.700000
3359.977906	1088.800000
3361.034946	1107.000000
3362.090389	1128.100000
3363.147140	1107.800000
3364.202294	1113.300000
3365.255850	1105.100000
3366.307809	1118.100000
3367.362530	1115.900000
3368.414202	1104.500000
3369.465731	1104.100000
3370.518569	1075.500000
3371.568359	1112.900000
3372.619457	1111.700000
3373.667510	1116.900000
3374.718323	1069.200000
3375.766090	1111.200000
3376.813715	1086.900000
3377.861197	1105.300000
3378.907087	1116.500000
3379.954285	1074.500000
3380.998441	1064.700000
3382.045355	1080.900000
3383.090677	1108.500000
3384.132959	1078.300000
3385.175099	1125.500000
3386.218547	1117.100000
3387.261855	1105.800000
3388.303572	1070.700000
3389.345148	1107.200000
3390.386584	1052.500000
3391.426430	1105.700000
3392.464689	1083.100000
3393.504255	1089.100000
3394.543680	1103.300000
3395.581519	1087.100000
3396.617770	1074.100000
3397.653881	1073.000000
3398.691300	1083.800000
3399.725686	1062.900000
3400.761379	1085.600000
3401.796933	1072.200000
3402.829456	1078.100000
3403.864732	1077.300000
3404.896977	1073.300000
3405.929084	1044.900000
3406.959607	1052.300000
3407.991438	1055.900000
3409.023129	1045.100000
3410.051794	1042.600000
3411.080320	1061.700000
3412.110154	1045.800000
3413.139849	1054.800000
3414.166519	1050.700000
3415.194496	1039.000000
3416.219448	1033.700000
3417.247150	1043.500000
3418.271829	1032.300000
3419.297814	1040.900000
3420.322219	1061.800000
3421.346488	1054.400000
3422.369178	1024.100000
3423.391732	1023.900000
3424.415592	989.900000
3425.436432	1026.500000
3426.457137	1032.600000
3427.479147	989.800000
3428.498139	1031.700000
3429.516996	1020.300000
3430.537158	1003.900000
3431.554304	1019.700000
