-117.897011	1.830000
-115.227411	-1.230000
-112.560746	3.150000
-109.894833	2.610000
-107.231852	2.610000
-104.567442	-3.990000
-101.905962	1.640000
-99.243052	-0.740000
-96.585250	2.480000
-93.926017	2.890000
-91.267533	1.240000
-88.611974	5.160000
-85.954986	3.730000
-83.303095	1.620000
-80.649775	-1.640000
-77.999375	3.320000
-75.347545	3.280000
-72.700806	0.000000
-70.052637	4.180000
-67.405212	2.180000
-64.760700	2.120000
-62.114760	0.280000
-59.473901	-0.560000
-56.831613	3.750000
-54.192233	3.210000
-51.551425	4.560000
-48.911357	0.180000
-46.276361	-3.440000
-43.639936	1.810000
-41.006415	-1.050000
-38.371465	-0.730000
-35.741580	4.570000
-33.108103	7.760000
-30.479688	6.300000
-27.852006	4.600000
-25.222897	8.360000
-22.598844	8.540000
-19.971202	5.770000
-17.348613	19.360000
-14.726755	20.600000
-12.105629	40.240000
-9.485232	89.000000
-6.867723	296.420000
-4.248786	952.900000
-1.632735	2917.200000
0.982588	4477.070000
3.597184	2075.070000
6.208897	243.860000
8.822039	38.150000
11.430147	20.890000
14.041837	18.970000
16.648496	11.470000
19.256583	7.150000
21.863946	13.100000
24.466284	8.690000
27.072200	4.870000
29.673094	4.270000
32.275417	-0.360000
34.872721	-1.320000
37.473601	4.130000
40.069467	0.820000
42.666760	10.080000
45.263334	2.310000
47.854899	2.120000
50.447892	7.340000
53.038024	-2.740000
55.629584	6.320000
58.218284	1.550000
60.808411	2.850000
63.393540	-6.000000
65.980096	6.780000
68.565937	2.000000
71.148925	8.150000
73.733340	5.420000
76.310625	9.420000
78.891477	2.890000
81.469480	5.080000
84.046773	6.200000
86.625492	-0.950000
89.199230	8.570000
91.774394	4.070000
94.346715	8.520000
96.918328	3.480000
99.487102	6.640000
102.057302	2.700000
104.624663	2.860000
107.193451	8.560000
109.759401	5.750000
112.322517	3.060000
114.889189	9.110000
117.446640	10.310000
120.009776	17.180000
122.567953	20.490000
125.129683	33.330000
127.686458	46.870000
130.244658	75.280000
132.797906	105.960000
135.350455	145.420000
137.906555	209.540000
140.457708	289.960000
143.008162	347.320000
145.557920	404.010000
148.104858	448.510000
150.651100	477.190000
153.198768	490.790000
155.745741	486.330000
158.287777	481.600000
160.829120	475.540000
163.369770	472.920000
165.911846	459.450000
168.451111	462.060000
170.987566	460.030000
173.523331	457.180000
176.060521	458.880000
178.597019	448.340000
181.130712	448.600000
183.661602	454.110000
186.191803	448.550000
188.723429	442.870000
191.252254	436.370000
193.778280	436.520000
196.303621	428.860000
198.830386	433.720000
201.354354	438.670000
203.877638	438.990000
206.400237	431.150000
208.920043	430.840000
211.439166	436.800000
213.957606	437.530000
216.477470	450.090000
218.990333	447.390000
221.506727	457.410000
224.022439	472.840000
226.533262	480.150000
229.045509	481.910000
231.554973	482.680000
234.063759	472.910000
236.571867	485.840000
239.081398	492.690000
241.586050	490.310000
244.090025	487.510000
246.595424	480.780000
249.095948	482.730000
251.599995	479.670000
254.097072	482.610000
256.597671	481.190000
259.095499	474.290000
261.592654	471.810000
264.089136	475.690000
266.580756	469.290000
269.075894	459.400000
271.568267	468.490000
274.059969	478.190000
276.548908	479.160000
279.039270	481.770000
281.526871	483.540000
284.011712	488.600000
286.500067	500.300000
288.981483	500.700000
291.466413	510.130000
293.946498	523.370000
296.430095	536.660000
298.908849	559.390000
301.389027	564.490000
303.866452	573.100000
306.343214	552.260000
308.819313	533.590000
311.292663	514.980000
313.765351	512.040000
316.237378	506.500000
318.708744	508.280000
321.177366	521.900000
323.645328	514.750000
326.114713	499.180000
328.579275	476.080000
331.047340	466.580000
333.510586	460.540000
335.973175	449.770000
338.435106	441.860000
340.896381	443.810000
343.354922	436.160000
345.814885	430.330000
348.272115	419.830000
350.728691	416.100000
353.184613	410.360000
355.637806	403.320000
358.092420	404.420000
360.542233	395.150000
362.995543	392.820000
365.444053	385.560000
367.891913	387.280000
370.341194	376.030000
372.785682	374.700000
375.231592	363.540000
377.676853	360.870000
380.119395	357.540000
382.561289	359.440000
385.002535	353.010000
387.441066	348.200000
389.881019	346.430000
392.318258	351.140000
394.752785	340.970000
397.190800	341.290000
399.624038	337.650000
402.058698	339.440000
404.488584	337.800000
406.921956	332.810000
409.350558	328.990000
411.778519	330.560000
414.207900	334.770000
416.632516	318.880000
419.058554	320.860000
421.483951	324.710000
423.908708	317.270000
426.328707	316.620000
428.750127	320.940000
431.168850	308.340000
433.588994	307.320000
436.006443	299.600000
438.425312	290.260000
440.841488	285.340000
443.252917	268.030000
445.667822	270.230000
448.080037	260.410000
450.491618	258.920000
452.902565	241.850000
455.310826	236.490000
457.718454	238.370000
460.125451	232.120000
462.531815	222.510000
464.935497	232.300000
467.338549	226.460000
469.740971	238.830000
472.142764	236.740000
474.541878	236.380000
476.942412	241.910000
479.342317	248.160000
481.737499	256.570000
484.136148	259.550000
486.530077	274.160000
488.923380	284.400000
491.316057	312.800000
493.708109	328.900000
496.101580	370.270000
498.490338	439.510000
500.876430	540.550000
503.263942	688.010000
505.650830	925.180000
508.035055	1289.520000
510.420699	1850.330000
512.803680	2621.750000
515.184001	3425.580000
517.565741	4003.470000
519.944822	3967.700000
522.325322	3527.540000
524.703164	2930.720000
527.078351	2420.680000
529.452920	2006.840000
531.828908	1715.040000
534.202242	1489.410000
536.576994	1326.740000
538.947061	1189.360000
541.316512	1076.590000
543.687381	976.910000
546.053570	895.140000
548.421177	836.810000
550.786138	781.970000
553.150486	726.790000
555.514222	694.720000
557.879375	667.410000
560.239855	632.290000
562.601754	609.500000
564.961013	587.870000
567.317633	567.460000
569.677698	554.500000
572.031073	526.790000
574.387892	511.340000
576.742075	491.490000
579.095651	481.040000
581.448618	467.680000
583.798954	461.740000
586.150706	442.850000
588.495782	431.920000
590.846322	420.720000
593.190189	407.840000
595.539516	410.010000
597.884196	394.660000
600.226250	392.800000
602.569722	390.480000
604.910571	387.530000
607.250818	388.650000
609.588444	408.240000
611.929505	419.580000
614.265929	439.880000
616.603769	466.720000
618.938991	443.210000
621.271598	440.780000
623.605621	417.940000
625.937031	397.460000
628.267842	383.950000
630.598055	376.750000
632.927670	366.520000
635.252663	371.270000
637.583097	369.750000
639.908909	362.860000
642.232115	367.000000
644.556736	356.950000
646.878753	352.710000
649.200175	348.100000
651.518994	347.340000
653.839229	331.730000
656.158871	337.470000
658.475912	333.010000
660.792361	335.680000
663.106213	331.190000
665.421479	332.730000
667.734149	330.140000
670.048234	328.410000
672.357719	327.140000
674.668620	326.180000
676.976928	324.310000
679.284648	320.330000
681.593783	321.830000
683.898325	308.120000
686.202280	305.560000
688.505650	302.240000
690.810434	295.100000
693.110632	297.470000
695.412244	283.040000
697.713272	274.730000
700.009717	271.200000
702.307578	274.430000
704.604855	264.940000
706.901549	262.910000
709.193667	258.430000
711.489196	261.210000
713.780152	259.720000
716.072522	257.640000
718.362316	257.280000
720.651531	258.220000
722.940165	255.990000
725.226228	261.040000
727.513704	258.080000
729.798610	258.750000
732.082937	261.570000
734.364696	258.270000
736.647869	259.830000
738.930465	255.890000
741.208506	252.300000
743.487960	248.470000
745.766839	253.760000
748.045142	247.970000
750.318896	246.610000
752.594064	246.390000
754.868658	241.450000
757.140693	240.710000
759.414140	240.540000
761.685030	241.250000
763.953364	234.450000
766.223111	239.370000
768.490304	245.690000
770.756926	247.620000
773.022979	243.710000
775.286479	245.480000
777.551393	250.180000
779.815737	243.640000
782.075552	244.930000
784.336780	243.570000
786.597440	242.260000
788.855553	245.300000
791.111122	249.150000
793.370082	244.740000
795.622543	248.870000
797.880371	250.930000
800.133679	250.500000
802.384448	251.130000
804.636629	257.240000
806.886272	248.520000
809.137326	249.410000
811.383869	254.120000
813.631825	243.740000
815.877245	249.690000
818.124077	244.100000
820.370348	234.830000
822.612115	235.040000
824.857264	235.290000
827.095941	233.840000
829.338001	232.450000
831.575562	233.590000
833.814534	228.730000
836.050980	232.680000
838.288837	232.630000
840.524170	229.420000
842.756978	233.520000
844.991198	235.030000
847.222896	227.500000
849.454039	230.260000
851.684627	232.240000
853.914661	224.850000
856.144140	226.780000
858.369138	223.960000
860.597511	223.380000
862.821405	226.460000
865.046709	223.900000
867.267538	218.960000
869.491739	220.710000
871.711467	217.510000
873.932606	218.990000
876.153194	224.870000
878.371272	217.250000
880.590761	222.980000
882.805783	224.610000
885.020257	215.990000
887.234184	215.820000
889.447563	217.110000
891.660395	219.320000
893.872681	211.760000
896.082464	212.720000
898.291702	214.900000
900.500395	218.530000
902.706589	212.370000
904.914192	210.780000
907.119298	220.780000
909.323860	221.810000
911.525926	223.460000
913.729402	227.920000
915.930384	239.220000
918.130825	246.810000
920.332674	254.430000
922.528131	263.410000
924.726948	288.300000
926.921327	321.920000
929.119062	345.610000
931.312362	393.720000
933.507071	434.540000
935.699294	479.700000
937.890979	524.220000
940.082126	552.230000
942.270790	555.340000
944.458917	559.230000
946.644564	554.280000
948.833563	551.110000
951.018139	546.150000
953.202180	542.040000
955.389571	547.170000
957.568658	551.820000
959.751096	553.240000
961.933000	558.020000
964.112430	560.350000
966.289387	562.670000
968.467751	578.190000
970.647523	563.630000
972.820946	571.330000
974.997715	566.850000
977.170078	566.620000
979.343847	566.900000
981.513213	545.560000
983.685924	530.670000
985.856168	497.760000
988.025884	439.490000
990.195071	402.180000
992.359861	368.650000
994.527992	344.790000
996.691729	321.210000
998.856872	310.240000
1001.019557	296.580000
1003.181715	294.460000
1005.341417	284.510000
1007.500595	276.580000
1009.661179	262.170000
1011.819308	257.770000
1013.976913	248.570000
1016.133995	245.490000
1018.290554	226.200000
1020.442733	226.220000
1022.596318	216.080000
1024.749382	215.610000
1026.899998	207.350000
1029.052019	209.450000
1031.199667	206.210000
1033.350647	200.020000
1035.497256	193.550000
1037.643347	196.350000
1039.788918	185.730000
1041.935895	191.180000
1044.076584	186.210000
1046.220601	193.030000
1048.362178	192.390000
1050.503239	194.610000
1052.645704	190.770000
1054.781890	195.540000
1056.921402	193.930000
1059.056558	191.180000
1061.195039	188.430000
1063.329166	191.700000
1065.462780	187.290000
1067.597799	191.730000
1069.728468	185.130000
1071.860542	191.890000
1073.990187	185.750000
1076.119320	182.430000
1078.247941	188.120000
1080.376051	181.410000
1082.501735	186.660000
1084.626909	192.500000
1086.753487	184.670000
1088.875728	185.910000
1090.999372	186.640000
1093.118683	184.820000
1095.243222	177.430000
1097.361516	184.080000
1099.481215	179.400000
1101.598495	179.530000
1103.715269	179.040000
1105.831536	183.530000
1107.945388	179.250000
1110.060643	174.390000
1112.171576	170.770000
1114.285820	176.200000
1116.395744	172.390000
1118.507072	171.640000
1120.617895	170.040000
1122.724403	167.100000
1124.834219	172.870000
1126.939721	172.200000
1129.046626	169.430000
1131.147316	169.040000
1133.253218	171.460000
1135.354811	166.190000
1137.457807	167.760000
1139.560302	167.030000
1141.656591	158.640000
1143.758086	161.020000
1145.855279	161.840000
1147.951973	156.260000
1150.048169	158.680000
1152.143868	155.870000
1154.239069	160.620000
1156.331873	161.310000
1158.426079	165.780000
1160.514094	155.630000
1162.607307	161.020000
1164.694332	159.590000
1166.784656	155.480000
1168.870693	160.870000
1170.960027	160.470000
1173.043180	158.120000
1175.127736	160.890000
1177.213692	162.090000
1179.295367	156.700000
1181.378444	159.080000
1183.459135	164.640000
1185.539334	158.810000
1187.619042	163.950000
1189.698259	159.480000
1191.775094	158.310000
1193.849548	163.900000
1195.927294	154.300000
1198.000769	158.810000
1200.075645	162.500000
1202.146254	160.570000
1204.218265	153.950000
1206.287899	154.030000
1208.358934	156.990000
1210.429481	155.010000
1212.495767	149.590000
1214.563454	151.030000
1216.628769	152.160000
1218.695484	156.980000
1220.757943	155.920000
1222.823687	152.660000
1224.885178	153.880000
1226.948068	151.150000
1229.008591	154.190000
1231.068630	150.350000
1233.128187	148.590000
1235.185378	156.520000
1237.242088	162.180000
1239.296435	163.990000
1241.354062	159.000000
1243.409327	152.200000
1245.460351	155.220000
1247.512775	150.650000
1249.564719	158.920000
1251.614305	159.190000
1253.663412	156.040000
1255.712041	155.820000
1257.760191	158.780000
1259.807863	160.560000
1261.851304	162.330000
1263.898020	162.330000
1265.942384	162.950000
1267.986270	164.780000
1270.027806	159.040000
1272.066992	164.070000
1274.109450	158.590000
1276.147686	165.630000
1278.187321	160.260000
1280.226481	161.750000
1282.261422	162.670000
1284.297763	163.740000
1286.331758	158.360000
1288.367152	161.360000
1290.398332	162.770000
1292.430911	156.730000
1294.463017	158.920000
1296.492783	160.010000
1298.523947	152.910000
1300.550903	157.360000
1302.579257	161.070000
1304.603407	159.180000
1306.630821	161.070000
1308.654033	157.930000
1310.678643	158.710000
1312.700919	165.810000
1314.724592	160.770000
1316.745932	168.360000
1318.766804	164.470000
1320.787210	171.850000
1322.803421	169.410000
1324.821031	184.360000
1326.836312	185.420000
1328.854851	193.540000
1330.869202	194.450000
1332.881227	195.790000
1334.896509	209.890000
1336.907606	210.370000
1338.920100	215.800000
1340.928411	219.300000
1342.939978	216.280000
1344.945505	218.540000
1346.954288	218.140000
1348.958893	204.150000
1350.966752	202.430000
1352.974149	196.780000
1354.975515	190.310000
1356.978278	186.240000
1358.980580	189.400000
1360.982423	173.790000
1362.983806	174.640000
1364.982876	170.880000
1366.981487	167.250000
1368.979640	161.230000
1370.977335	157.710000
1372.970866	155.590000
1374.965794	154.210000
1376.960265	154.090000
1378.954279	150.610000
1380.945986	147.140000
1382.937237	149.730000
1384.926183	147.690000
1386.916524	143.350000
1388.906410	140.440000
1390.893993	142.220000
1392.881121	139.870000
1394.865949	139.410000
1396.852170	130.200000
1398.836092	133.120000
1400.819561	139.950000
1402.802578	137.460000
1404.783296	136.500000
1406.765410	135.900000
1408.745226	136.880000
1410.724592	136.520000
1412.699818	134.230000
1414.678284	135.410000
1416.654455	134.240000
1418.630178	137.480000
1420.605451	137.480000
1422.578433	141.820000
1424.550967	138.550000
1426.523054	139.940000
1428.494692	132.360000
1430.462202	136.570000
1432.434787	136.830000
1434.399565	132.490000
1436.369416	135.720000
1438.335142	128.050000
1440.302261	135.220000
1442.267097	140.910000
1444.227814	138.320000
1446.193598	135.700000
1448.153427	136.880000
1450.114649	142.330000
1452.077264	138.560000
1454.035764	141.480000
1455.993822	145.770000
1457.951437	141.870000
1459.908611	139.620000
1461.863509	142.370000
1463.819799	145.150000
1465.773815	135.480000
1467.727391	144.150000
1469.678694	141.060000
1471.631389	142.700000
1473.581813	140.140000
1475.531798	141.410000
1477.481343	135.470000
1479.428620	134.710000
1481.373630	129.420000
1483.320031	130.690000
1485.265996	138.390000
1487.211522	130.390000
1489.154784	129.760000
1491.097609	133.190000
1493.038171	130.970000
1494.980124	125.500000
1496.919816	130.320000
1498.859072	128.820000
1500.797893	137.790000
1502.734455	138.680000
1504.672408	134.700000
1506.608103	133.380000
1508.543364	128.360000
1510.476368	136.560000
1512.408940	133.330000
1514.341080	138.300000
1516.272788	138.990000
1518.202242	140.030000
1520.133087	141.170000
1522.063501	137.570000
1523.989841	142.050000
1525.917573	138.520000
1527.843054	139.060000
1529.768106	137.110000
1531.692729	139.290000
1533.616923	149.580000
1535.538870	146.260000
1537.462206	144.120000
1539.383297	144.770000
1541.302143	156.130000
1543.222379	158.090000
1545.140371	157.200000
1547.057937	165.560000
1548.973261	164.390000
1550.889975	170.660000
1552.802634	180.900000
1554.718497	185.850000
1556.632120	198.240000
1558.543506	205.770000
1560.456280	214.260000
1562.365005	226.390000
1564.275120	244.420000
1566.184811	261.280000
1568.094078	295.970000
1570.001112	324.230000
1571.905913	366.320000
1573.812103	419.590000
1575.716061	471.600000
1577.619599	522.850000
1579.522715	571.110000
1581.423603	607.230000
1583.325878	597.310000
1585.225926	567.330000
1587.127361	506.910000
1589.024763	434.250000
1590.921746	375.800000
1592.818311	325.600000
1594.716264	282.680000
1596.608382	249.280000
1598.503693	227.460000
1600.398587	215.150000
1602.291259	195.390000
1604.183515	189.550000
1606.073551	186.410000
1607.963171	180.760000
1609.852375	174.380000
1611.741165	175.110000
1613.627738	171.520000
1615.515697	172.340000
1617.399640	165.870000
1619.284971	161.290000
1621.169887	162.540000
1623.052591	158.730000
1624.936680	149.740000
1626.816759	147.860000
1628.698224	142.180000
1630.577479	136.320000
1632.458120	131.470000
1634.332957	134.190000
1636.212776	125.110000
1638.088589	131.520000
1639.963992	127.200000
1641.840782	128.270000
1643.711774	126.710000
1645.585948	121.050000
1647.456124	116.280000
1649.329480	116.830000
1651.200633	113.230000
1653.069584	111.600000
1654.939921	114.360000
1656.806264	120.000000
1658.673993	111.820000
1660.539524	112.630000
1662.406439	110.800000
1664.269366	111.480000
1666.133678	109.570000
1667.995794	107.540000
1669.857506	110.050000
1671.720602	110.340000
1673.581504	111.770000
1675.440212	106.910000
1677.298517	109.670000
1679.158207	105.270000
1681.012130	100.670000
1682.869225	107.700000
1684.725918	105.310000
1686.578635	103.550000
1688.434523	98.250000
1690.286436	102.820000
1692.137949	103.420000
1693.989061	102.180000
1695.839773	103.030000
1697.690084	100.450000
1699.538211	102.540000
1701.387721	98.510000
1703.231483	94.020000
1705.080194	98.180000
1706.923160	102.240000
1708.769291	96.340000
1710.611461	100.690000
1712.456795	97.510000
1714.296389	101.950000
1716.137367	100.180000
1717.979728	97.470000
1719.818133	99.140000
1721.657921	98.220000
1723.495534	94.690000
1725.332751	101.760000
1727.167795	97.760000
1729.004222	93.430000
1730.838477	96.550000
1732.672337	99.530000
1734.505804	101.970000
1736.335324	97.670000
1738.168003	93.510000
1739.996738	96.660000
1741.828631	100.760000
1743.656581	95.950000
1745.484139	90.440000
1747.311305	94.170000
1749.138080	94.800000
1750.964464	90.610000
1752.786911	89.450000
1754.612512	94.070000
1756.434179	91.010000
1758.257228	93.120000
1760.078116	99.290000
1761.898614	95.180000
1763.720494	96.420000
1765.536674	94.240000
1767.356006	91.600000
1769.171411	93.960000
1770.989966	96.110000
1772.804596	97.950000
1774.618840	94.920000
1776.432696	89.720000
1778.246166	94.880000
1780.057483	95.190000
1781.870181	97.290000
1783.682492	93.940000
1785.490886	89.740000
1787.300661	96.450000
1789.106520	95.790000
1790.915526	92.450000
1792.720617	91.660000
1794.527090	92.590000
1796.333179	93.300000
1798.135358	88.750000
1799.940680	88.120000
1801.742094	88.070000
1803.544888	92.560000
1805.343776	91.410000
1807.144045	88.800000
1808.943932	90.680000
1810.741678	88.290000
1812.539043	93.250000
1814.336027	90.580000
1816.132631	92.890000
1817.927096	87.350000
1819.722940	89.950000
1821.513130	87.750000
1823.308216	92.560000
1825.097649	93.550000
1826.890219	92.380000
1828.680654	91.990000
1830.468955	97.450000
1832.260391	93.570000
1834.046181	91.600000
1835.833351	90.550000
1837.618389	90.950000
1839.406561	93.510000
1841.190847	95.150000
1842.973004	95.890000
1844.756539	93.950000
1846.537946	91.490000
1848.320732	91.460000
1850.099638	94.780000
1851.879922	95.830000
1853.658080	93.880000
1855.437617	92.320000
1857.215029	101.140000
1858.990317	86.190000
1860.766984	90.780000
1862.541527	90.610000
1864.317449	91.460000
1866.087751	91.770000
1867.861179	92.950000
1869.632488	90.420000
1871.403427	89.810000
1873.175742	93.430000
1874.942445	88.920000
1876.712272	97.360000
1878.478236	98.330000
1880.247324	97.060000
1882.012550	90.640000
1883.777407	99.320000
1885.543642	92.660000
1887.306018	94.370000
1889.068027	90.430000
1890.829668	94.820000
1892.590943	88.420000
1894.351850	95.960000
1896.112391	94.490000
1897.870822	83.050000
1899.628888	89.180000
1901.384845	86.890000
1903.142180	87.470000
1904.899148	87.330000
1906.654011	86.580000
1908.406768	89.140000
1910.159162	82.220000
1911.912931	88.160000
1913.664597	85.360000
1915.414161	85.710000
1917.165101	83.040000
1918.915677	84.380000
1920.662414	82.580000
1922.410528	80.750000
1924.156542	84.380000
1925.903932	83.670000
1927.649223	84.510000
1929.392417	82.220000
1931.136987	85.210000
1932.879460	84.450000
1934.621573	84.490000
1936.363326	86.210000
1938.104720	81.700000
1939.844020	82.440000
1941.582961	82.940000
1943.321543	82.030000
1945.058033	87.250000
1946.794166	85.570000
1948.531673	83.890000
1950.265358	87.660000
1952.000418	80.820000
1953.733390	82.270000
1955.466005	83.000000
1957.198263	85.240000
1958.930165	80.670000
1960.659981	83.930000
1962.387713	85.340000
1964.116818	81.530000
1965.845569	81.820000
1967.572236	79.920000
1969.298549	79.760000
1971.026235	85.440000
1972.748385	83.730000
1974.473636	78.300000
1976.195081	77.030000
1977.919625	84.150000
1979.642090	80.990000
1981.360751	83.190000
1983.082511	82.070000
1984.800469	85.010000
1986.519800	79.040000
1988.235332	87.050000
1989.955685	85.290000
1991.672238	83.500000
1993.384996	78.900000
1995.100849	85.160000
1996.814629	80.800000
1998.528060	82.490000
2000.239420	86.720000
2001.952153	79.200000
2003.661094	86.650000
2005.373129	77.820000
2007.079654	80.910000
2008.789272	81.660000
2010.496822	81.150000
2012.204025	83.000000
2013.909162	81.650000
2015.613952	82.700000
2017.320114	80.150000
2019.022494	85.980000
2020.726246	83.940000
2022.427934	80.320000
2024.129278	83.330000
2025.830276	85.820000
2027.529214	80.700000
2029.229522	75.300000
2030.926056	87.070000
2032.623961	80.930000
2034.319807	77.760000
2036.018739	76.810000
2037.712185	76.380000
2039.407003	74.560000
2041.101477	76.740000
2042.792183	77.680000
2044.485973	76.350000
2046.175996	75.310000
2047.867390	77.090000
2049.556731	76.350000
2051.247442	80.870000
2052.934391	81.350000
2054.620999	81.110000
2056.308978	77.410000
2057.993197	82.040000
2059.678786	75.570000
2061.364036	76.450000
2063.047238	79.180000
2064.731809	78.840000
2066.410918	77.550000
2068.094812	76.430000
2069.773246	75.350000
2071.454756	75.200000
2073.132516	73.740000
2074.809938	75.930000
2076.488731	73.500000
2078.165480	70.530000
2079.840188	77.100000
2081.516265	73.290000
2083.190302	74.530000
2084.864003	77.070000
2086.537369	77.800000
2088.208697	74.580000
2089.879690	76.720000
2091.550349	75.000000
2093.220673	72.800000
2094.890664	80.310000
2096.558619	77.420000
2098.226241	77.920000
2099.891829	75.180000
2101.558785	75.530000
2103.223707	77.980000
2104.888298	76.770000
2106.550857	72.090000
2108.214784	75.290000
2109.876681	72.570000
2111.538246	75.780000
2113.199480	76.680000
2114.858686	77.850000
2116.517562	75.990000
2118.176107	72.030000
2119.834323	76.380000
2121.488815	81.530000
2123.146372	73.590000
2124.803600	71.350000
2126.457106	73.810000
2128.111980	74.380000
2129.763136	74.820000
2131.417353	78.890000
2133.067854	72.720000
2134.719721	79.020000
2136.366180	75.030000
2138.017394	72.670000
2139.664894	74.280000
2141.313761	74.490000
2142.960610	73.440000
2144.607132	64.950000
2146.253329	71.620000
2147.895818	69.810000
2149.541365	69.750000
2151.183205	77.520000
2152.828102	71.470000
2154.469294	74.150000
2156.110162	76.990000
2157.750706	69.720000
2159.389239	70.120000
2161.029137	77.650000
2162.665335	79.460000
2164.302899	73.610000
2165.940140	77.530000
2167.575372	72.020000
2169.210283	72.060000
2170.844872	74.600000
2172.479139	78.040000
2174.109714	79.790000
2175.743339	74.480000
2177.373273	73.820000
2179.004572	72.970000
2180.633867	73.510000
2182.262841	72.930000
2183.891497	75.590000
2185.519833	71.720000
2187.146166	69.640000
2188.772181	74.200000
2190.396195	69.140000
2192.021573	72.290000
2193.644952	72.390000
2195.269694	69.510000
2196.890756	73.720000
2198.511501	72.440000
2200.133611	72.190000
2201.753723	70.380000
2203.371838	71.260000
2204.989638	75.310000
2206.607123	73.710000
2208.224292	71.900000
2209.841146	74.430000
2211.457685	74.320000
2213.072230	70.980000
2214.684783	78.680000
2216.298700	71.970000
2217.910626	65.030000
2219.523915	76.120000
2221.135214	77.310000
2222.744523	73.590000
2224.355196	70.390000
2225.963880	74.680000
2227.572252	72.950000
2229.178636	69.490000
2230.786384	69.490000
2232.392145	71.490000
2233.997595	71.730000
2235.601060	65.200000
2237.205889	65.320000
2238.808733	72.920000
2240.409594	70.620000
2242.011818	64.690000
2243.612059	71.680000
2245.213663	70.580000
2246.811615	70.710000
2248.410929	71.040000
2250.008263	71.210000
2251.605288	69.090000
2253.203676	71.950000
2254.798415	72.340000
2256.391177	70.340000
2257.985302	72.300000
2259.580788	69.510000
2261.172630	75.410000
2262.764165	75.740000
2264.357061	69.980000
2265.944648	76.930000
2267.536932	69.000000
2269.123908	72.000000
2270.713913	73.510000
2272.298613	73.630000
2273.888007	73.430000
2275.472098	70.720000
2277.057551	68.190000
2278.641034	71.140000
2280.227544	70.620000
2281.810420	68.860000
2283.392992	64.800000
2284.975261	70.490000
2286.553901	77.540000
2288.135564	71.630000
2289.713599	67.010000
2291.294657	63.690000
2292.872089	66.170000
2294.447556	68.650000
2296.026046	68.930000
2297.600912	69.180000
2299.175477	72.170000
2300.749742	64.820000
2302.323706	68.760000
2303.897370	69.540000
2305.470733	68.720000
2307.040478	66.570000
2308.609924	70.750000
2310.182389	72.430000
2311.749578	66.280000
2313.319786	73.450000
2314.886379	70.580000
2316.454332	65.030000
2318.020330	69.500000
2319.586029	66.530000
2321.151432	71.560000
2322.714881	68.850000
2324.279688	71.140000
2325.840888	75.370000
2327.405102	77.600000
2328.964055	77.440000
2330.526021	79.480000
2332.086037	75.570000
2333.645757	67.500000
2335.203528	65.530000
2336.761005	64.940000
2338.318186	69.490000
2339.873421	66.940000
2341.428361	65.790000
2342.983008	67.290000
2344.537361	68.290000
2346.091420	69.110000
2347.645185	70.500000
2349.197007	64.650000
2350.746885	67.470000
2352.299771	67.690000
2353.847415	69.190000
2355.398066	68.230000
2356.945127	74.070000
2358.493545	67.430000
2360.041671	68.170000
2361.586210	68.910000
2363.132106	67.420000
2364.676063	67.990000
2366.221378	68.430000
2367.763108	64.860000
2369.306195	69.530000
2370.847347	66.690000
2372.388209	67.390000
2373.928782	62.870000
2375.469066	67.870000
2377.009061	67.040000
2378.545477	67.070000
2380.084895	61.940000
2381.620736	69.350000
2383.157933	70.140000
2384.691555	66.900000
2386.228178	71.710000
2387.762869	65.300000
2389.295631	62.440000
2390.828107	63.620000
2392.358654	67.740000
2393.892199	71.300000
2395.420533	65.880000
2396.950223	69.990000
2398.479628	66.540000
2400.008747	63.220000
2401.537582	68.000000
2403.061211	76.100000
2404.589477	70.300000
2406.112539	74.250000
2407.640235	71.460000
2409.161092	69.040000
2410.686582	71.910000
2412.208511	71.720000
2413.731796	69.910000
2415.253160	78.370000
2416.772604	75.870000
2418.293403	69.140000
2419.812283	75.500000
2421.330881	78.440000
2422.847562	76.660000
2424.365597	74.350000
2425.883351	75.600000
2427.397554	76.840000
2428.911476	74.720000
2430.425118	74.890000
2431.940115	80.860000
2433.451563	78.420000
2434.964366	80.010000
2436.475256	74.900000
2437.985866	80.620000
2439.494565	84.350000
2441.006251	86.480000
2442.514392	80.340000
2444.022256	85.600000
2445.529842	82.120000
2447.033887	80.190000
2448.540918	88.440000
2450.046040	88.270000
2451.550885	86.790000
2453.053823	85.550000
2454.556484	93.270000
2456.058869	82.220000
2457.559349	83.230000
2459.061182	87.820000
2460.561111	81.100000
2462.060764	81.910000
2463.560141	81.050000
2465.057616	83.620000
2466.553190	79.480000
2468.051743	79.480000
2469.546767	84.620000
2471.043145	80.340000
2472.535996	73.200000
2474.030199	77.900000
2475.524129	70.920000
2477.014536	76.470000
2478.507919	72.220000
2479.999405	80.650000
2481.488994	74.060000
2482.978311	73.970000
2484.465733	77.020000
2485.956130	76.410000
2487.443008	71.680000
2488.931238	75.230000
2490.415952	74.920000
2491.900395	76.790000
2493.386190	70.720000
2494.870092	74.980000
2496.355346	74.870000
2497.835466	70.140000
2499.318558	72.410000
2500.799760	71.810000
2502.280693	70.580000
2503.759737	70.200000
2505.238512	68.160000
2506.717019	65.480000
2508.195258	67.260000
2509.673228	67.650000
2511.147694	68.560000
2512.625128	65.710000
2514.099059	69.510000
2515.574341	65.390000
2517.049355	63.950000
2518.520868	64.410000
2519.993732	65.050000
2521.464712	69.110000
2522.937043	67.050000
2524.404261	63.570000
2525.874444	71.650000
2527.342747	66.700000
2528.810785	67.100000
2530.278558	64.640000
2531.746066	64.050000
2533.213309	64.340000
2534.677060	72.180000
2536.142161	69.250000
2537.605385	68.050000
2539.069959	60.500000
2540.531043	67.140000
2541.993477	64.210000
2543.455648	70.380000
2544.914333	69.430000
2546.377590	65.540000
2547.835750	62.970000
2549.295259	64.640000
2550.749675	66.120000
2552.208660	73.080000
2553.665774	62.320000
2555.121017	69.760000
2556.575999	72.520000
2558.029111	62.820000
2559.483572	66.090000
2560.936164	73.290000
2562.388496	65.030000
2563.838960	67.510000
2565.292380	62.660000
2566.740718	67.240000
2568.192012	68.400000
2569.641439	67.130000
2571.087395	69.900000
2572.536305	69.170000
2573.981744	68.320000
2575.428532	69.240000
2576.873456	70.470000
2578.318123	73.870000
2579.764137	68.990000
2581.206684	70.050000
2582.650579	72.360000
2584.091009	76.730000
2585.532787	70.480000
2586.972704	71.260000
2588.413969	73.520000
2589.851773	70.160000
2591.292526	75.210000
2592.728216	77.050000
2594.166856	68.830000
2595.603639	73.780000
2597.038565	73.370000
2598.476440	74.270000
2599.909256	72.850000
2601.343420	78.110000
2602.775730	74.740000
2604.209386	74.230000
2605.641189	81.410000
2607.072739	75.640000
2608.504035	73.780000
2609.933479	78.310000
2611.362672	79.510000
2612.790013	77.700000
2614.218701	83.470000
2615.647136	78.860000
2617.072124	86.190000
2618.498459	87.460000
2619.922945	85.430000
2621.348777	87.600000
2622.771165	96.690000
2624.194899	94.890000
2625.616786	96.610000
2627.038424	99.810000
2628.458216	102.460000
2629.879354	102.240000
2631.300242	108.830000
2632.717692	108.420000
2634.138081	115.050000
2635.555033	116.140000
2636.971737	121.460000
2638.388192	124.700000
2639.804399	131.590000
2641.220357	138.380000
2642.634475	143.710000
2644.048346	146.160000
2645.460377	153.200000
2646.873753	166.370000
2648.283699	170.550000
2649.696580	173.930000
2651.106034	184.490000
2652.515241	202.390000
2653.922612	208.950000
2655.332917	222.140000
2656.741386	234.530000
2658.148020	240.900000
2659.554409	250.670000
2660.958964	266.490000
2662.364863	269.260000
2663.768929	282.760000
2665.172751	297.450000
2666.576328	304.010000
2667.978073	316.040000
2669.381162	325.250000
2670.780834	341.070000
2672.181848	343.800000
2673.579447	351.510000
2674.979976	360.190000
2676.377090	361.820000
2677.775547	361.700000
2679.172176	363.050000
2680.568563	354.790000
2681.964709	351.580000
2683.359028	336.000000
2684.754690	330.100000
2686.146942	313.470000
2687.540538	297.960000
2688.932309	283.930000
2690.325422	263.830000
2691.716712	249.920000
2693.106179	245.580000
2694.495406	230.530000
2695.884394	211.040000
2697.274724	203.890000
2698.660069	197.560000
2700.048338	183.800000
2701.434787	177.660000
2702.820997	164.840000
2704.206969	157.200000
2705.589541	148.440000
2706.973456	148.980000
2708.357133	142.130000
2709.740572	139.360000
2711.120615	128.790000
2712.502000	124.360000
2713.881569	119.590000
2715.262480	111.270000
2716.641576	110.730000
2718.018857	109.920000
2719.397480	103.670000
2720.774290	103.800000
2722.150864	105.040000
2723.527202	98.330000
2724.901728	99.660000
2726.277595	89.500000
2727.650075	88.870000
2729.025472	87.070000
2730.395907	79.860000
2731.767684	84.430000
2733.139226	80.060000
2734.508960	81.540000
2735.880035	80.520000
2737.249302	82.340000
2738.618335	82.390000
2739.985561	73.460000
2741.352555	72.410000
2742.719316	75.090000
2744.085844	71.570000
2745.450567	65.280000
2746.815059	72.590000
2748.179318	71.490000
2749.543345	71.660000
2750.907141	67.590000
2752.267563	70.440000
2753.630896	70.480000
2754.989286	64.020000
2756.350586	65.080000
2757.708515	63.600000
2759.069354	61.990000
2760.428392	62.760000
2761.784062	62.840000
2763.142640	61.010000
2764.497852	58.340000
2765.852834	61.730000
2767.206019	59.840000
2768.562111	60.990000
2769.914839	63.620000
2771.267338	56.150000
2772.619609	61.020000
2773.973219	60.390000
2775.323467	63.570000
2776.671922	56.700000
2778.023281	60.900000
2779.371281	58.100000
2780.720620	65.160000
2782.068166	56.890000
2783.415485	59.400000
2784.762578	62.390000
2786.107880	58.660000
2787.452956	61.300000
2788.797806	57.570000
2790.142429	58.300000
2791.483701	58.440000
2792.826311	57.760000
2794.168695	59.720000
2795.510855	65.370000
2796.849665	61.050000
2798.191374	59.590000
2799.529736	57.710000
2800.869435	53.070000
2802.207348	53.870000
2803.543477	57.830000
2804.879382	57.940000
2806.216625	54.200000
2807.552084	55.710000
2808.887320	57.050000
2810.220773	54.860000
2811.555564	63.750000
2812.887013	59.260000
2814.221358	62.290000
2815.550805	58.490000
2816.881589	56.600000
2818.212151	58.460000
2819.540934	53.600000
2820.871053	50.820000
2822.199394	56.150000
2823.527514	54.560000
2824.853857	57.230000
2826.181535	51.710000
2827.505881	53.970000
2828.831562	55.440000
2830.155468	51.680000
2831.479155	57.740000
2832.804177	54.660000
2834.125869	56.550000
2835.447343	51.910000
2836.768598	51.900000
2838.089634	53.270000
2839.408898	54.180000
2840.729497	52.420000
2842.048324	52.690000
2843.366933	50.910000
2844.683772	50.920000
2846.000393	52.580000
2847.316796	56.490000
2848.631431	46.990000
2849.947400	53.860000
2851.260049	51.810000
2852.574034	44.820000
2853.887801	56.630000
2855.201353	52.000000
2856.513137	49.890000
2857.823156	47.370000
2859.134508	55.210000
2860.442546	53.150000
2861.751919	53.860000
2863.061076	49.030000
2864.370018	54.770000
2865.677197	48.220000
2866.982612	52.640000
2868.289362	45.870000
2869.594349	53.200000
2870.899123	45.360000
2872.202135	53.090000
2873.508029	56.080000
2874.809067	52.110000
2876.111440	51.560000
2877.412053	50.870000
2878.714000	54.160000
2880.015734	49.360000
2881.314163	60.110000
2882.613927	50.930000
2883.911932	47.390000
2885.209726	47.310000
2886.505764	48.400000
2887.803135	56.810000
2889.098750	49.440000
2890.394154	53.790000
2891.689348	48.680000
2892.981243	49.580000
2894.276015	50.680000
2895.567490	48.810000
2896.860298	53.840000
2898.152896	50.600000
2899.442200	53.180000
2900.732836	54.100000
2902.021721	52.380000
2903.311939	49.470000
2904.598865	46.730000
2905.887123	51.810000
2907.173631	47.250000
2908.459932	52.920000
2909.746024	47.820000
2911.030368	50.870000
2912.317584	55.390000
2913.599972	55.480000
2914.883693	53.770000
2916.165668	49.000000
2917.447436	49.270000
2918.727458	54.990000
2920.010350	47.870000
2921.291497	51.800000
2922.569362	52.210000
2923.850096	53.330000
2925.127549	53.040000
2926.404797	50.860000
2927.680302	51.550000
2928.958675	54.900000
2930.232233	54.360000
2931.508659	50.330000
2932.783344	48.650000
2934.056289	52.870000
2935.330564	46.660000
2936.603100	51.950000
2937.875432	47.990000
2939.144490	46.500000
2940.416414	49.030000
2941.686600	50.640000
2942.956583	55.440000
2944.226362	44.430000
2945.494404	55.550000
2946.760711	47.100000
2948.026815	48.190000
2949.294249	46.510000
2950.559949	50.860000
2951.825446	48.960000
2953.090741	49.940000
2954.352771	53.130000
2955.616132	45.200000
2956.879290	47.660000
2958.140717	44.920000
2959.403473	50.200000
2960.664498	45.430000
2961.923791	47.470000
2963.182885	47.910000
2964.441778	43.180000
2965.700471	49.400000
2966.958964	42.480000
2968.215728	48.420000
2969.472292	44.970000
2970.727129	42.080000
2971.983295	42.520000
2973.236205	49.790000
2974.490445	44.300000
2975.744486	43.920000
2976.996801	43.420000
2978.248918	44.760000
2979.499310	48.790000
2980.752557	47.070000
2982.001027	45.170000
2983.252351	45.480000
2984.500427	47.880000
2985.748305	37.910000
2986.995986	45.240000
2988.243471	43.670000
2989.489234	44.390000
2990.734800	41.070000
2991.981694	42.350000
2993.225344	42.570000
2994.470322	48.990000
2995.712057	46.380000
2996.956643	42.430000
2998.199509	47.040000
2999.439135	46.840000
3000.681612	43.120000
3001.920848	40.060000
3003.161412	46.320000
3004.400259	46.870000
3005.638912	46.600000
3006.875849	46.810000
3008.114113	48.170000
3009.350663	41.730000
3010.587018	43.010000
3011.823180	37.710000
3013.057629	45.840000
3014.291884	43.200000
3015.525946	44.050000
3016.758296	38.540000
3017.988934	34.850000
3019.222418	40.540000
3020.454190	44.480000
3021.684252	47.740000
3022.914122	53.210000
3024.142282	43.140000
3025.371768	45.690000
3026.599546	37.520000
3027.827132	47.990000
3029.056044	36.760000
3030.280214	48.240000
3031.507227	43.230000
3032.731016	41.520000
3033.956132	40.750000
3035.179541	46.420000
3036.402761	42.910000
3037.624275	38.020000
3038.848630	36.600000
3040.068250	42.650000
3041.289195	44.810000
3042.509952	43.600000
3043.729005	42.420000
3044.949384	37.830000
3046.166546	39.610000
3047.385033	46.560000
3048.601819	36.810000
3049.818416	42.710000
3051.034826	38.200000
3052.248022	36.210000
3053.464056	30.330000
3054.676878	37.230000
3055.892537	33.090000
3057.103473	44.620000
3058.315734	38.900000
3059.527809	45.500000
3060.739697	37.870000
3061.949887	42.770000
3063.159891	44.430000
3064.369710	43.070000
3065.577832	39.940000
3066.785768	37.180000
3067.992010	40.190000
3069.199575	40.920000
3070.405447	39.850000
3071.611133	38.780000
3072.816634	36.510000
3074.020442	38.040000
3075.225574	40.580000
3076.429014	37.280000
3077.630761	37.820000
3078.832325	30.600000
3080.033705	41.300000
3081.234901	31.630000
3082.434407	38.440000
3083.633729	39.970000
3084.834375	40.490000
3086.033332	33.450000
3087.229093	37.710000
3088.427684	37.130000
3089.623081	35.270000
3090.819801	38.300000
3092.013329	34.090000
3093.209686	36.130000
3094.404355	39.880000
3095.595834	33.900000
3096.791644	34.250000
3097.982761	33.470000
3099.175200	38.890000
3100.364452	35.150000
3101.556530	41.760000
3102.746923	37.270000
3103.934131	28.780000
3105.122662	37.160000
3106.312515	33.460000
3107.499183	41.850000
3108.685672	33.720000
3109.871981	32.630000
3111.059612	39.300000
3112.244062	39.130000
3113.426831	31.820000
3114.612424	31.520000
3115.796336	34.280000
3116.978570	33.410000
3118.160625	38.040000
3119.342503	33.980000
3120.524202	40.200000
3121.704223	41.130000
3122.882568	34.700000
3124.063734	36.770000
3125.241724	35.890000
3126.419537	40.460000
3127.597173	33.590000
3128.773134	37.040000
3129.948918	36.510000
3131.126024	36.400000
3132.301455	36.990000
3133.475213	37.890000
3134.647299	37.920000
3135.820705	38.090000
3136.993936	33.930000
3138.165494	37.050000
3139.338374	29.010000
3140.508086	33.360000
3141.679119	33.890000
3142.848481	32.970000
3144.016174	35.060000
3145.186682	36.320000
3146.352531	33.490000
3147.522690	30.790000
3148.688191	37.480000
3149.853519	35.390000
3151.018673	37.560000
3152.183653	34.180000
3153.349954	38.440000
3154.511601	38.150000
3155.674569	33.870000
3156.837363	35.810000
3157.999985	29.110000
3159.160942	36.920000
3160.321726	29.200000
3161.482338	33.340000
3162.641287	32.540000
3163.800063	38.570000
3164.958668	32.800000
3166.117101	32.750000
3167.275362	34.280000
3168.431961	31.240000
3169.586899	37.960000
3170.743156	35.050000
3171.897753	31.920000
3173.052178	31.650000
3174.204944	37.620000
3175.357540	38.980000
3176.509965	36.250000
3177.662221	31.980000
3178.814307	41.270000
3179.963246	34.350000
3181.114992	32.210000
3182.265080	38.570000
3183.413512	37.560000
3184.561775	30.850000
3185.709868	29.930000
3186.857793	37.470000
3188.004063	37.960000
3189.150164	37.550000
3190.294610	37.220000
3191.438889	35.890000
3192.583000	35.770000
3193.728429	32.920000
3194.870719	31.550000
3196.012841	32.930000
3197.154796	31.460000
3198.296585	34.610000
3199.438206	32.270000
3200.576691	33.880000
3201.716494	29.640000
3202.857615	33.080000
3203.995601	34.470000
3205.131938	33.400000
3206.268109	35.970000
3207.405598	34.420000
3208.541438	34.510000
3209.678594	41.160000
3210.811138	34.100000
3211.947964	35.570000
3213.080178	34.770000
3214.213710	31.240000
3215.347076	35.390000
3216.477315	32.030000
3217.610352	36.600000
3218.740263	35.560000
3219.871491	34.140000
3220.999593	27.420000
3222.130492	37.160000
3223.259748	34.960000
3224.387359	41.960000
3225.511849	36.300000
3226.640614	33.510000
3227.766257	36.310000
3228.891737	37.650000
3230.015576	35.160000
3231.142209	36.010000
3232.264245	42.770000
3233.387597	45.190000
3234.510787	40.930000
3235.633815	40.280000
3236.755203	39.560000
3237.876430	34.970000
3238.996018	43.880000
3240.115445	42.840000
3241.233234	45.400000
3242.353816	43.840000
3243.471283	37.990000
3244.588591	43.050000
3245.705737	44.960000
3246.821248	38.360000
3247.938074	40.900000
3249.051789	38.940000
3250.168295	41.420000
3251.283165	37.530000
3252.394927	31.410000
3253.506530	33.110000
3254.619447	33.050000
3255.732206	35.680000
3256.841858	29.500000
3257.952825	30.890000
3259.063632	36.000000
3260.172809	35.450000
3261.280354	31.870000
3262.389214	30.860000
3263.497915	31.140000
3264.603514	30.700000
3265.710428	32.190000
3266.815712	31.980000
3267.922310	31.590000
3269.025808	23.090000
3270.130620	30.820000
3271.235275	35.450000
3272.336831	30.650000
3273.438232	31.100000
3274.540946	35.780000
3275.643503	32.910000
3276.742965	34.550000
3277.845209	23.930000
3278.944359	26.540000
3280.041883	31.010000
3281.139252	34.990000
3282.239404	31.020000
3283.336462	29.700000
3284.433365	30.750000
3285.530114	32.680000
3286.622303	28.220000
3287.718741	29.750000
3288.813558	35.030000
3289.908219	29.150000
3291.001259	31.620000
3292.094145	28.830000
3293.185410	25.700000
3294.277988	29.960000
3295.368945	29.040000
3296.458283	27.360000
3297.547468	26.440000
3298.637966	34.350000
3299.725379	27.660000
3300.812640	32.090000
3301.901213	30.870000
3302.989633	28.630000
3304.073506	30.260000
3305.161621	34.640000
3306.246655	29.560000
3307.330072	28.610000
3308.414802	29.280000
3309.497917	30.280000
3310.582343	23.460000
3311.663691	25.920000
3312.746351	28.770000
3313.827397	27.670000
3314.908292	32.110000
3315.987574	22.980000
3317.066705	34.010000
3318.147147	24.200000
3319.224516	31.630000
3320.303196	30.160000
3321.380264	31.820000
3322.457182	30.650000
3323.532489	26.900000
3324.607647	26.470000
3325.684116	29.080000
3326.757515	32.790000
3327.830765	35.410000
3328.905326	21.050000
3329.978277	28.070000
3331.049621	25.010000
3332.122275	29.540000
3333.191862	27.300000
3334.262760	26.630000
3335.332051	27.240000
3336.402653	32.110000
3337.471648	32.250000
3338.539037	30.350000
3339.604821	28.610000
3340.674831	25.620000
3341.741778	26.050000
3342.805663	26.170000
3343.872316	31.010000
3344.937364	27.460000
3346.000810	31.460000
3347.064108	29.740000
3348.127261	25.330000
3349.190267	26.490000
3350.253126	25.830000
3351.314384	34.360000
3352.372585	26.490000
3353.435007	27.900000
3354.494372	24.360000
3355.553592	24.930000
3356.614122	28.870000
3357.670142	28.580000
3358.728927	26.500000
3359.783204	27.270000
3360.840244	26.880000
3361.895687	31.130000
3362.952438	27.820000
3364.007592	30.310000
3365.061148	29.240000
3366.113107	28.000000
3367.167828	22.650000
3368.219500	28.170000
3369.271029	25.470000
3370.323867	21.010000
3371.373657	24.970000
3372.424755	29.770000
3373.472808	30.450000
3374.523621	29.430000
3375.571388	30.280000
3376.619013	28.250000
3377.666495	28.300000
3378.712385	29.100000
3379.759583	26.230000
3380.803739	30.040000
3381.850653	29.710000
3382.895975	26.880000
3383.938257	24.440000
3384.980397	27.730000
3386.023845	27.590000
3387.067153	27.390000
3388.108870	23.870000
3389.150446	27.320000
3390.191882	27.360000
3391.231728	28.430000
3392.269987	23.130000
3393.309553	24.440000
3394.348978	23.980000
3395.386817	21.340000
3396.423068	27.860000
3397.459179	33.400000
3398.496598	29.690000
3399.530984	27.620000
3400.566677	30.210000
3401.602231	27.260000
3402.634754	26.300000
3403.670030	23.900000
3404.702275	24.430000
3405.734382	26.890000
3406.764905	28.500000
3407.796736	23.020000
3408.828427	27.970000
3409.857092	29.870000
3410.885618	26.300000
3411.915452	28.370000
3412.945147	19.610000
3413.971817	23.280000
3414.999794	26.010000
3416.024746	29.880000
3417.052448	26.330000
3418.077127	23.530000
3419.103112	32.760000
3420.127517	20.300000
3421.151786	25.330000
3422.174476	28.900000
3423.197030	23.190000
3424.220890	21.030000
3425.241730	23.360000
3426.262435	25.530000
3427.284445	25.510000
3428.303437	23.490000
3429.322294	21.900000
3430.342456	19.310000
3431.359602	20.580000
