-117.897011	4.180000
-115.227411	2.870000
-112.560746	-1.140000
-109.894833	0.680000
-107.231852	-4.990000
-104.567442	-0.920000
-101.905962	-1.300000
-99.243052	3.420000
-96.585250	0.610000
-93.926017	5.080000
-91.267533	-4.930000
-88.611974	10.270000
-85.954986	1.210000
-83.303095	4.060000
-80.649775	8.750000
-77.999375	3.470000
-75.347545	1.850000
-72.700806	1.950000
-70.052637	0.170000
-67.405212	1.060000
-64.760700	-0.790000
-62.114760	2.030000
-59.473901	3.990000
-56.831613	6.770000
-54.192233	-3.520000
-51.551425	5.120000
-48.911357	3.280000
-46.276361	7.080000
-43.639936	5.040000
-41.006415	5.310000
-38.371465	5.230000
-35.741580	7.260000
-33.108103	2.870000
-30.479688	7.540000
-27.852006	6.710000
-25.222897	14.750000
-22.598844	8.160000
-19.971202	12.020000
-17.348613	13.270000
-14.726755	23.140000
-12.105629	38.120000
-9.485232	87.470000
-6.867723	294.820000
-4.248786	915.780000
-1.632735	2488.490000
0.982588	3996.920000
3.597184	2067.030000
6.208897	225.770000
8.822039	37.710000
11.430147	22.400000
14.041837	12.480000
16.648496	10.310000
19.256583	12.070000
21.863946	11.380000
24.466284	2.840000
27.072200	1.750000
29.673094	6.110000
32.275417	4.860000
34.872721	3.640000
37.473601	5.990000
40.069467	7.900000
42.666760	7.660000
45.263334	7.060000
47.854899	3.780000
50.447892	-0.100000
53.038024	5.280000
55.629584	7.400000
58.218284	8.080000
60.808411	-1.610000
63.393540	5.380000
65.980096	8.750000
68.565937	4.410000
71.148925	11.090000
73.733340	4.360000
76.310625	-1.790000
78.891477	-0.880000
81.469480	5.530000
84.046773	2.160000
86.625492	-3.310000
89.199230	1.100000
91.774394	7.850000
94.346715	8.600000
96.918328	1.040000
99.487102	7.120000
102.057302	5.930000
104.624663	6.540000
107.193451	3.980000
109.759401	8.080000
112.322517	5.960000
114.889189	10.880000
117.446640	10.750000
120.009776	11.960000
122.567953	28.030000
125.129683	28.840000
127.686458	48.610000
130.244658	70.870000
132.797906	106.880000
135.350455	155.810000
137.906555	216.750000
140.457708	292.450000
143.008162	368.130000
145.557920	420.410000
148.104858	475.010000
150.651100	485.230000
153.198768	499.260000
155.745741	504.890000
158.287777	493.130000
160.829120	491.160000
163.369770	483.060000
165.911846	482.510000
168.451111	477.980000
170.987566	482.960000
173.523331	485.450000
176.060521	478.900000
178.597019	469.370000
181.130712	477.390000
183.661602	452.590000
186.191803	459.960000
188.723429	455.360000
191.252254	455.760000
193.778280	455.800000
196.303621	450.010000
198.830386	449.340000
201.354354	459.240000
203.877638	453.420000
206.400237	456.720000
208.920043	457.910000
211.439166	454.360000
213.957606	452.660000
216.477470	462.280000
218.990333	469.270000
221.506727	478.800000
224.022439	489.480000
226.533262	498.820000
229.045509	510.520000
231.554973	505.720000
234.063759	497.150000
236.571867	498.620000
239.081398	509.090000
241.586050	501.650000
244.090025	503.470000
246.595424	509.750000
249.095948	507.560000
251.599995	501.450000
254.097072	494.440000
256.597671	498.740000
259.095499	494.290000
261.592654	487.060000
264.089136	495.690000
266.580756	487.840000
269.075894	490.140000
271.568267	483.290000
274.059969	496.690000
276.548908	498.040000
279.039270	499.640000
281.526871	506.630000
284.011712	507.780000
286.500067	511.420000
288.981483	522.630000
291.466413	524.780000
293.946498	539.510000
296.430095	548.420000
298.908849	578.830000
301.389027	595.680000
303.866452	582.870000
306.343214	573.480000
308.819313	553.650000
311.292663	533.300000
313.765351	523.840000
316.237378	529.960000
318.708744	530.430000
321.177366	535.350000
323.645328	528.440000
326.114713	512.740000
328.579275	494.110000
331.047340	478.920000
333.510586	476.310000
335.973175	471.920000
338.435106	465.080000
340.896381	453.720000
343.354922	456.820000
345.814885	442.500000
348.272115	437.290000
350.728691	429.410000
353.184613	430.230000
355.637806	421.010000
358.092420	420.910000
360.542233	409.110000
362.995543	415.730000
365.444053	404.750000
367.891913	397.740000
370.341194	395.870000
372.785682	383.250000
375.231592	382.350000
377.676853	375.120000
380.119395	371.970000
382.561289	363.320000
385.002535	372.500000
387.441066	365.970000
389.881019	363.290000
392.318258	362.940000
394.752785	352.350000
397.190800	357.400000
399.624038	352.260000
402.058698	351.530000
404.488584	349.590000
406.921956	352.970000
409.350558	357.720000
411.778519	348.200000
414.207900	345.360000
416.632516	345.760000
419.058554	341.460000
421.483951	338.190000
423.908708	333.200000
426.328707	329.460000
428.750127	329.090000
431.168850	328.610000
433.588994	322.260000
436.006443	322.030000
438.425312	308.460000
440.841488	299.080000
443.252917	286.850000
445.667822	287.500000
448.080037	275.520000
450.491618	272.810000
452.902565	261.920000
455.310826	259.260000
457.718454	250.790000
460.125451	249.250000
462.531815	249.370000
464.935497	251.130000
467.338549	245.410000
469.740971	248.980000
472.142764	252.300000
474.541878	257.290000
476.942412	257.700000
479.342317	269.740000
481.737499	275.040000
484.136148	278.230000
486.530077	289.100000
488.923380	301.300000
491.316057	329.190000
493.708109	352.980000
496.101580	388.980000
498.490338	458.700000
500.876430	563.560000
503.263942	705.860000
505.650830	954.600000
508.035055	1328.360000
510.420699	1884.420000
512.803680	2663.650000
515.184001	3487.390000
517.565741	4085.360000
519.944822	4053.580000
522.325322	3596.610000
524.703164	2983.550000
527.078351	2477.000000
529.452920	2053.180000
531.828908	1775.080000
534.202242	1526.510000
536.576994	1367.070000
538.947061	1228.360000
541.316512	1107.580000
543.687381	1007.380000
546.053570	922.940000
548.421177	862.500000
550.786138	803.050000
553.150486	762.300000
555.514222	711.700000
557.879375	684.720000
560.239855	655.580000
562.601754	633.620000
564.961013	606.370000
567.317633	588.010000
569.677698	577.900000
572.031073	549.270000
574.387892	535.400000
576.742075	519.270000
579.095651	509.880000
581.448618	496.950000
583.798954	472.890000
586.150706	470.370000
588.495782	447.150000
590.846322	440.960000
593.190189	433.250000
595.539516	417.590000
597.884196	408.420000
600.226250	413.500000
602.569722	407.570000
604.910571	404.280000
607.250818	408.360000
609.588444	427.490000
611.929505	443.040000
614.265929	461.480000
616.603769	474.150000
618.938991	471.230000
621.271598	454.700000
623.605621	431.140000
625.937031	413.810000
628.267842	403.290000
630.598055	392.410000
632.927670	391.090000
635.252663	390.860000
637.583097	389.590000
639.908909	375.940000
642.232115	378.550000
644.556736	365.620000
646.878753	373.500000
649.200175	361.420000
651.518994	359.330000
653.839229	351.780000
656.158871	352.760000
658.475912	345.800000
660.792361	349.440000
663.106213	344.520000
665.421479	348.480000
667.734149	345.100000
670.048234	341.330000
672.357719	344.520000
674.668620	346.910000
676.976928	340.900000
679.284648	340.150000
681.593783	337.770000
683.898325	332.340000
686.202280	320.110000
688.505650	315.320000
690.810434	312.930000
693.110632	305.510000
695.412244	300.390000
697.713272	297.340000
700.009717	283.590000
702.307578	289.250000
704.604855	284.440000
706.901549	282.380000
709.193667	280.490000
711.489196	278.540000
713.780152	279.800000
716.072522	274.040000
718.362316	270.720000
720.651531	276.250000
722.940165	283.240000
725.226228	279.210000
727.513704	279.990000
729.798610	278.370000
732.082937	273.140000
734.364696	274.880000
736.647869	272.820000
738.930465	270.230000
741.208506	267.930000
743.487960	263.660000
745.766839	267.250000
748.045142	266.950000
750.318896	263.240000
752.594064	268.520000
754.868658	269.100000
757.140693	258.610000
759.414140	258.680000
761.685030	252.860000
763.953364	254.500000
766.223111	249.330000
768.490304	255.120000
770.756926	263.290000
773.022979	262.440000
775.286479	262.770000
777.551393	260.220000
779.815737	267.830000
782.075552	258.210000
784.336780	255.710000
786.597440	259.570000
788.855553	260.110000
791.111122	258.830000
793.370082	267.900000
795.622543	261.500000
797.880371	272.880000
800.133679	271.020000
802.384448	264.810000
804.636629	267.210000
806.886272	268.930000
809.137326	271.520000
811.383869	267.000000
813.631825	261.870000
815.877245	264.230000
818.124077	262.120000
820.370348	258.110000
822.612115	257.690000
824.857264	247.290000
827.095941	250.190000
829.338001	247.990000
831.575562	244.480000
833.814534	253.750000
836.050980	240.800000
838.288837	249.640000
840.524170	240.380000
842.756978	248.530000
844.991198	249.350000
847.222896	246.210000
849.454039	246.020000
851.684627	252.510000
853.914661	248.390000
856.144140	244.430000
858.369138	246.130000
860.597511	240.790000
862.821405	237.720000
865.046709	239.970000
867.267538	237.880000
869.491739	236.960000
871.711467	237.820000
873.932606	234.770000
876.153194	243.100000
878.371272	244.080000
880.590761	236.910000
882.805783	239.580000
885.020257	233.330000
887.234184	237.840000
889.447563	228.550000
891.660395	230.010000
893.872681	233.130000
896.082464	234.190000
898.291702	234.150000
900.500395	232.580000
902.706589	230.560000
904.914192	237.750000
907.119298	231.300000
909.323860	240.720000
911.525926	241.950000
913.729402	245.120000
915.930384	256.470000
918.130825	256.400000
920.332674	261.190000
922.528131	284.690000
924.726948	299.960000
926.921327	334.920000
929.119062	372.400000
931.312362	420.900000
933.507071	464.690000
935.699294	501.930000
937.890979	554.750000
940.082126	569.780000
942.270790	584.210000
944.458917	581.780000
946.644564	574.900000
948.833563	577.690000
951.018139	572.750000
953.202180	568.720000
955.389571	567.660000
957.568658	581.720000
959.751096	575.300000
961.933000	590.400000
964.112430	582.830000
966.289387	586.890000
968.467751	592.270000
970.647523	596.400000
972.820946	590.740000
974.997715	597.090000
977.170078	594.170000
979.343847	586.060000
981.513213	577.690000
983.685924	551.170000
985.856168	520.430000
988.025884	472.230000
990.195071	427.700000
992.359861	394.490000
994.527992	366.820000
996.691729	351.340000
998.856872	329.410000
1001.019557	314.860000
1003.181715	309.170000
1005.341417	306.570000
1007.500595	294.580000
1009.661179	292.720000
1011.819308	281.930000
1013.976913	272.950000
1016.133995	261.330000
1018.290554	251.790000
1020.442733	246.930000
1022.596318	237.920000
1024.749382	231.130000
1026.899998	226.280000
1029.052019	220.320000
1031.199667	217.520000
1033.350647	215.930000
1035.497256	212.300000
1037.643347	202.530000
1039.788918	210.940000
1041.935895	211.750000
1044.076584	201.800000
1046.220601	204.940000
1048.362178	207.400000
1050.503239	206.510000
1052.645704	211.520000
1054.781890	207.320000
1056.921402	216.550000
1059.056558	208.880000
1061.195039	212.130000
1063.329166	205.830000
1065.462780	210.100000
1067.597799	204.660000
1069.728468	206.190000
1071.860542	208.720000
1073.990187	202.970000
1076.119320	206.960000
1078.247941	196.710000
1080.376051	204.050000
1082.501735	203.080000
1084.626909	202.930000
1086.753487	197.170000
1088.875728	196.170000
1090.999372	199.470000
1093.118683	198.780000
1095.243222	199.410000
1097.361516	199.030000
1099.481215	199.720000
1101.598495	196.360000
1103.715269	195.480000
1105.831536	182.440000
1107.945388	195.190000
1110.060643	188.640000
1112.171576	192.440000
1114.285820	188.450000
1116.395744	186.580000
1118.507072	187.280000
1120.617895	183.090000
1122.724403	187.090000
1124.834219	191.890000
1126.939721	185.300000
1129.046626	180.120000
1131.147316	185.860000
1133.253218	175.940000
1135.354811	175.410000
1137.457807	178.940000
1139.560302	178.270000
1141.656591	176.080000
1143.758086	174.700000
1145.855279	176.260000
1147.951973	168.270000
1150.048169	176.810000
1152.143868	170.840000
1154.239069	182.590000
1156.331873	178.680000
1158.426079	177.900000
1160.514094	176.280000
1162.607307	179.780000
1164.694332	176.920000
1166.784656	180.000000
1168.870693	174.490000
1170.960027	178.210000
1173.043180	178.790000
1175.127736	178.110000
1177.213692	179.390000
1179.295367	180.560000
1181.378444	182.770000
1183.459135	179.000000
1185.539334	181.130000
1187.619042	181.350000
1189.698259	178.360000
1191.775094	172.990000
1193.849548	183.310000
1195.927294	174.910000
1198.000769	180.320000
1200.075645	174.020000
1202.146254	171.350000
1204.218265	177.640000
1206.287899	170.170000
1208.358934	172.920000
1210.429481	173.340000
1212.495767	171.620000
1214.563454	173.610000
1216.628769	171.650000
1218.695484	171.370000
1220.757943	173.000000
1222.823687	166.820000
1224.885178	165.530000
1226.948068	169.280000
1229.008591	175.730000
1231.068630	175.370000
1233.128187	175.280000
1235.185378	176.800000
1237.242088	181.120000
1239.296435	175.980000
1241.354062	181.470000
1243.409327	176.690000
1245.460351	174.670000
1247.512775	176.140000
1249.564719	173.360000
1251.614305	174.530000
1253.663412	175.310000
1255.712041	176.860000
1257.760191	180.250000
1259.807863	183.310000
1261.851304	185.630000
1263.898020	182.130000
1265.942384	186.950000
1267.986270	181.550000
1270.027806	189.400000
1272.066992	177.900000
1274.109450	189.330000
1276.147686	186.720000
1278.187321	188.180000
1280.226481	183.610000
1282.261422	182.230000
1284.297763	180.820000
1286.331758	185.570000
1288.367152	177.070000
1290.398332	184.630000
1292.430911	174.710000
1294.463017	176.070000
1296.492783	179.260000
1298.523947	178.930000
1300.550903	182.040000
1302.579257	175.380000
1304.603407	173.720000
1306.630821	176.550000
1308.654033	179.800000
1310.678643	176.200000
1312.700919	182.620000
1314.724592	184.130000
1316.745932	173.770000
1318.766804	184.000000
1320.787210	177.420000
1322.803421	177.960000
1324.821031	173.340000
1326.836312	169.810000
1328.854851	175.960000
1330.869202	172.860000
1332.881227	177.340000
1334.896509	171.810000
1336.907606	176.620000
1338.920100	176.500000
1340.928411	184.830000
1342.939978	171.980000
1344.945505	181.430000
1346.954288	177.660000
1348.958893	183.210000
1350.966752	172.670000
1352.974149	175.000000
1354.975515	174.640000
1356.978278	176.370000
1358.980580	177.530000
1360.982423	167.870000
1362.983806	177.900000
1364.982876	171.690000
1366.981487	176.590000
1368.979640	175.280000
1370.977335	166.850000
1372.970866	169.820000
1374.965794	173.760000
1376.960265	175.390000
1378.954279	169.250000
1380.945986	169.340000
1382.937237	168.780000
1384.926183	160.220000
1386.916524	165.020000
1388.906410	158.430000
1390.893993	163.530000
1392.881121	160.870000
1394.865949	158.300000
1396.852170	155.260000
1398.836092	160.710000
1400.819561	161.920000
1402.802578	155.610000
1404.783296	160.210000
1406.765410	162.710000
1408.745226	164.820000
1410.724592	159.680000
1412.699818	162.640000
1414.678284	160.720000
1416.654455	164.590000
1418.630178	164.360000
1420.605451	157.700000
1422.578433	159.130000
1424.550967	159.660000
1426.523054	156.550000
1428.494692	156.830000
1430.462202	158.160000
1432.434787	156.490000
1434.399565	154.810000
1436.369416	154.210000
1438.335142	149.910000
1440.302261	163.770000
1442.267097	156.840000
1444.227814	151.920000
1446.193598	151.430000
1448.153427	161.560000
1450.114649	159.730000
1452.077264	163.130000
1454.035764	167.030000
1455.993822	163.210000
1457.951437	170.700000
1459.908611	169.030000
1461.863509	164.740000
1463.819799	166.460000
1465.773815	164.360000
1467.727391	158.200000
1469.678694	163.950000
1471.631389	158.920000
1473.581813	162.420000
1475.531798	165.600000
1477.481343	155.180000
1479.428620	156.930000
1481.373630	155.580000
1483.320031	154.140000
1485.265996	152.070000
1487.211522	154.470000
1489.154784	149.740000
1491.097609	150.740000
1493.038171	148.790000
1494.980124	146.920000
1496.919816	151.710000
1498.859072	155.260000
1500.797893	152.230000
1502.734455	148.380000
1504.672408	155.730000
1506.608103	158.180000
1508.543364	154.690000
1510.476368	150.620000
1512.408940	160.450000
1514.341080	161.500000
1516.272788	156.940000
1518.202242	157.190000
1520.133087	162.240000
1522.063501	159.630000
1523.989841	157.960000
1525.917573	162.020000
1527.843054	168.760000
1529.768106	162.730000
1531.692729	158.580000
1533.616923	165.990000
1535.538870	160.540000
1537.462206	169.220000
1539.383297	164.450000
1541.302143	168.550000
1543.222379	177.190000
1545.140371	175.810000
1547.057937	176.670000
1548.973261	182.350000
1550.889975	187.230000
1552.802634	192.470000
1554.718497	193.610000
1556.632120	198.230000
1558.543506	203.420000
1560.456280	199.680000
1562.365005	210.900000
1564.275120	218.870000
1566.184811	229.090000
1568.094078	243.460000
1570.001112	258.190000
1571.905913	278.670000
1573.812103	308.020000
1575.716061	339.170000
1577.619599	372.610000
1579.522715	404.120000
1581.423603	454.060000
1583.325878	496.350000
1585.225926	524.950000
1587.127361	520.520000
1589.024763	469.880000
1590.921746	427.740000
1592.818311	364.880000
1594.716264	324.340000
1596.608382	293.700000
1598.503693	270.880000
1600.398587	244.770000
1602.291259	228.430000
1604.183515	218.350000
1606.073551	205.010000
1607.963171	209.750000
1609.852375	200.940000
1611.741165	196.020000
1613.627738	191.960000
1615.515697	191.320000
1617.399640	185.380000
1619.284971	178.560000
1621.169887	171.660000
1623.052591	177.650000
1624.936680	167.960000
1626.816759	172.050000
1628.698224	161.580000
1630.577479	157.090000
1632.458120	154.670000
1634.332957	153.560000
1636.212776	144.420000
1638.088589	147.080000
1639.963992	149.720000
1641.840782	145.090000
1643.711774	148.410000
1645.585948	138.030000
1647.456124	135.520000
1649.329480	143.580000
1651.200633	139.230000
1653.069584	136.730000
1654.939921	133.270000
1656.806264	137.520000
1658.673993	130.720000
1660.539524	129.720000
1662.406439	131.720000
1664.269366	134.110000
1666.133678	127.980000
1667.995794	132.570000
1669.857506	126.390000
1671.720602	128.830000
1673.581504	123.260000
1675.440212	125.640000
1677.298517	123.110000
1679.158207	125.130000
1681.012130	119.680000
1682.869225	123.110000
1684.725918	120.790000
1686.578635	113.530000
1688.434523	119.030000
1690.286436	119.330000
1692.137949	115.880000
1693.989061	118.930000
1695.839773	116.010000
1697.690084	118.030000
1699.538211	116.490000
1701.387721	117.230000
1703.231483	118.780000
1705.080194	117.570000
1706.923160	116.960000
1708.769291	113.710000
1710.611461	114.160000
1712.456795	117.270000
1714.296389	115.130000
1716.137367	117.590000
1717.979728	119.860000
1719.818133	117.490000
1721.657921	118.040000
1723.495534	114.280000
1725.332751	113.020000
1727.167795	117.670000
1729.004222	113.660000
1730.838477	111.360000
1732.672337	112.170000
1734.505804	108.460000
1736.335324	110.320000
1738.168003	103.810000
1739.996738	105.880000
1741.828631	110.360000
1743.656581	108.930000
1745.484139	110.780000
1747.311305	104.610000
1749.138080	111.890000
1750.964464	109.430000
1752.786911	108.990000
1754.612512	104.060000
1756.434179	111.330000
1758.257228	109.790000
1760.078116	109.480000
1761.898614	117.550000
1763.720494	102.380000
1765.536674	108.930000
1767.356006	108.530000
1769.171411	103.280000
1770.989966	109.680000
1772.804596	107.080000
1774.618840	102.960000
1776.432696	110.240000
1778.246166	103.600000
1780.057483	103.500000
1781.870181	109.680000
1783.682492	107.520000
1785.490886	108.460000
1787.300661	111.970000
1789.106520	106.320000
1790.915526	110.110000
1792.720617	111.020000
1794.527090	104.970000
1796.333179	107.740000
1798.135358	104.020000
1799.940680	100.180000
1801.742094	106.240000
1803.544888	104.670000
1805.343776	101.330000
1807.144045	100.800000
1808.943932	106.300000
1810.741678	101.650000
1812.539043	101.770000
1814.336027	101.960000
1816.132631	106.100000
1817.927096	102.000000
1819.722940	104.520000
1821.513130	102.160000
1823.308216	106.960000
1825.097649	105.360000
1826.890219	103.330000
1828.680654	108.780000
1830.468955	111.890000
1832.260391	105.050000
1834.046181	107.650000
1835.833351	111.230000
1837.618389	107.920000
1839.406561	111.630000
1841.190847	104.680000
1842.973004	106.170000
1844.756539	111.850000
1846.537946	110.400000
1848.320732	112.790000
1850.099638	111.360000
1851.879922	108.510000
1853.658080	116.160000
1855.437617	108.150000
1857.215029	111.770000
1858.990317	109.240000
1860.766984	110.200000
1862.541527	111.920000
1864.317449	107.360000
1866.087751	106.850000
1867.861179	109.340000
1869.632488	108.670000
1871.403427	107.860000
1873.175742	108.830000
1874.942445	109.400000
1876.712272	108.430000
1878.478236	113.200000
1880.247324	105.310000
1882.012550	112.110000
1883.777407	108.380000
1885.543642	108.800000
1887.306018	103.680000
1889.068027	103.910000
1890.829668	101.970000
1892.590943	102.570000
1894.351850	98.210000
1896.112391	96.420000
1897.870822	103.500000
1899.628888	103.870000
1901.384845	107.450000
1903.142180	99.700000
1904.899148	100.410000
1906.654011	104.400000
1908.406768	99.010000
1910.159162	99.370000
1911.912931	92.550000
1913.664597	96.570000
1915.414161	88.790000
1917.165101	96.710000
1918.915677	100.990000
1920.662414	93.240000
1922.410528	99.360000
1924.156542	96.010000
1925.903932	91.650000
1927.649223	99.490000
1929.392417	100.290000
1931.136987	90.170000
1932.879460	89.620000
1934.621573	101.750000
1936.363326	99.190000
1938.104720	103.720000
1939.844020	94.930000
1941.582961	97.340000
1943.321543	91.020000
1945.058033	100.370000
1946.794166	97.895000
1948.531673	95.420000
1950.265358	95.090000
1952.000418	98.960000
1953.733390	95.980000
1955.466005	95.660000
1957.198263	91.740000
1958.930165	100.230000
1960.659981	89.990000
1962.387713	99.500000
1964.116818	97.770000
1965.845569	97.830000
1967.572236	98.460000
1969.298549	102.180000
1971.026235	98.030000
1972.748385	95.980000
1974.473636	95.880000
1976.195081	97.160000
1977.919625	94.540000
1979.642090	96.310000
1981.360751	93.640000
1983.082511	90.680000
1984.800469	93.550000
1986.519800	94.620000
1988.235332	98.280000
1989.955685	101.150000
1991.672238	95.120000
1993.384996	96.510000
1995.100849	94.360000
1996.814629	100.270000
1998.528060	93.370000
2000.239420	98.520000
2001.952153	90.120000
2003.661094	92.080000
2005.373129	98.000000
2007.079654	88.350000
2008.789272	93.340000
2010.496822	89.760000
2012.204025	96.860000
2013.909162	92.590000
2015.613952	92.620000
2017.320114	93.330000
2019.022494	98.860000
2020.726246	95.540000
2022.427934	97.400000
2024.129278	95.760000
2025.830276	90.840000
2027.529214	90.660000
2029.229522	91.620000
2030.926056	90.750000
2032.623961	89.810000
2034.319807	84.970000
2036.018739	89.540000
2037.712185	90.160000
2039.407003	86.090000
2041.101477	90.530000
2042.792183	85.560000
2044.485973	90.650000
2046.175996	87.820000
2047.867390	87.520000
2049.556731	86.810000
2051.247442	91.010000
2052.934391	87.760000
2054.620999	90.550000
2056.308978	92.370000
2057.993197	91.420000
2059.678786	90.630000
2061.364036	85.040000
2063.047238	88.940000
2064.731809	91.880000
2066.410918	92.380000
2068.094812	92.850000
2069.773246	87.490000
2071.454756	92.470000
2073.132516	88.630000
2074.809938	89.370000
2076.488731	84.840000
2078.165480	89.730000
2079.840188	81.340000
2081.516265	88.960000
2083.190302	82.910000
2084.864003	92.200000
2086.537369	91.780000
2088.208697	91.150000
2089.879690	85.000000
2091.550349	85.980000
2093.220673	85.540000
2094.890664	88.880000
2096.558619	89.440000
2098.226241	90.390000
2099.891829	86.180000
2101.558785	95.650000
2103.223707	88.200000
2104.888298	87.370000
2106.550857	95.550000
2108.214784	88.570000
2109.876681	88.040000
2111.538246	88.520000
2113.199480	86.410000
2114.858686	90.400000
2116.517562	80.950000
2118.176107	92.220000
2119.834323	90.140000
2121.488815	89.000000
2123.146372	86.340000
2124.803600	91.480000
2126.457106	86.900000
2128.111980	83.240000
2129.763136	89.570000
2131.417353	87.440000
2133.067854	83.820000
2134.719721	83.250000
2136.366180	87.920000
2138.017394	87.710000
2139.664894	89.410000
2141.313761	82.910000
2142.960610	81.020000
2144.607132	88.010000
2146.253329	84.690000
2147.895818	89.650000
2149.541365	84.340000
2151.183205	85.300000
2152.828102	87.750000
2154.469294	85.030000
2156.110162	80.520000
2157.750706	85.490000
2159.389239	86.340000
2161.029137	88.540000
2162.665335	88.980000
2164.302899	85.820000
2165.940140	87.930000
2167.575372	84.960000
2169.210283	89.460000
2170.844872	88.060000
2172.479139	86.700000
2174.109714	87.250000
2175.743339	86.440000
2177.373273	87.730000
2179.004572	86.050000
2180.633867	86.400000
2182.262841	85.760000
2183.891497	84.350000
2185.519833	84.750000
2187.146166	86.930000
2188.772181	83.080000
2190.396195	84.490000
2192.021573	87.420000
2193.644952	83.600000
2195.269694	88.730000
2196.890756	85.080000
2198.511501	83.270000
2200.133611	84.920000
2201.753723	83.850000
2203.371838	89.340000
2204.989638	87.300000
2206.607123	85.950000
2208.224292	86.480000
2209.841146	81.050000
2211.457685	90.900000
2213.072230	81.290000
2214.684783	83.500000
2216.298700	89.320000
2217.910626	85.990000
2219.523915	87.040000
2221.135214	86.750000
2222.744523	87.370000
2224.355196	86.590000
2225.963880	88.460000
2227.572252	82.330000
2229.178636	82.400000
2230.786384	83.740000
2232.392145	84.360000
2233.997595	78.510000
2235.601060	79.010000
2237.205889	81.830000
2238.808733	79.770000
2240.409594	85.000000
2242.011818	84.560000
2243.612059	83.680000
2245.213663	78.930000
2246.811615	80.290000
2248.410929	89.110000
2250.008263	81.890000
2251.605288	84.840000
2253.203676	79.880000
2254.798415	85.400000
2256.391177	86.390000
2257.985302	85.960000
2259.580788	86.630000
2261.172630	81.890000
2262.764165	89.100000
2264.357061	85.710000
2265.944648	83.500000
2267.536932	86.590000
2269.123908	90.270000
2270.713913	83.610000
2272.298613	86.490000
2273.888007	86.100000
2275.472098	82.430000
2277.057551	85.470000
2278.641034	84.990000
2280.227544	80.370000
2281.810420	78.070000
2283.392992	79.650000
2284.975261	80.220000
2286.553901	89.050000
2288.135564	79.850000
2289.713599	79.930000
2291.294657	79.950000
2292.872089	80.150000
2294.447556	80.350000
2296.026046	80.920000
2297.600912	80.420000
2299.175477	76.240000
2300.749742	79.590000
2302.323706	78.370000
2303.897370	74.840000
2305.470733	74.970000
2307.040478	77.580000
2308.609924	75.790000
2310.182389	72.120000
2311.749578	78.820000
2313.319786	76.550000
2314.886379	74.180000
2316.454332	68.640000
2318.020330	82.380000
2319.586029	73.870000
2321.151432	79.260000
2322.714881	81.800000
2324.279688	82.330000
2325.840888	86.500000
2327.405102	86.770000
2328.964055	86.420000
2330.526021	85.670000
2332.086037	85.800000
2333.645757	73.210000
2335.203528	73.530000
2336.761005	78.570000
2338.318186	74.340000
2339.873421	82.420000
2341.428361	78.170000
2342.983008	74.890000
2344.537361	82.850000
2346.091420	71.460000
2347.645185	74.840000
2349.197007	80.220000
2350.746885	82.160000
2352.299771	78.550000
2353.847415	78.470000
2355.398066	81.600000
2356.945127	81.420000
2358.493545	81.820000
2360.041671	83.060000
2361.586210	82.550000
2363.132106	80.650000
2364.676063	83.370000
2366.221378	78.750000
2367.763108	75.350000
2369.306195	77.060000
2370.847347	79.190000
2372.388209	78.190000
2373.928782	80.930000
2375.469066	79.800000
2377.009061	80.570000
2378.545477	74.010000
2380.084895	75.710000
2381.620736	74.530000
2383.157933	78.130000
2384.691555	74.720000
2386.228178	75.310000
2387.762869	77.090000
2389.295631	77.840000
2390.828107	76.690000
2392.358654	74.630000
2393.892199	77.920000
2395.420533	79.090000
2396.950223	77.510000
2398.479628	77.950000
2400.008747	77.140000
2401.537582	83.060000
2403.061211	81.070000
2404.589477	80.920000
2406.112539	82.460000
2407.640235	82.310000
2409.161092	72.850000
2410.686582	74.340000
2412.208511	78.760000
2413.731796	74.570000
2415.253160	86.060000
2416.772604	80.320000
2418.293403	84.510000
2419.812283	82.220000
2421.330881	74.180000
2422.847562	79.220000
2424.365597	80.900000
2425.883351	88.520000
2427.397554	84.420000
2428.911476	83.880000
2430.425118	84.900000
2431.940115	88.010000
2433.451563	84.650000
2434.964366	84.090000
2436.475256	89.100000
2437.985866	89.980000
2439.494565	82.500000
2441.006251	90.520000
2442.514392	93.090000
2444.022256	94.580000
2445.529842	87.810000
2447.033887	96.200000
2448.540918	96.140000
2450.046040	99.220000
2451.550885	94.900000
2453.053823	101.820000
2454.556484	100.660000
2456.058869	102.150000
2457.559349	97.580000
2459.061182	100.680000
2460.561111	101.440000
2462.060764	92.800000
2463.560141	101.540000
2465.057616	100.270000
2466.553190	96.250000
2468.051743	92.310000
2469.546767	90.970000
2471.043145	93.190000
2472.535996	86.550000
2474.030199	88.540000
2475.524129	88.090000
2477.014536	85.340000
2478.507919	90.830000
2479.999405	83.070000
2481.488994	83.140000
2482.978311	85.410000
2484.465733	86.000000
2485.956130	81.700000
2487.443008	83.080000
2488.931238	84.790000
2490.415952	80.520000
2491.900395	79.960000
2493.386190	80.790000
2494.870092	83.760000
2496.355346	79.140000
2497.835466	79.210000
2499.318558	80.790000
2500.799760	79.250000
2502.280693	76.820000
2503.759737	82.280000
2505.238512	77.480000
2506.717019	78.390000
2508.195258	75.920000
2509.673228	80.950000
2511.147694	76.810000
2512.625128	78.100000
2514.099059	76.640000
2515.574341	75.300000
2517.049355	75.590000
2518.520868	79.560000
2519.993732	76.990000
2521.464712	73.490000
2522.937043	72.720000
2524.404261	76.880000
2525.874444	72.700000
2527.342747	71.220000
2528.810785	71.580000
2530.278558	78.980000
2531.746066	69.690000
2533.213309	70.810000
2534.677060	76.950000
2536.142161	75.850000
2537.605385	76.030000
2539.069959	68.350000
2540.531043	78.840000
2541.993477	79.370000
2543.455648	72.420000
2544.914333	79.160000
2546.377590	80.250000
2547.835750	81.770000
2549.295259	77.430000
2550.749675	77.800000
2552.208660	74.270000
2553.665774	77.660000
2555.121017	77.120000
2556.575999	73.690000
2558.029111	75.570000
2559.483572	77.180000
2560.936164	81.780000
2562.388496	74.120000
2563.838960	71.290000
2565.292380	80.170000
2566.740718	72.030000
2568.192012	83.020000
2569.641439	75.060000
2571.087395	79.480000
2572.536305	79.870000
2573.981744	75.400000
2575.428532	77.850000
2576.873456	78.400000
2578.318123	78.980000
2579.764137	83.550000
2581.206684	76.610000
2582.650579	74.530000
2584.091009	80.920000
2585.532787	77.390000
2586.972704	75.460000
2588.413969	77.060000
2589.851773	78.750000
2591.292526	79.340000
2592.728216	79.650000
2594.166856	79.190000
2595.603639	79.430000
2597.038565	81.550000
2598.476440	74.910000
2599.909256	77.210000
2601.343420	77.090000
2602.775730	79.430000
2604.209386	76.990000
2605.641189	80.820000
2607.072739	78.130000
2608.504035	79.490000
2609.933479	81.140000
2611.362672	79.280000
2612.790013	80.130000
2614.218701	83.850000
2615.647136	81.730000
2617.072124	86.860000
2618.498459	84.750000
2619.922945	89.340000
2621.348777	86.740000
2622.771165	98.040000
2624.194899	91.650000
2625.616786	102.660000
2627.038424	101.090000
2628.458216	97.840000
2629.879354	107.580000
2631.300242	101.260000
2632.717692	106.000000
2634.138081	108.020000
2635.555033	114.360000
2636.971737	121.150000
2638.388192	114.340000
2639.804399	129.640000
2641.220357	132.940000
2642.634475	135.030000
2644.048346	138.400000
2645.460377	147.730000
2646.873753	152.390000
2648.283699	150.690000
2649.696580	164.860000
2651.106034	170.690000
2652.515241	181.620000
2653.922612	193.110000
2655.332917	208.030000
2656.741386	218.260000
2658.148020	238.190000
2659.554409	248.690000
2660.958964	266.560000
2662.364863	284.890000
2663.768929	303.380000
2665.172751	319.260000
2666.576328	333.000000
2667.978073	367.730000
2669.381162	381.520000
2670.780834	410.320000
2672.181848	419.630000
2673.579447	444.490000
2674.979976	452.320000
2676.377090	462.150000
2677.775547	466.540000
2679.172176	468.550000
2680.568563	463.210000
2681.964709	465.180000
2683.359028	444.890000
2684.754690	435.150000
2686.146942	422.260000
2687.540538	400.360000
2688.932309	383.520000
2690.325422	359.860000
2691.716712	334.360000
2693.106179	315.940000
2694.495406	294.450000
2695.884394	275.540000
2697.274724	260.830000
2698.660069	245.610000
2700.048338	220.620000
2701.434787	209.240000
2702.820997	195.320000
2704.206969	184.170000
2705.589541	180.080000
2706.973456	166.960000
2708.357133	158.050000
2709.740572	149.790000
2711.120615	146.700000
2712.502000	140.560000
2713.881569	127.160000
2715.262480	129.080000
2716.641576	124.080000
2718.018857	121.330000
2719.397480	112.410000
2720.774290	115.860000
2722.150864	109.180000
2723.527202	103.300000
2724.901728	103.470000
2726.277595	104.540000
2727.650075	97.650000
2729.025472	96.820000
2730.395907	89.800000
2731.767684	90.450000
2733.139226	88.790000
2734.508960	95.510000
2735.880035	85.120000
2737.249302	84.760000
2738.618335	86.340000
2739.985561	85.270000
2741.352555	79.900000
2742.719316	83.590000
2744.085844	82.990000
2745.450567	79.080000
2746.815059	75.760000
2748.179318	73.310000
2749.543345	72.770000
2750.907141	78.200000
2752.267563	69.330000
2753.630896	75.210000
2754.989286	71.730000
2756.350586	70.200000
2757.708515	69.610000
2759.069354	69.990000
2760.428392	66.320000
2761.784062	70.500000
2763.142640	69.870000
2764.497852	72.650000
2765.852834	67.850000
2767.206019	70.130000
2768.562111	67.790000
2769.914839	74.190000
2771.267338	63.380000
2772.619609	70.130000
2773.973219	73.800000
2775.323467	65.640000
2776.671922	64.210000
2778.023281	69.080000
2779.371281	67.850000
2780.720620	72.720000
2782.068166	67.800000
2783.415485	68.640000
2784.762578	72.030000
2786.107880	66.890000
2787.452956	65.180000
2788.797806	69.480000
2790.142429	66.980000
2791.483701	64.250000
2792.826311	61.300000
2794.168695	69.410000
2795.510855	67.890000
2796.849665	61.940000
2798.191374	66.700000
2799.529736	69.400000
2800.869435	70.710000
2802.207348	58.220000
2803.543477	62.990000
2804.879382	65.200000
2806.216625	68.060000
2807.552084	71.060000
2808.887320	67.990000
2810.220773	66.910000
2811.555564	63.860000
2812.887013	73.690000
2814.221358	66.270000
2815.550805	72.330000
2816.881589	64.540000
2818.212151	69.150000
2819.540934	59.350000
2820.871053	66.390000
2822.199394	58.580000
2823.527514	62.790000
2824.853857	63.520000
2826.181535	63.760000
2827.505881	64.690000
2828.831562	57.430000
2830.155468	60.650000
2831.479155	65.000000
2832.804177	61.090000
2834.125869	61.270000
2835.447343	63.680000
2836.768598	60.490000
2838.089634	60.130000
2839.408898	64.010000
2840.729497	56.880000
2842.048324	61.700000
2843.366933	57.800000
2844.683772	55.550000
2846.000393	55.050000
2847.316796	57.300000
2848.631431	57.460000
2849.947400	60.530000
2851.260049	62.130000
2852.574034	55.060000
2853.887801	59.250000
2855.201353	61.100000
2856.513137	58.800000
2857.823156	57.490000
2859.134508	57.230000
2860.442546	56.430000
2861.751919	59.020000
2863.061076	56.600000
2864.370018	59.420000
2865.677197	54.120000
2866.982612	51.040000
2868.289362	52.770000
2869.594349	62.530000
2870.899123	60.250000
2872.202135	58.690000
2873.508029	55.430000
2874.809067	55.210000
2876.111440	63.440000
2877.412053	62.750000
2878.714000	59.320000
2880.015734	56.630000
2881.314163	53.720000
2882.613927	59.240000
2883.911932	56.150000
2885.209726	58.080000
2886.505764	54.720000
2887.803135	53.470000
2889.098750	57.450000
2890.394154	45.830000
2891.689348	55.230000
2892.981243	56.830000
2894.276015	52.280000
2895.567490	56.400000
2896.860298	54.670000
2898.152896	54.450000
2899.442200	58.990000
2900.732836	55.960000
2902.021721	54.780000
2903.311939	53.780000
2904.598865	61.070000
2905.887123	59.400000
2907.173631	60.730000
2908.459932	58.930000
2909.746024	59.590000
2911.030368	53.520000
2912.317584	54.480000
2913.599972	57.200000
2914.883693	52.960000
2916.165668	56.960000
2917.447436	57.630000
2918.727458	59.090000
2920.010350	58.040000
2921.291497	52.100000
2922.569362	55.790000
2923.850096	55.470000
2925.127549	56.160000
2926.404797	58.150000
2927.680302	50.010000
2928.958675	59.930000
2930.232233	56.410000
2931.508659	50.530000
2932.783344	54.330000
2934.056289	50.440000
2935.330564	56.370000
2936.603100	50.880000
2937.875432	56.670000
2939.144490	57.610000
2940.416414	56.370000
2941.686600	52.770000
2942.956583	55.120000
2944.226362	55.300000
2945.494404	54.550000
2946.760711	54.370000
2948.026815	51.580000
2949.294249	53.550000
2950.559949	54.360000
2951.825446	46.330000
2953.090741	51.340000
2954.352771	49.600000
2955.616132	49.080000
2956.879290	55.030000
2958.140717	52.420000
2959.403473	48.100000
2960.664498	53.300000
2961.923791	53.110000
2963.182885	55.300000
2964.441778	48.330000
2965.700471	45.790000
2966.958964	52.080000
2968.215728	50.210000
2969.472292	46.000000
2970.727129	54.110000
2971.983295	49.630000
2973.236205	50.780000
2974.490445	49.490000
2975.744486	51.840000
2976.996801	48.540000
2978.248918	52.150000
2979.499310	54.690000
2980.752557	48.830000
2982.001027	51.140000
2983.252351	50.110000
2984.500427	45.270000
2985.748305	56.260000
2986.995986	50.340000
2988.243471	52.410000
2989.489234	50.370000
2990.734800	52.680000
2991.981694	46.950000
2993.225344	49.900000
2994.470322	52.540000
2995.712057	43.440000
2996.956643	44.990000
2998.199509	51.190000
2999.439135	50.240000
3000.681612	46.880000
3001.920848	51.440000
3003.161412	44.870000
3004.400259	54.380000
3005.638912	51.880000
3006.875849	54.130000
3008.114113	46.370000
3009.350663	49.850000
3010.587018	47.980000
3011.823180	47.120000
3013.057629	53.720000
3014.291884	42.910000
3015.525946	52.060000
3016.758296	49.110000
3017.988934	52.720000
3019.222418	53.060000
3020.454190	45.230000
3021.684252	50.100000
3022.914122	44.650000
3024.142282	45.070000
3025.371768	45.250000
3026.599546	48.660000
3027.827132	45.750000
3029.056044	45.310000
3030.280214	46.850000
3031.507227	48.900000
3032.731016	44.300000
3033.956132	49.580000
3035.179541	48.910000
3036.402761	44.870000
3037.624275	48.130000
3038.848630	45.450000
3040.068250	42.770000
3041.289195	47.930000
3042.509952	45.160000
3043.729005	45.310000
3044.949384	45.770000
3046.166546	43.400000
3047.385033	49.040000
3048.601819	50.740000
3049.818416	49.210000
3051.034826	46.360000
3052.248022	49.390000
3053.464056	47.110000
3054.676878	50.820000
3055.892537	43.340000
3057.103473	41.630000
3058.315734	42.290000
3059.527809	46.370000
3060.739697	45.630000
3061.949887	46.150000
3063.159891	39.470000
3064.369710	48.050000
3065.577832	46.840000
3066.785768	42.920000
3067.992010	43.560000
3069.199575	45.250000
3070.405447	44.455000
3071.611133	43.660000
3072.816634	39.620000
3074.020442	42.710000
3075.225574	40.610000
3076.429014	42.970000
3077.630761	38.180000
3078.832325	42.490000
3080.033705	40.280000
3081.234901	40.260000
3082.434407	48.330000
3083.633729	45.040000
3084.834375	43.110000
3086.033332	40.190000
3087.229093	37.520000
3088.427684	37.820000
3089.623081	38.480000
3090.819801	42.960000
3092.013329	43.410000
3093.209686	38.610000
3094.404355	42.510000
3095.595834	39.530000
3096.791644	41.680000
3097.982761	36.440000
3099.175200	42.970000
3100.364452	42.950000
3101.556530	41.330000
3102.746923	42.230000
3103.934131	43.630000
3105.122662	40.660000
3106.312515	45.130000
3107.499183	36.720000
3108.685672	36.760000
3109.871981	42.400000
3111.059612	46.730000
3112.244062	38.720000
3113.426831	38.500000
3114.612424	38.710000
3115.796336	37.910000
3116.978570	43.660000
3118.160625	40.570000
3119.342503	43.590000
3120.524202	49.370000
3121.704223	38.360000
3122.882568	39.790000
3124.063734	39.070000
3125.241724	39.920000
3126.419537	41.850000
3127.597173	41.310000
3128.773134	36.820000
3129.948918	44.040000
3131.126024	39.630000
3132.301455	34.300000
3133.475213	38.790000
3134.647299	36.360000
3135.820705	41.970000
3136.993936	33.190000
3138.165494	38.620000
3139.338374	33.560000
3140.508086	43.020000
3141.679119	42.230000
3142.848481	40.980000
3144.016174	36.120000
3145.186682	45.140000
3146.352531	38.630000
3147.522690	40.530000
3148.688191	38.900000
3149.853519	43.820000
3151.018673	42.820000
3152.183653	47.220000
3153.349954	37.320000
3154.511601	43.720000
3155.674569	39.530000
3156.837363	38.580000
3157.999985	37.840000
3159.160942	43.310000
3160.321726	43.210000
3161.482338	40.590000
3162.641287	38.220000
3163.800063	45.320000
3164.958668	38.210000
3166.117101	39.810000
3167.275362	44.290000
3168.431961	40.560000
3169.586899	39.140000
3170.743156	39.230000
3171.897753	36.210000
3173.052178	38.430000
3174.204944	43.440000
3175.357540	36.770000
3176.509965	39.750000
3177.662221	39.600000
3178.814307	41.700000
3179.963246	38.480000
3181.114992	40.110000
3182.265080	43.080000
3183.413512	39.640000
3184.561775	40.260000
3185.709868	41.930000
3186.857793	33.710000
3188.004063	36.730000
3189.150164	40.950000
3190.294610	40.260000
3191.438889	43.350000
3192.583000	44.530000
3193.728429	38.770000
3194.870719	37.990000
3196.012841	40.180000
3197.154796	34.570000
3198.296585	41.990000
3199.438206	39.910000
3200.576691	38.660000
3201.716494	34.920000
3202.857615	45.700000
3203.995601	35.270000
3205.131938	38.390000
3206.268109	36.130000
3207.405598	40.020000
3208.541438	41.660000
3209.678594	31.250000
3210.811138	42.490000
3211.947964	38.570000
3213.080178	34.870000
3214.213710	34.780000
3215.347076	41.410000
3216.477315	33.800000
3217.610352	37.460000
3218.740263	34.910000
3219.871491	35.080000
3220.999593	36.610000
3222.130492	33.840000
3223.259748	36.800000
3224.387359	34.090000
3225.511849	40.150000
3226.640614	33.450000
3227.766257	35.230000
3228.891737	39.570000
3230.015576	38.330000
3231.142209	46.670000
3232.264245	38.690000
3233.387597	40.190000
3234.510787	40.560000
3235.633815	40.030000
3236.755203	46.110000
3237.876430	44.060000
3238.996018	46.090000
3240.115445	45.100000
3241.233234	49.110000
3242.353816	51.340000
3243.471283	45.720000
3244.588591	47.880000
3245.705737	51.430000
3246.821248	51.430000
3247.938074	50.300000
3249.051789	51.080000
3250.168295	45.970000
3251.283165	44.690000
3252.394927	42.960000
3253.506530	46.500000
3254.619447	46.940000
3255.732206	44.780000
3256.841858	41.780000
3257.952825	45.360000
3259.063632	43.130000
3260.172809	36.860000
3261.280354	36.740000
3262.389214	38.680000
3263.497915	37.920000
3264.603514	34.710000
3265.710428	39.350000
3266.815712	34.230000
3267.922310	33.220000
3269.025808	36.490000
3270.130620	38.850000
3271.235275	35.550000
3272.336831	34.360000
3273.438232	36.290000
3274.540946	36.420000
3275.643503	33.330000
3276.742965	31.580000
3277.845209	34.090000
3278.944359	37.950000
3280.041883	39.100000
3281.139252	37.100000
3282.239404	31.400000
3283.336462	35.130000
3284.433365	35.140000
3285.530114	35.440000
3286.622303	32.350000
3287.718741	33.580000
3288.813558	30.010000
3289.908219	35.970000
3291.001259	32.970000
3292.094145	32.870000
3293.185410	29.080000
3294.277988	37.280000
3295.368945	37.430000
3296.458283	32.590000
3297.547468	31.220000
3298.637966	35.610000
3299.725379	30.210000
3300.812640	34.190000
3301.901213	35.370000
3302.989633	34.000000
3304.073506	27.600000
3305.161621	35.350000
3306.246655	34.630000
3307.330072	27.150000
3308.414802	33.560000
3309.497917	37.040000
3310.582343	32.020000
3311.663691	37.360000
3312.746351	31.470000
3313.827397	32.320000
3314.908292	33.170000
3315.987574	36.560000
3317.066705	31.710000
3318.147147	31.970000
3319.224516	38.340000
3320.303196	30.090000
3321.380264	26.900000
3322.457182	29.580000
3323.532489	33.500000
3324.607647	31.230000
3325.684116	31.740000
3326.757515	30.890000
3327.830765	32.430000
3328.905326	32.760000
3329.978277	27.750000
3331.049621	31.390000
3332.122275	30.710000
3333.191862	35.550000
3334.262760	30.950000
3335.332051	35.360000
3336.402653	33.430000
3337.471648	34.260000
3338.539037	32.630000
3339.604821	35.910000
3340.674831	33.650000
3341.741778	33.820000
3342.805663	31.020000
3343.872316	36.160000
3344.937364	33.590000
3346.000810	33.580000
3347.064108	32.790000
3348.127261	32.630000
3349.190267	32.420000
3350.253126	30.770000
3351.314384	26.480000
3352.372585	31.780000
3353.435007	28.900000
3354.494372	30.300000
3355.553592	33.030000
3356.614122	30.940000
3357.670142	37.560000
3358.728927	30.890000
3359.783204	32.620000
3360.840244	32.530000
3361.895687	34.330000
3362.952438	34.880000
3364.007592	34.430000
3365.061148	28.470000
3366.113107	36.050000
3367.167828	34.530000
3368.219500	29.310000
3369.271029	32.460000
3370.323867	31.550000
3371.373657	32.100000
3372.424755	30.980000
3373.472808	28.380000
3374.523621	28.510000
3375.571388	31.700000
3376.619013	26.950000
3377.666495	35.280000
3378.712385	24.690000
3379.759583	26.000000
3380.803739	29.100000
3381.850653	28.960000
3382.895975	31.560000
3383.938257	30.850000
3384.980397	28.000000
3386.023845	36.000000
3387.067153	34.660000
3388.108870	29.680000
3389.150446	27.050000
3390.191882	31.540000
3391.231728	27.860000
3392.269987	32.890000
3393.309553	30.420000
3394.348978	29.790000
3395.386817	28.840000
3396.423068	32.490000
3397.459179	26.870000
3398.496598	29.140000
3399.530984	31.230000
3400.566677	31.630000
3401.602231	29.650000
3402.634754	31.070000
3403.670030	28.940000
3404.702275	25.890000
3405.734382	29.880000
3406.764905	32.070000
3407.796736	28.200000
3408.828427	29.400000
3409.857092	31.070000
3410.885618	26.260000
3411.915452	24.690000
3412.945147	29.880000
3413.971817	29.800000
3414.999794	24.860000
3416.024746	30.240000
3417.052448	29.590000
3418.077127	24.130000
3419.103112	30.950000
3420.127517	36.720000
3421.151786	29.200000
3422.174476	28.300000
3423.197030	31.200000
3424.220890	29.810000
3425.241730	28.180000
3426.262435	28.010000
3427.284445	25.460000
3428.303437	32.450000
3429.322294	30.910000
3430.342456	28.170000
3431.359602	36.000000
