-117.897011	-0.890000
-115.227411	-0.380000
-112.560746	2.900000
-109.894833	8.460000
-107.231852	0.230000
-104.567442	2.510000
-101.905962	-1.440000
-99.243052	4.810000
-96.585250	1.580000
-93.926017	3.520000
-91.267533	-3.020000
-88.611974	4.190000
-85.954986	-2.410000
-83.303095	0.550000
-80.649775	5.390000
-77.999375	5.850000
-75.347545	-0.300000
-72.700806	-0.270000
-70.052637	-0.260000
-67.405212	3.280000
-64.760700	3.740000
-62.114760	5.870000
-59.473901	3.050000
-56.831613	-2.480000
-54.192233	3.690000
-51.551425	4.700000
-48.911357	1.780000
-46.276361	4.060000
-43.639936	3.070000
-41.006415	3.310000
-38.371465	3.920000
-35.741580	6.510000
-33.108103	2.900000
-30.479688	2.840000
-27.852006	7.200000
-25.222897	10.500000
-22.598844	10.450000
-19.971202	14.170000
-17.348613	10.240000
-14.726755	23.650000
-12.105629	33.040000
-9.485232	91.250000
-6.867723	290.440000
-4.248786	1003.060000
-1.632735	2699.620000
0.982588	4124.070000
3.597184	2464.730000
6.208897	236.900000
8.822039	29.250000
11.430147	23.520000
14.041837	19.560000
16.648496	11.720000
19.256583	11.590000
21.863946	11.850000
24.466284	9.840000
27.072200	5.150000
29.673094	1.260000
32.275417	4.170000
34.872721	3.400000
37.473601	8.320000
40.069467	4.450000
42.666760	6.470000
45.263334	3.380000
47.854899	8.100000
50.447892	2.960000
53.038024	0.070000
55.629584	1.940000
58.218284	0.700000
60.808411	0.280000
63.393540	7.930000
65.980096	-2.830000
68.565937	6.440000
71.148925	1.850000
73.733340	2.180000
76.310625	4.300000
78.891477	3.560000
81.469480	1.850000
84.046773	4.110000
86.625492	2.400000
89.199230	6.220000
91.774394	-2.200000
94.346715	6.150000
96.918328	0.510000
99.487102	5.480000
102.057302	4.790000
104.624663	5.740000
107.193451	5.380000
109.759401	10.140000
112.322517	6.450000
114.889189	8.830000
117.446640	9.860000
120.009776	16.700000
122.567953	20.540000
125.129683	31.590000
127.686458	45.610000
130.244658	67.300000
132.797906	99.290000
135.350455	148.480000
137.906555	209.380000
140.457708	280.960000
143.008162	350.290000
145.557920	409.740000
148.104858	450.660000
150.651100	475.860000
153.198768	487.100000
155.745741	489.370000
158.287777	477.170000
160.829120	476.300000
163.369770	471.910000
165.911846	463.520000
168.451111	463.940000
170.987566	462.720000
173.523331	474.530000
176.060521	461.920000
178.597019	459.500000
181.130712	457.420000
183.661602	448.160000
186.191803	446.890000
188.723429	438.910000
191.252254	442.440000
193.778280	440.930000
196.303621	434.800000
198.830386	442.440000
201.354354	445.490000
203.877638	436.190000
206.400237	437.980000
208.920043	445.810000
211.439166	441.120000
213.957606	445.160000
216.477470	449.230000
218.990333	452.630000
221.506727	468.340000
224.022439	473.570000
226.533262	480.600000
229.045509	492.920000
231.554973	484.490000
234.063759	487.350000
236.571867	485.800000
239.081398	488.950000
241.586050	489.520000
244.090025	489.720000
246.595424	492.610000
249.095948	495.770000
251.599995	484.860000
254.097072	487.910000
256.597671	480.910000
259.095499	472.440000
261.592654	481.690000
264.089136	474.890000
266.580756	477.800000
269.075894	467.710000
271.568267	479.350000
274.059969	480.660000
276.548908	490.110000
279.039270	480.330000
281.526871	490.240000
284.011712	501.250000
286.500067	499.090000
288.981483	503.420000
291.466413	521.450000
293.946498	531.390000
296.430095	538.260000
298.908849	561.510000
301.389027	577.450000
303.866452	573.440000
306.343214	553.510000
308.819313	535.850000
311.292663	517.090000
313.765351	513.670000
316.237378	506.450000
318.708744	515.310000
321.177366	513.070000
323.645328	506.250000
326.114713	491.010000
328.579275	475.030000
331.047340	466.230000
333.510586	465.190000
335.973175	458.730000
338.435106	442.390000
340.896381	446.130000
343.354922	431.470000
345.814885	425.850000
348.272115	422.890000
350.728691	411.530000
353.184613	406.690000
355.637806	411.030000
358.092420	408.430000
360.542233	401.350000
362.995543	391.490000
365.444053	387.820000
367.891913	376.530000
370.341194	382.250000
372.785682	371.070000
375.231592	366.510000
377.676853	364.570000
380.119395	357.410000
382.561289	352.410000
385.002535	356.150000
387.441066	351.510000
389.881019	350.650000
392.318258	345.070000
394.752785	342.490000
397.190800	342.690000
399.624038	339.150000
402.058698	335.510000
404.488584	334.350000
406.921956	329.470000
409.350558	336.110000
411.778519	335.270000
414.207900	334.070000
416.632516	323.430000
419.058554	323.660000
421.483951	323.650000
423.908708	322.890000
426.328707	319.440000
428.750127	314.990000
431.168850	313.990000
433.588994	306.350000
436.006443	303.810000
438.425312	290.710000
440.841488	281.430000
443.252917	275.270000
445.667822	265.170000
448.080037	257.050000
450.491618	247.450000
452.902565	236.690000
455.310826	237.670000
457.718454	235.630000
460.125451	232.190000
462.531815	233.090000
464.935497	227.630000
467.338549	237.450000
469.740971	230.410000
472.142764	235.160000
474.541878	236.830000
476.942412	243.390000
479.342317	246.250000
481.737499	254.890000
484.136148	259.710000
486.530077	274.920000
488.923380	286.390000
491.316057	308.710000
493.708109	335.290000
496.101580	375.230000
498.490338	441.430000
500.876430	547.950000
503.263942	690.310000
505.650830	931.390000
508.035055	1312.910000
510.420699	1867.770000
512.803680	2643.450000
515.184001	3469.230000
517.565741	4040.690000
519.944822	4005.370000
522.325322	3573.910000
524.703164	2981.560000
527.078351	2466.690000
529.452920	2047.910000
531.828908	1744.640000
534.202242	1521.510000
536.576994	1345.990000
538.947061	1210.380000
541.316512	1096.310000
543.687381	997.910000
546.053570	909.640000
548.421177	846.430000
550.786138	793.750000
553.150486	741.670000
555.514222	702.890000
557.879375	674.090000
560.239855	645.170000
562.601754	626.450000
564.961013	591.110000
567.317633	576.610000
569.677698	551.810000
572.031073	532.310000
574.387892	519.450000
576.742075	508.840000
579.095651	484.870000
581.448618	481.910000
583.798954	460.090000
586.150706	451.430000
588.495782	442.090000
590.846322	431.150000
593.190189	419.030000
595.539516	405.590000
597.884196	399.710000
600.226250	397.510000
602.569722	384.970000
604.910571	393.280000
607.250818	396.330000
609.588444	412.770000
611.929505	429.490000
614.265929	446.430000
616.603769	459.210000
618.938991	455.130000
621.271598	444.850000
623.605621	422.970000
625.937031	405.870000
628.267842	392.360000
630.598055	372.510000
632.927670	374.070000
635.252663	359.480000
637.583097	371.990000
639.908909	365.930000
642.232115	372.330000
644.556736	357.770000
646.878753	347.130000
649.200175	348.470000
651.518994	345.670000
653.839229	337.330000
656.158871	334.340000
658.475912	331.510000
660.792361	333.010000
663.106213	333.780000
665.421479	334.050000
667.734149	334.330000
670.048234	333.050000
672.357719	332.490000
674.668620	327.130000
676.976928	323.130000
679.284648	325.740000
681.593783	319.130000
683.898325	312.090000
686.202280	311.190000
688.505650	313.770000
690.810434	303.910000
693.110632	291.120000
695.412244	279.890000
697.713272	281.890000
700.009717	269.050000
702.307578	267.250000
704.604855	266.550000
706.901549	265.080000
709.193667	257.490000
711.489196	260.370000
713.780152	254.670000
716.072522	253.850000
718.362316	251.130000
720.651531	260.200000
722.940165	258.510000
725.226228	262.670000
727.513704	262.290000
729.798610	262.520000
732.082937	258.730000
734.364696	257.050000
736.647869	254.380000
738.930465	258.650000
741.208506	245.090000
743.487960	247.940000
745.766839	246.670000
748.045142	247.850000
750.318896	247.260000
752.594064	243.110000
754.868658	246.410000
757.140693	240.380000
759.414140	242.090000
761.685030	241.570000
763.953364	234.580000
766.223111	233.450000
768.490304	243.090000
770.756926	237.460000
773.022979	241.470000
775.286479	238.110000
777.551393	243.940000
779.815737	242.520000
782.075552	244.410000
784.336780	243.310000
786.597440	246.150000
788.855553	244.370000
791.111122	244.190000
793.370082	249.630000
795.622543	255.690000
797.880371	248.990000
800.133679	254.250000
802.384448	252.890000
804.636629	248.870000
806.886272	249.110000
809.137326	253.470000
811.383869	247.850000
813.631825	247.510000
815.877245	243.310000
818.124077	243.210000
820.370348	241.310000
822.612115	237.510000
824.857264	239.030000
827.095941	230.930000
829.338001	236.340000
831.575562	236.410000
833.814534	232.840000
836.050980	231.540000
838.288837	228.630000
840.524170	233.550000
842.756978	236.290000
844.991198	229.290000
847.222896	233.690000
849.454039	229.830000
851.684627	230.070000
853.914661	228.450000
856.144140	231.430000
858.369138	224.250000
860.597511	223.730000
862.821405	215.070000
865.046709	222.570000
867.267538	225.990000
869.491739	222.030000
871.711467	221.770000
873.932606	221.990000
876.153194	223.890000
878.371272	227.100000
880.590761	227.390000
882.805783	226.260000
885.020257	217.350000
887.234184	219.810000
889.447563	210.400000
891.660395	209.980000
893.872681	211.670000
896.082464	214.470000
898.291702	214.330000
900.500395	214.870000
902.706589	216.110000
904.914192	222.310000
907.119298	217.870000
909.323860	227.750000
911.525926	227.810000
913.729402	232.870000
915.930384	237.530000
918.130825	251.790000
920.332674	256.810000
922.528131	272.490000
924.726948	289.710000
926.921327	319.880000
929.119062	355.670000
931.312362	394.860000
933.507071	446.940000
935.699294	482.830000
937.890979	527.690000
940.082126	552.440000
942.270790	560.030000
944.458917	559.680000
946.644564	556.060000
948.833563	552.870000
951.018139	546.790000
953.202180	548.650000
955.389571	549.430000
957.568658	556.250000
959.751096	552.550000
961.933000	561.350000
964.112430	565.130000
966.289387	567.370000
968.467751	565.030000
970.647523	579.470000
972.820946	581.810000
974.997715	578.100000
977.170078	574.570000
979.343847	572.900000
981.513213	555.990000
983.685924	540.490000
985.856168	503.040000
988.025884	455.670000
990.195071	404.510000
992.359861	380.040000
994.527992	337.130000
996.691729	326.310000
998.856872	312.500000
1001.019557	296.700000
1003.181715	292.590000
1005.341417	286.710000
1007.500595	269.250000
1009.661179	267.910000
1011.819308	251.750000
1013.976913	251.090000
1016.133995	240.510000
1018.290554	235.890000
1020.442733	228.490000
1022.596318	219.780000
1024.749382	217.050000
1026.899998	209.200000
1029.052019	212.120000
1031.199667	199.290000
1033.350647	198.750000
1035.497256	198.550000
1037.643347	193.850000
1039.788918	197.730000
1041.935895	194.150000
1044.076584	189.330000
1046.220601	193.110000
1048.362178	186.580000
1050.503239	189.790000
1052.645704	190.400000
1054.781890	191.760000
1056.921402	184.130000
1059.056558	187.730000
1061.195039	186.010000
1063.329166	185.530000
1065.462780	189.270000
1067.597799	184.270000
1069.728468	188.260000
1071.860542	189.810000
1073.990187	189.200000
1076.119320	183.650000
1078.247941	182.490000
1080.376051	178.620000
1082.501735	179.880000
1084.626909	176.810000
1086.753487	183.230000
1088.875728	187.510000
1090.999372	184.530000
1093.118683	173.770000
1095.243222	182.640000
1097.361516	178.250000
1099.481215	184.940000
1101.598495	172.790000
1103.715269	178.450000
1105.831536	176.120000
1107.945388	175.140000
1110.060643	174.510000
1112.171576	168.510000
1114.285820	168.430000
1116.395744	169.960000
1118.507072	167.470000
1120.617895	172.420000
1122.724403	163.640000
1124.834219	169.090000
1126.939721	164.910000
1129.046626	167.880000
1131.147316	159.170000
1133.253218	158.760000
1135.354811	155.420000
1137.457807	164.970000
1139.560302	157.990000
1141.656591	153.280000
1143.758086	158.830000
1145.855279	155.380000
1147.951973	155.020000
1150.048169	153.430000
1152.143868	150.290000
1154.239069	156.180000
1156.331873	152.550000
1158.426079	159.580000
1160.514094	157.920000
1162.607307	158.200000
1164.694332	156.050000
1166.784656	154.060000
1168.870693	150.150000
1170.960027	159.270000
1173.043180	154.640000
1175.127736	158.610000
1177.213692	158.190000
1179.295367	156.820000
1181.378444	157.230000
1183.459135	161.010000
1185.539334	156.660000
1187.619042	163.490000
1189.698259	155.850000
1191.775094	158.700000
1193.849548	152.170000
1195.927294	151.830000
1198.000769	158.020000
1200.075645	155.430000
1202.146254	155.990000
1204.218265	152.400000
1206.287899	153.970000
1208.358934	152.940000
1210.429481	150.560000
1212.495767	153.870000
1214.563454	152.040000
1216.628769	147.510000
1218.695484	150.150000
1220.757943	146.830000
1222.823687	147.710000
1224.885178	148.150000
1226.948068	144.930000
1229.008591	154.010000
1231.068630	142.290000
1233.128187	150.190000
1235.185378	149.410000
1237.242088	151.350000
1239.296435	149.970000
1241.354062	152.090000
1243.409327	150.650000
1245.460351	149.670000
1247.512775	147.470000
1249.564719	152.910000
1251.614305	154.510000
1253.663412	157.380000
1255.712041	156.570000
1257.760191	156.730000
1259.807863	154.550000
1261.851304	160.320000
1263.898020	154.430000
1265.942384	165.220000
1267.986270	157.670000
1270.027806	159.470000
1272.066992	154.690000
1274.109450	157.030000
1276.147686	159.110000
1278.187321	158.630000
1280.226481	153.650000
1282.261422	159.630000
1284.297763	152.430000
1286.331758	158.470000
1288.367152	148.090000
1290.398332	154.170000
1292.430911	148.170000
1294.463017	152.750000
1296.492783	147.690000
1298.523947	147.060000
1300.550903	144.890000
1302.579257	141.530000
1304.603407	144.560000
1306.630821	143.540000
1308.654033	149.570000
1310.678643	142.140000
1312.700919	136.980000
1314.724592	148.630000
1316.745932	145.980000
1318.766804	144.170000
1320.787210	144.410000
1322.803421	149.390000
1324.821031	141.730000
1326.836312	149.770000
1328.854851	145.930000
1330.869202	141.970000
1332.881227	140.450000
1334.896509	147.230000
1336.907606	146.730000
1338.920100	153.730000
1340.928411	147.170000
1342.939978	143.580000
1344.945505	147.550000
1346.954288	144.710000
1348.958893	140.830000
1350.966752	142.820000
1352.974149	147.170000
1354.975515	146.590000
1356.978278	140.350000
1358.980580	141.010000
1360.982423	139.390000
1362.983806	142.300000
1364.982876	141.170000
1366.981487	145.200000
1368.979640	141.930000
1370.977335	142.150000
1372.970866	141.150000
1374.965794	140.610000
1376.960265	137.590000
1378.954279	142.250000
1380.945986	135.670000
1382.937237	139.930000
1384.926183	135.070000
1386.916524	134.300000
1388.906410	129.710000
1390.893993	134.290000
1392.881121	135.980000
1394.865949	127.220000
1396.852170	132.070000
1398.836092	134.030000
1400.819561	130.220000
1402.802578	132.410000
1404.783296	128.190000
1406.765410	130.640000
1408.745226	130.830000
1410.724592	127.120000
1412.699818	132.920000
1414.678284	128.470000
1416.654455	134.940000
1418.630178	135.770000
1420.605451	129.850000
1422.578433	127.790000
1424.550967	124.690000
1426.523054	133.010000
1428.494692	130.790000
1430.462202	134.100000
1432.434787	120.010000
1434.399565	127.150000
1436.369416	129.010000
1438.335142	126.280000
1440.302261	127.730000
1442.267097	128.300000
1444.227814	130.310000
1446.193598	127.190000
1448.153427	129.730000
1450.114649	134.070000
1452.077264	134.890000
1454.035764	134.180000
1455.993822	141.090000
1457.951437	135.250000
1459.908611	135.370000
1461.863509	135.320000
1463.819799	132.450000
1465.773815	133.600000
1467.727391	132.910000
1469.678694	137.790000
1471.631389	128.050000
1473.581813	132.000000
1475.531798	125.350000
1477.481343	129.030000
1479.428620	130.100000
1481.373630	128.960000
1483.320031	123.950000
1485.265996	125.060000
1487.211522	125.520000
1489.154784	122.790000
1491.097609	124.760000
1493.038171	124.170000
1494.980124	120.530000
1496.919816	123.980000
1498.859072	121.970000
1500.797893	130.070000
1502.734455	119.300000
1504.672408	125.200000
1506.608103	125.510000
1508.543364	125.200000
1510.476368	128.280000
1512.408940	126.270000
1514.341080	123.020000
1516.272788	136.380000
1518.202242	129.530000
1520.133087	127.830000
1522.063501	132.150000
1523.989841	133.140000
1525.917573	132.830000
1527.843054	128.930000
1529.768106	130.410000
1531.692729	132.730000
1533.616923	132.850000
1535.538870	132.800000
1537.462206	132.270000
1539.383297	133.850000
1541.302143	140.810000
1543.222379	142.910000
1545.140371	142.710000
1547.057937	148.280000
1548.973261	143.610000
1550.889975	153.130000
1552.802634	149.930000
1554.718497	162.010000
1556.632120	161.570000
1558.543506	163.450000
1560.456280	165.490000
1562.365005	168.860000
1564.275120	181.680000
1566.184811	193.580000
1568.094078	210.750000
1570.001112	226.530000
1571.905913	255.920000
1573.812103	282.530000
1575.716061	319.810000
1577.619599	369.180000
1579.522715	425.330000
1581.423603	493.650000
1583.325878	526.920000
1585.225926	538.330000
1587.127361	511.770000
1589.024763	439.460000
1590.921746	363.050000
1592.818311	296.990000
1594.716264	252.400000
1596.608382	223.650000
1598.503693	198.810000
1600.398587	188.250000
1602.291259	175.910000
1604.183515	177.640000
1606.073551	166.960000
1607.963171	155.620000
1609.852375	155.700000
1611.741165	151.400000
1613.627738	142.710000
1615.515697	148.230000
1617.399640	146.130000
1619.284971	146.730000
1621.169887	149.290000
1623.052591	136.790000
1624.936680	135.710000
1626.816759	136.310000
1628.698224	132.690000
1630.577479	134.770000
1632.458120	125.270000
1634.332957	122.850000
1636.212776	121.250000
1638.088589	116.150000
1639.963992	116.310000
1641.840782	116.120000
1643.711774	118.410000
1645.585948	118.260000
1647.456124	112.220000
1649.329480	111.480000
1651.200633	116.070000
1653.069584	111.650000
1654.939921	111.800000
1656.806264	114.460000
1658.673993	107.300000
1660.539524	105.750000
1662.406439	105.130000
1664.269366	108.290000
1666.133678	106.450000
1667.995794	104.650000
1669.857506	99.330000
1671.720602	102.470000
1673.581504	108.130000
1675.440212	103.390000
1677.298517	102.810000
1679.158207	101.970000
1681.012130	98.930000
1682.869225	96.620000
1684.725918	102.310000
1686.578635	94.540000
1688.434523	103.670000
1690.286436	99.780000
1692.137949	98.100000
1693.989061	98.160000
1695.839773	97.750000
1697.690084	99.060000
1699.538211	102.920000
1701.387721	98.260000
1703.231483	99.100000
1705.080194	95.320000
1706.923160	93.870000
1708.769291	100.330000
1710.611461	95.350000
1712.456795	96.950000
1714.296389	97.090000
1716.137367	97.710000
1717.979728	98.910000
1719.818133	100.850000
1721.657921	98.530000
1723.495534	95.240000
1725.332751	89.870000
1727.167795	93.620000
1729.004222	91.060000
1730.838477	98.080000
1732.672337	91.090000
1734.505804	94.700000
1736.335324	95.040000
1738.168003	89.870000
1739.996738	87.850000
1741.828631	93.000000
1743.656581	93.010000
1745.484139	86.750000
1747.311305	88.300000
1749.138080	91.860000
1750.964464	93.280000
1752.786911	94.110000
1754.612512	93.450000
1756.434179	96.290000
1758.257228	91.550000
1760.078116	92.310000
1761.898614	92.990000
1763.720494	98.380000
1765.536674	88.790000
1767.356006	90.980000
1769.171411	90.630000
1770.989966	93.920000
1772.804596	92.360000
1774.618840	93.270000
1776.432696	88.990000
1778.246166	98.910000
1780.057483	95.120000
1781.870181	93.490000
1783.682492	90.670000
1785.490886	94.210000
1787.300661	88.170000
1789.106520	96.700000
1790.915526	89.380000
1792.720617	92.380000
1794.527090	86.500000
1796.333179	91.260000
1798.135358	93.410000
1799.940680	91.790000
1801.742094	87.410000
1803.544888	84.160000
1805.343776	86.690000
1807.144045	88.180000
1808.943932	87.400000
1810.741678	90.340000
1812.539043	86.990000
1814.336027	84.770000
1816.132631	83.800000
1817.927096	89.780000
1819.722940	89.220000
1821.513130	90.150000
1823.308216	85.770000
1825.097649	87.800000
1826.890219	92.810000
1828.680654	90.160000
1830.468955	86.140000
1832.260391	90.840000
1834.046181	91.910000
1835.833351	88.730000
1837.618389	89.820000
1839.406561	95.240000
1841.190847	97.260000
1842.973004	89.520000
1844.756539	87.230000
1846.537946	89.620000
1848.320732	93.410000
1850.099638	96.480000
1851.879922	94.140000
1853.658080	92.300000
1855.437617	93.850000
1857.215029	97.000000
1858.990317	96.520000
1860.766984	96.780000
1862.541527	93.300000
1864.317449	90.650000
1866.087751	90.110000
1867.861179	87.180000
1869.632488	90.110000
1871.403427	92.080000
1873.175742	89.340000
1874.942445	93.740000
1876.712272	94.030000
1878.478236	87.680000
1880.247324	87.180000
1882.012550	90.950000
1883.777407	93.960000
1885.543642	88.950000
1887.306018	86.220000
1889.068027	89.140000
1890.829668	86.750000
1892.590943	87.320000
1894.351850	87.380000
1896.112391	85.810000
1897.870822	92.070000
1899.628888	88.620000
1901.384845	84.970000
1903.142180	84.260000
1904.899148	86.100000
1906.654011	85.570000
1908.406768	88.390000
1910.159162	83.240000
1911.912931	82.730000
1913.664597	80.480000
1915.414161	81.880000
1917.165101	87.890000
1918.915677	82.990000
1920.662414	81.870000
1922.410528	79.530000
1924.156542	83.780000
1925.903932	84.440000
1927.649223	81.170000
1929.392417	79.530000
1931.136987	79.170000
1932.879460	81.630000
1934.621573	84.130000
1936.363326	80.420000
1938.104720	88.190000
1939.844020	79.010000
1941.582961	85.900000
1943.321543	81.030000
1945.058033	82.310000
1946.794166	81.440000
1948.531673	80.570000
1950.265358	83.970000
1952.000418	84.360000
1953.733390	80.390000
1955.466005	81.690000
1957.198263	79.080000
1958.930165	84.120000
1960.659981	80.670000
1962.387713	75.700000
1964.116818	78.800000
1965.845569	82.390000
1967.572236	80.160000
1969.298549	81.360000
1971.026235	78.730000
1972.748385	84.730000
1974.473636	80.220000
1976.195081	75.330000
1977.919625	83.690000
1979.642090	73.930000
1981.360751	85.330000
1983.082511	84.450000
1984.800469	81.730000
1986.519800	86.170000
1988.235332	81.590000
1989.955685	84.610000
1991.672238	71.190000
1993.384996	88.270000
1995.100849	82.530000
1996.814629	83.320000
1998.528060	75.870000
2000.239420	85.230000
2001.952153	82.090000
2003.661094	81.270000
2005.373129	81.010000
2007.079654	80.770000
2008.789272	73.010000
2010.496822	79.820000
2012.204025	84.510000
2013.909162	85.930000
2015.613952	76.090000
2017.320114	80.800000
2019.022494	81.130000
2020.726246	81.250000
2022.427934	77.930000
2024.129278	82.150000
2025.830276	82.650000
2027.529214	80.690000
2029.229522	79.750000
2030.926056	78.810000
2032.623961	74.710000
2034.319807	81.720000
2036.018739	76.470000
2037.712185	81.850000
2039.407003	78.440000
2041.101477	78.690000
2042.792183	77.670000
2044.485973	78.450000
2046.175996	69.210000
2047.867390	83.160000
2049.556731	78.130000
2051.247442	75.150000
2052.934391	77.660000
2054.620999	80.920000
2056.308978	74.610000
2057.993197	76.350000
2059.678786	74.400000
2061.364036	78.370000
2063.047238	81.430000
2064.731809	75.950000
2066.410918	79.890000
2068.094812	76.150000
2069.773246	78.490000
2071.454756	73.380000
2073.132516	78.050000
2074.809938	74.490000
2076.488731	76.530000
2078.165480	73.730000
2079.840188	71.510000
2081.516265	75.060000
2083.190302	75.550000
2084.864003	75.020000
2086.537369	72.270000
2088.208697	80.810000
2089.879690	70.310000
2091.550349	76.680000
2093.220673	74.870000
2094.890664	77.340000
2096.558619	77.370000
2098.226241	74.790000
2099.891829	72.710000
2101.558785	78.560000
2103.223707	73.790000
2104.888298	75.370000
2106.550857	71.750000
2108.214784	77.960000
2109.876681	74.690000
2111.538246	74.530000
2113.199480	76.340000
2114.858686	73.150000
2116.517562	70.090000
2118.176107	72.120000
2119.834323	75.330000
2121.488815	75.320000
2123.146372	67.280000
2124.803600	78.310000
2126.457106	77.640000
2128.111980	72.540000
2129.763136	70.850000
2131.417353	67.800000
2133.067854	70.120000
2134.719721	73.070000
2136.366180	69.860000
2138.017394	70.520000
2139.664894	67.450000
2141.313761	69.670000
2142.960610	64.040000
2144.607132	73.760000
2146.253329	70.710000
2147.895818	70.330000
2149.541365	67.010000
2151.183205	75.650000
2152.828102	74.550000
2154.469294	74.470000
2156.110162	70.170000
2157.750706	74.300000
2159.389239	70.130000
2161.029137	75.310000
2162.665335	74.010000
2164.302899	73.330000
2165.940140	63.290000
2167.575372	71.370000
2169.210283	72.630000
2170.844872	75.490000
2172.479139	75.330000
2174.109714	73.050000
2175.743339	75.610000
2177.373273	69.780000
2179.004572	69.990000
2180.633867	71.220000
2182.262841	72.330000
2183.891497	73.520000
2185.519833	70.240000
2187.146166	68.310000
2188.772181	73.230000
2190.396195	68.970000
2192.021573	75.710000
2193.644952	66.660000
2195.269694	69.610000
2196.890756	74.770000
2198.511501	68.160000
2200.133611	77.230000
2201.753723	70.770000
2203.371838	73.490000
2204.989638	71.230000
2206.607123	69.750000
2208.224292	65.090000
2209.841146	70.750000
2211.457685	64.290000
2213.072230	69.900000
2214.684783	71.590000
2216.298700	75.900000
2217.910626	74.460000
2219.523915	73.300000
2221.135214	73.410000
2222.744523	71.570000
2224.355196	70.340000
2225.963880	70.760000
2227.572252	69.490000
2229.178636	69.160000
2230.786384	68.650000
2232.392145	68.530000
2233.997595	69.650000
2235.601060	70.950000
2237.205889	68.230000
2238.808733	70.380000
2240.409594	72.250000
2242.011818	62.810000
2243.612059	67.010000
2245.213663	68.750000
2246.811615	67.910000
2248.410929	66.780000
2250.008263	69.350000
2251.605288	69.780000
2253.203676	63.570000
2254.798415	71.300000
2256.391177	66.920000
2257.985302	71.860000
2259.580788	63.090000
2261.172630	68.080000
2262.764165	71.890000
2264.357061	74.570000
2265.944648	73.820000
2267.536932	72.150000
2269.123908	67.200000
2270.713913	74.150000
2272.298613	69.910000
2273.888007	72.560000
2275.472098	67.550000
2277.057551	69.310000
2278.641034	67.880000
2280.227544	71.450000
2281.810420	67.030000
2283.392992	67.380000
2284.975261	65.530000
2286.553901	67.620000
2288.135564	64.380000
2289.713599	67.380000
2291.294657	69.530000
2292.872089	69.685000
2294.447556	69.840000
2296.026046	63.410000
2297.600912	67.020000
2299.175477	72.570000
2300.749742	67.150000
2302.323706	68.490000
2303.897370	65.700000
2305.470733	66.960000
2307.040478	61.630000
2308.609924	65.210000
2310.182389	66.130000
2311.749578	71.570000
2313.319786	63.550000
2314.886379	64.210000
2316.454332	66.910000
2318.020330	66.770000
2319.586029	66.190000
2321.151432	70.380000
2322.714881	68.970000
2324.279688	69.280000
2325.840888	74.840000
2327.405102	71.610000
2328.964055	77.690000
2330.526021	77.950000
2332.086037	67.050000
2333.645757	67.020000
2335.203528	65.810000
2336.761005	65.300000
2338.318186	65.220000
2339.873421	67.560000
2341.428361	66.730000
2342.983008	65.040000
2344.537361	60.860000
2346.091420	66.930000
2347.645185	69.490000
2349.197007	68.110000
2350.746885	69.150000
2352.299771	69.070000
2353.847415	65.890000
2355.398066	63.620000
2356.945127	66.610000
2358.493545	66.820000
2360.041671	64.690000
2361.586210	69.730000
2363.132106	66.160000
2364.676063	69.260000
2366.221378	65.130000
2367.763108	62.440000
2369.306195	71.990000
2370.847347	73.960000
2372.388209	66.330000
2373.928782	64.480000
2375.469066	66.000000
2377.009061	71.090000
2378.545477	65.250000
2380.084895	66.550000
2381.620736	60.840000
2383.157933	59.460000
2384.691555	63.030000
2386.228178	70.550000
2387.762869	66.190000
2389.295631	68.900000
2390.828107	62.450000
2392.358654	66.880000
2393.892199	68.160000
2395.420533	64.950000
2396.950223	69.730000
2398.479628	66.040000
2400.008747	67.250000
2401.537582	64.070000
2403.061211	68.940000
2404.589477	70.200000
2406.112539	70.560000
2407.640235	63.180000
2409.161092	68.370000
2410.686582	69.050000
2412.208511	68.940000
2413.731796	72.960000
2415.253160	66.760000
2416.772604	73.820000
2418.293403	67.310000
2419.812283	73.120000
2421.330881	69.180000
2422.847562	68.220000
2424.365597	72.770000
2425.883351	82.380000
2427.397554	72.150000
2428.911476	72.430000
2430.425118	71.280000
2431.940115	76.070000
2433.451563	73.590000
2434.964366	73.650000
2436.475256	79.350000
2437.985866	79.120000
2439.494565	77.260000
2441.006251	79.290000
2442.514392	79.340000
2444.022256	88.140000
2445.529842	79.710000
2447.033887	87.380000
2448.540918	83.380000
2450.046040	90.970000
2451.550885	86.580000
2453.053823	92.470000
2454.556484	91.290000
2456.058869	89.680000
2457.559349	91.240000
2459.061182	89.690000
2460.561111	88.380000
2462.060764	86.890000
2463.560141	87.050000
2465.057616	87.090000
2466.553190	82.670000
2468.051743	80.380000
2469.546767	78.390000
2471.043145	78.280000
2472.535996	79.760000
2474.030199	70.810000
2475.524129	79.910000
2477.014536	77.930000
2478.507919	75.090000
2479.999405	75.230000
2481.488994	75.550000
2482.978311	77.670000
2484.465733	79.750000
2485.956130	73.320000
2487.443008	71.710000
2488.931238	69.670000
2490.415952	71.720000
2491.900395	76.010000
2493.386190	67.610000
2494.870092	70.920000
2496.355346	70.010000
2497.835466	70.980000
2499.318558	67.030000
2500.799760	71.280000
2502.280693	72.110000
2503.759737	69.740000
2505.238512	66.950000
2506.717019	62.390000
2508.195258	67.240000
2509.673228	66.640000
2511.147694	63.730000
2512.625128	67.690000
2514.099059	65.050000
2515.574341	68.870000
2517.049355	61.730000
2518.520868	66.820000
2519.993732	62.350000
2521.464712	61.710000
2522.937043	67.010000
2524.404261	71.910000
2525.874444	62.970000
2527.342747	68.590000
2528.810785	61.170000
2530.278558	61.260000
2531.746066	63.300000
2533.213309	68.200000
2534.677060	61.660000
2536.142161	60.000000
2537.605385	63.120000
2539.069959	65.310000
2540.531043	68.090000
2541.993477	61.040000
2543.455648	61.510000
2544.914333	66.900000
2546.377590	61.020000
2547.835750	66.470000
2549.295259	65.430000
2550.749675	64.880000
2552.208660	63.630000
2553.665774	68.430000
2555.121017	66.640000
2556.575999	66.150000
2558.029111	69.830000
2559.483572	69.250000
2560.936164	65.230000
2562.388496	69.240000
2563.838960	66.640000
2565.292380	66.680000
2566.740718	64.450000
2568.192012	67.410000
2569.641439	64.390000
2571.087395	69.600000
2572.536305	71.900000
2573.981744	71.630000
2575.428532	69.250000
2576.873456	65.460000
2578.318123	69.510000
2579.764137	65.830000
2581.206684	67.720000
2582.650579	72.590000
2584.091009	60.690000
2585.532787	70.630000
2586.972704	74.290000
2588.413969	76.230000
2589.851773	72.930000
2591.292526	74.780000
2592.728216	70.330000
2594.166856	68.960000
2595.603639	71.080000
2597.038565	68.580000
2598.476440	71.860000
2599.909256	67.980000
2601.343420	72.340000
2602.775730	76.000000
2604.209386	70.840000
2605.641189	69.130000
2607.072739	72.600000
2608.504035	74.610000
2609.933479	68.510000
2611.362672	76.150000
2612.790013	72.730000
2614.218701	77.410000
2615.647136	73.730000
2617.072124	75.040000
2618.498459	80.050000
2619.922945	83.350000
2621.348777	82.810000
2622.771165	95.500000
2624.194899	92.410000
2625.616786	92.420000
2627.038424	89.270000
2628.458216	94.820000
2629.879354	95.830000
2631.300242	100.550000
2632.717692	102.710000
2634.138081	108.190000
2635.555033	112.790000
2636.971737	119.540000
2638.388192	119.970000
2639.804399	126.740000
2641.220357	128.850000
2642.634475	143.200000
2644.048346	154.710000
2645.460377	151.390000
2646.873753	167.530000
2648.283699	167.000000
2649.696580	186.330000
2651.106034	196.230000
2652.515241	206.920000
2653.922612	232.240000
2655.332917	251.070000
2656.741386	261.920000
2658.148020	281.840000
2659.554409	297.780000
2660.958964	317.640000
2662.364863	339.950000
2663.768929	358.720000
2665.172751	383.590000
2666.576328	398.350000
2667.978073	425.040000
2669.381162	451.890000
2670.780834	463.480000
2672.181848	476.880000
2673.579447	491.620000
2674.979976	494.980000
2676.377090	496.970000
2677.775547	488.060000
2679.172176	488.640000
2680.568563	473.830000
2681.964709	461.030000
2683.359028	443.170000
2684.754690	418.300000
2686.146942	395.710000
2687.540538	377.470000
2688.932309	356.430000
2690.325422	322.620000
2691.716712	294.670000
2693.106179	282.520000
2694.495406	251.570000
2695.884394	231.960000
2697.274724	210.610000
2698.660069	208.970000
2700.048338	188.370000
2701.434787	179.480000
2702.820997	156.210000
2704.206969	148.140000
2705.589541	147.450000
2706.973456	140.480000
2708.357133	129.290000
2709.740572	125.130000
2711.120615	114.870000
2712.502000	116.220000
2713.881569	108.400000
2715.262480	106.320000
2716.641576	98.750000
2718.018857	102.650000
2719.397480	95.220000
2720.774290	93.960000
2722.150864	87.810000
2723.527202	86.500000
2724.901728	82.800000
2726.277595	88.800000
2727.650075	79.080000
2729.025472	81.210000
2730.395907	79.880000
2731.767684	78.880000
2733.139226	77.010000
2734.508960	79.240000
2735.880035	76.260000
2737.249302	75.420000
2738.618335	68.260000
2739.985561	71.290000
2741.352555	69.880000
2742.719316	68.980000
2744.085844	69.280000
2745.450567	70.100000
2746.815059	63.800000
2748.179318	67.100000
2749.543345	63.410000
2750.907141	68.500000
2752.267563	66.150000
2753.630896	65.050000
2754.989286	61.930000
2756.350586	63.560000
2757.708515	59.950000
2759.069354	64.500000
2760.428392	59.970000
2761.784062	61.230000
2763.142640	62.050000
2764.497852	60.730000
2765.852834	56.810000
2767.206019	64.200000
2768.562111	59.330000
2769.914839	57.820000
2771.267338	55.410000
2772.619609	58.430000
2773.973219	57.420000
2775.323467	60.450000
2776.671922	60.070000
2778.023281	58.970000
2779.371281	59.980000
2780.720620	61.830000
2782.068166	54.740000
2783.415485	56.790000
2784.762578	59.680000
2786.107880	60.220000
2787.452956	56.730000
2788.797806	55.860000
2790.142429	59.520000
2791.483701	55.890000
2792.826311	61.180000
2794.168695	57.090000
2795.510855	51.790000
2796.849665	60.320000
2798.191374	56.330000
2799.529736	57.820000
2800.869435	56.660000
2802.207348	56.930000
2803.543477	55.210000
2804.879382	56.810000
2806.216625	55.930000
2807.552084	55.780000
2808.887320	55.320000
2810.220773	57.450000
2811.555564	56.760000
2812.887013	58.600000
2814.221358	55.920000
2815.550805	55.970000
2816.881589	54.850000
2818.212151	57.390000
2819.540934	58.570000
2820.871053	55.810000
2822.199394	60.130000
2823.527514	55.640000
2824.853857	57.270000
2826.181535	55.470000
2827.505881	49.190000
2828.831562	53.120000
2830.155468	45.790000
2831.479155	51.510000
2832.804177	49.380000
2834.125869	49.980000
2835.447343	49.990000
2836.768598	48.780000
2838.089634	51.060000
2839.408898	52.230000
2840.729497	54.210000
2842.048324	52.350000
2843.366933	55.720000
2844.683772	50.160000
2846.000393	48.840000
2847.316796	50.760000
2848.631431	48.370000
2849.947400	49.090000
2851.260049	42.030000
2852.574034	51.200000
2853.887801	50.210000
2855.201353	52.250000
2856.513137	51.080000
2857.823156	48.020000
2859.134508	55.370000
2860.442546	49.190000
2861.751919	47.490000
2863.061076	50.480000
2864.370018	45.970000
2865.677197	50.750000
2866.982612	50.210000
2868.289362	48.510000
2869.594349	49.500000
2870.899123	51.860000
2872.202135	46.560000
2873.508029	48.680000
2874.809067	50.820000
2876.111440	52.670000
2877.412053	53.660000
2878.714000	52.760000
2880.015734	40.560000
2881.314163	53.440000
2882.613927	50.270000
2883.911932	54.490000
2885.209726	49.470000
2886.505764	50.060000
2887.803135	40.610000
2889.098750	54.260000
2890.394154	47.680000
2891.689348	47.560000
2892.981243	45.190000
2894.276015	48.210000
2895.567490	50.100000
2896.860298	45.850000
2898.152896	49.100000
2899.442200	48.600000
2900.732836	51.500000
2902.021721	42.590000
2903.311939	49.930000
2904.598865	48.420000
2905.887123	41.570000
2907.173631	53.210000
2908.459932	48.000000
2909.746024	47.970000
2911.030368	48.620000
2912.317584	46.620000
2913.599972	46.920000
2914.883693	49.040000
2916.165668	44.130000
2917.447436	50.940000
2918.727458	45.510000
2920.010350	48.120000
2921.291497	48.080000
2922.569362	48.600000
2923.850096	50.450000
2925.127549	47.490000
2926.404797	45.520000
2927.680302	47.750000
2928.958675	43.880000
2930.232233	50.500000
2931.508659	50.220000
2932.783344	44.270000
2934.056289	39.870000
2935.330564	49.930000
2936.603100	44.130000
2937.875432	48.230000
2939.144490	46.100000
2940.416414	48.410000
2941.686600	47.820000
2942.956583	42.370000
2944.226362	44.820000
2945.494404	43.150000
2946.760711	44.960000
2948.026815	48.560000
2949.294249	44.730000
2950.559949	45.040000
2951.825446	39.160000
2953.090741	45.660000
2954.352771	44.130000
2955.616132	41.810000
2956.879290	44.420000
2958.140717	47.890000
2959.403473	45.360000
2960.664498	44.680000
2961.923791	39.800000
2963.182885	41.020000
2964.441778	44.090000
2965.700471	39.810000
2966.958964	37.200000
2968.215728	46.370000
2969.472292	47.260000
2970.727129	42.140000
2971.983295	45.840000
2973.236205	41.520000
2974.490445	40.940000
2975.744486	41.910000
2976.996801	38.290000
2978.248918	45.090000
2979.499310	38.870000
2980.752557	43.200000
2982.001027	39.800000
2983.252351	39.940000
2984.500427	40.570000
2985.748305	41.370000
2986.995986	38.860000
2988.243471	43.610000
2989.489234	38.260000
2990.734800	45.710000
2991.981694	39.660000
2993.225344	44.700000
2994.470322	40.570000
2995.712057	45.410000
2996.956643	35.820000
2998.199509	46.730000
2999.439135	41.360000
3000.681612	45.890000
3001.920848	42.490000
3003.161412	47.860000
3004.400259	40.180000
3005.638912	42.220000
3006.875849	38.930000
3008.114113	39.380000
3009.350663	43.320000
3010.587018	48.360000
3011.823180	46.700000
3013.057629	45.180000
3014.291884	44.590000
3015.525946	41.770000
3016.758296	45.500000
3017.988934	42.040000
3019.222418	40.660000
3020.454190	38.430000
3021.684252	35.270000
3022.914122	42.200000
3024.142282	39.750000
3025.371768	35.750000
3026.599546	40.100000
3027.827132	41.240000
3029.056044	45.590000
3030.280214	44.490000
3031.507227	41.360000
3032.731016	38.520000
3033.956132	40.540000
3035.179541	39.350000
3036.402761	38.850000
3037.624275	41.580000
3038.848630	34.930000
3040.068250	42.610000
3041.289195	43.400000
3042.509952	35.220000
3043.729005	44.330000
3044.949384	37.360000
3046.166546	43.480000
3047.385033	41.520000
3048.601819	36.440000
3049.818416	39.950000
3051.034826	46.030000
3052.248022	34.510000
3053.464056	42.630000
3054.676878	36.480000
3055.892537	38.570000
3057.103473	42.220000
3058.315734	40.530000
3059.527809	35.340000
3060.739697	39.960000
3061.949887	38.300000
3063.159891	39.360000
3064.369710	42.190000
3065.577832	39.410000
3066.785768	43.990000
3067.992010	41.010000
3069.199575	36.660000
3070.405447	37.385000
3071.611133	38.110000
3072.816634	32.710000
3074.020442	36.260000
3075.225574	35.650000
3076.429014	42.380000
3077.630761	37.440000
3078.832325	38.920000
3080.033705	38.970000
3081.234901	38.340000
3082.434407	39.450000
3083.633729	41.720000
3084.834375	38.380000
3086.033332	41.320000
3087.229093	34.630000
3088.427684	32.500000
3089.623081	31.890000
3090.819801	31.720000
3092.013329	33.140000
3093.209686	36.660000
3094.404355	39.330000
3095.595834	34.280000
3096.791644	33.310000
3097.982761	32.610000
3099.175200	36.860000
3100.364452	40.800000
3101.556530	31.430000
3102.746923	35.600000
3103.934131	37.830000
3105.122662	38.580000
3106.312515	33.400000
3107.499183	40.310000
3108.685672	34.060000
3109.871981	37.600000
3111.059612	33.190000
3112.244062	36.840000
3113.426831	35.200000
3114.612424	34.490000
3115.796336	33.240000
3116.978570	35.800000
3118.160625	34.550000
3119.342503	39.540000
3120.524202	32.800000
3121.704223	37.590000
3122.882568	36.780000
3124.063734	35.870000
3125.241724	35.410000
3126.419537	38.380000
3127.597173	31.610000
3128.773134	36.430000
3129.948918	26.120000
3131.126024	32.900000
3132.301455	32.010000
3133.475213	32.990000
3134.647299	31.170000
3135.820705	37.250000
3136.993936	34.350000
3138.165494	34.590000
3139.338374	35.230000
3140.508086	35.430000
3141.679119	32.570000
3142.848481	31.910000
3144.016174	31.690000
3145.186682	33.950000
3146.352531	35.010000
3147.522690	39.870000
3148.688191	37.350000
3149.853519	34.120000
3151.018673	34.850000
3152.183653	35.470000
3153.349954	37.350000
3154.511601	31.810000
3155.674569	35.070000
3156.837363	35.500000
3157.999985	32.510000
3159.160942	33.300000
3160.321726	32.900000
3161.482338	33.150000
3162.641287	31.010000
3163.800063	32.070000
3164.958668	31.430000
3166.117101	37.850000
3167.275362	33.530000
3168.431961	32.010000
3169.586899	28.090000
3170.743156	36.110000
3171.897753	29.790000
3173.052178	36.510000
3174.204944	36.210000
3175.357540	33.420000
3176.509965	38.710000
3177.662221	34.970000
3178.814307	35.240000
3179.963246	38.370000
3181.114992	30.950000
3182.265080	31.020000
3183.413512	35.130000
3184.561775	34.700000
3185.709868	32.170000
3186.857793	34.250000
3188.004063	29.340000
3189.150164	35.100000
3190.294610	40.090000
3191.438889	31.510000
3192.583000	33.970000
3193.728429	32.910000
3194.870719	33.210000
3196.012841	34.810000
3197.154796	33.170000
3198.296585	28.830000
3199.438206	35.270000
3200.576691	41.620000
3201.716494	27.450000
3202.857615	31.110000
3203.995601	28.670000
3205.131938	35.850000
3206.268109	34.830000
3207.405598	30.890000
3208.541438	30.870000
3209.678594	36.500000
3210.811138	32.060000
3211.947964	31.170000
3213.080178	30.870000
3214.213710	30.700000
3215.347076	28.090000
3216.477315	33.500000
3217.610352	33.520000
3218.740263	31.810000
3219.871491	29.890000
3220.999593	32.630000
3222.130492	30.710000
3223.259748	33.450000
3224.387359	30.130000
3225.511849	40.300000
3226.640614	37.630000
3227.766257	37.090000
3228.891737	34.380000
3230.015576	40.190000
3231.142209	38.990000
3232.264245	38.270000
3233.387597	37.290000
3234.510787	38.520000
3235.633815	40.520000
3236.755203	41.050000
3237.876430	48.280000
3238.996018	44.130000
3240.115445	42.990000
3241.233234	49.180000
3242.353816	47.470000
3243.471283	45.550000
3244.588591	49.200000
3245.705737	44.560000
3246.821248	42.710000
3247.938074	47.950000
3249.051789	40.470000
3250.168295	43.040000
3251.283165	42.410000
3252.394927	40.150000
3253.506530	37.190000
3254.619447	36.550000
3255.732206	34.310000
3256.841858	39.780000
3257.952825	37.950000
3259.063632	33.980000
3260.172809	31.680000
3261.280354	33.230000
3262.389214	31.350000
3263.497915	35.900000
3264.603514	29.990000
3265.710428	30.790000
3266.815712	31.610000
3267.922310	33.430000
3269.025808	30.150000
3270.130620	27.040000
3271.235275	30.670000
3272.336831	31.220000
3273.438232	30.660000
3274.540946	32.100000
3275.643503	26.590000
3276.742965	35.550000
3277.845209	30.500000
3278.944359	31.490000
3280.041883	26.650000
3281.139252	32.720000
3282.239404	27.290000
3283.336462	29.560000
3284.433365	23.490000
3285.530114	27.530000
3286.622303	31.000000
3287.718741	28.890000
3288.813558	30.350000
3289.908219	28.050000
3291.001259	27.260000
3292.094145	27.290000
3293.185410	26.050000
3294.277988	29.020000
3295.368945	27.490000
3296.458283	23.700000
3297.547468	31.170000
3298.637966	28.960000
3299.725379	23.640000
3300.812640	25.820000
3301.901213	28.490000
3302.989633	24.450000
3304.073506	28.270000
3305.161621	29.790000
3306.246655	26.690000
3307.330072	30.460000
3308.414802	29.980000
3309.497917	28.370000
3310.582343	31.390000
3311.663691	29.050000
3312.746351	20.930000
3313.827397	28.640000
3314.908292	24.560000
3315.987574	28.310000
3317.066705	27.710000
3318.147147	29.910000
3319.224516	29.290000
3320.303196	26.100000
3321.380264	26.520000
3322.457182	28.980000
3323.532489	34.050000
3324.607647	32.160000
3325.684116	28.160000
3326.757515	28.800000
3327.830765	28.540000
3328.905326	31.770000
3329.978277	25.150000
3331.049621	35.220000
3332.122275	21.440000
3333.191862	30.510000
3334.262760	21.840000
3335.332051	25.240000
3336.402653	29.770000
3337.471648	31.560000
3338.539037	27.560000
3339.604821	30.450000
3340.674831	26.600000
3341.741778	30.760000
3342.805663	26.730000
3343.872316	28.700000
3344.937364	31.060000
3346.000810	29.140000
3347.064108	25.620000
3348.127261	25.250000
3349.190267	22.890000
3350.253126	32.260000
3351.314384	26.490000
3352.372585	26.400000
3353.435007	29.540000
3354.494372	26.750000
3355.553592	27.360000
3356.614122	27.910000
3357.670142	24.470000
3358.728927	25.150000
3359.783204	24.430000
3360.840244	29.790000
3361.895687	27.210000
3362.952438	29.310000
3364.007592	26.130000
3365.061148	27.250000
3366.113107	22.190000
3367.167828	27.030000
3368.219500	24.210000
3369.271029	21.740000
3370.323867	26.810000
3371.373657	26.300000
3372.424755	28.920000
3373.472808	28.570000
3374.523621	26.050000
3375.571388	24.200000
3376.619013	25.670000
3377.666495	26.590000
3378.712385	25.770000
3379.759583	25.600000
3380.803739	26.170000
3381.850653	28.120000
3382.895975	29.310000
3383.938257	30.970000
3384.980397	24.490000
3386.023845	23.650000
3387.067153	26.990000
3388.108870	24.610000
3389.150446	21.550000
3390.191882	29.390000
3391.231728	26.450000
3392.269987	28.060000
3393.309553	25.010000
3394.348978	24.500000
3395.386817	26.470000
3396.423068	27.290000
3397.459179	26.120000
3398.496598	26.070000
3399.530984	23.250000
3400.566677	23.190000
3401.602231	25.040000
3402.634754	28.140000
3403.670030	23.370000
3404.702275	23.840000
3405.734382	22.640000
3406.764905	29.470000
3407.796736	22.320000
3408.828427	28.090000
3409.857092	20.870000
3410.885618	24.570000
3411.915452	26.550000
3412.945147	28.810000
3413.971817	27.590000
3414.999794	26.280000
3416.024746	22.990000
3417.052448	25.280000
3418.077127	26.900000
3419.103112	25.750000
3420.127517	23.030000
3421.151786	29.170000
3422.174476	24.630000
3423.197030	26.040000
3424.220890	24.800000
3425.241730	25.740000
3426.262435	26.210000
3427.284445	27.350000
3428.303437	26.310000
3429.322294	23.630000
3430.342456	21.770000
3431.359602	26.880000
