-117.888313	11.400000
-115.218713	-17.200000
-112.552048	35.100000
-109.886135	8.900000
-107.223154	-8.500000
-104.558744	14.900000
-101.897264	40.900000
-99.234355	-4.600000
-96.576552	-0.200000
-93.917320	12.900000
-91.258836	35.700000
-88.603276	33.900000
-85.946288	28.100000
-83.294398	6.800000
-80.641078	52.600000
-77.990677	-25.300000
-75.338847	29.300000
-72.692108	-11.600000
-70.043940	36.700000
-67.396514	-9.500000
-64.752002	30.600000
-62.106062	-5.400000
-59.465203	-35.300000
-56.822915	30.200000
-54.183536	-17.500000
-51.542727	-2.900000
-48.902659	4.200000
-46.267663	-5.200000
-43.631239	23.100000
-40.997717	-48.500000
-38.362767	64.400000
-35.732882	7.800000
-33.099405	50.600000
-30.470990	9.900000
-27.843309	16.100000
-25.214199	34.500000
-22.590146	10.400000
-19.962504	91.800000
-17.339915	117.800000
-14.718058	90.200000
-12.096931	180.700000
-9.476534	388.800000
-6.859026	1321.300000
-4.240089	4266.900000
-1.624037	9078.700000
0.991286	8871.400000
3.605882	4708.000000
6.217595	537.200000
8.830737	44.300000
11.438845	55.100000
14.050535	17.100000
16.657194	23.500000
19.265281	73.700000
21.872644	-27.300000
24.474982	2.600000
27.080898	7.300000
29.681792	35.800000
32.284114	-9.100000
34.881419	13.000000
37.482299	-24.900000
40.078164	14.800000
42.675458	17.000000
45.272032	31.800000
47.863597	3.600000
50.456590	-17.800000
53.046722	-3.000000
55.638282	13.800000
58.226982	37.100000
60.817109	17.000000
63.402237	9.500000
65.988793	46.200000
68.574635	19.500000
71.157623	-20.000000
73.742037	25.600000
76.319323	63.900000
78.900175	0.600000
81.478178	-0.800000
84.055471	10.600000
86.634190	24.200000
89.207927	-1.500000
91.783092	49.200000
94.355413	-61.700000
96.927026	8.800000
99.495799	10.000000
102.065999	-2.600000
104.633361	-0.600000
107.202148	13.700000
109.768099	19.000000
112.331215	23.900000
114.897887	3.700000
117.455338	8.900000
120.018474	39.900000
122.576650	82.200000
125.138381	98.900000
127.695155	116.600000
130.253356	144.000000
132.806603	182.500000
135.359153	281.800000
137.915253	466.700000
140.466405	543.900000
143.016860	611.700000
145.566617	677.900000
148.113555	780.700000
150.659798	744.100000
153.207466	817.400000
155.754438	810.600000
158.296475	839.800000
160.837818	784.800000
163.378468	761.200000
165.920544	730.200000
168.459808	799.400000
170.996264	779.600000
173.532028	750.800000
176.069218	739.000000
178.605717	795.200000
181.139410	694.600000
183.670299	778.200000
186.200501	761.800000
188.732127	777.900000
191.260952	732.200000
193.786978	712.200000
196.312318	755.400000
198.839083	750.400000
201.363052	755.600000
203.886336	765.500000
206.408935	719.600000
208.928741	778.800000
211.447864	778.100000
213.966304	725.200000
216.486168	731.800000
218.999031	749.100000
221.515425	725.600000
224.031137	757.100000
226.541959	742.000000
229.054206	748.900000
231.563671	798.400000
234.072457	765.100000
236.580564	805.200000
239.090096	826.300000
241.594747	782.800000
244.098722	782.200000
246.604121	758.200000
249.104645	812.700000
251.608693	769.100000
254.105769	785.500000
256.606369	768.800000
259.104197	809.400000
261.601352	815.000000
264.097834	795.900000
266.589453	800.200000
269.084592	829.900000
271.576964	754.400000
274.068666	827.100000
276.557605	813.000000
279.047968	823.400000
281.535568	834.100000
284.020409	797.800000
286.508765	845.500000
288.990181	836.200000
291.475111	803.100000
293.955196	794.800000
296.438793	777.100000
298.917547	864.700000
301.397725	845.900000
303.875150	870.000000
306.351912	806.700000
308.828011	901.600000
311.301361	852.100000
313.774049	915.600000
316.246076	973.900000
318.717442	1088.000000
321.186063	1141.200000
323.654026	1168.000000
326.123410	1014.700000
328.587972	999.800000
331.056038	963.900000
333.519284	891.700000
335.981872	911.800000
338.443804	896.700000
340.905079	899.300000
343.363620	903.400000
345.823583	902.900000
348.280813	913.000000
350.737389	930.300000
353.193311	909.700000
355.646503	931.700000
358.101118	903.600000
360.550931	892.400000
363.004240	884.400000
365.452751	887.100000
367.900610	882.200000
370.349892	871.900000
372.794380	871.200000
375.240290	872.200000
377.685550	878.200000
380.128092	872.500000
382.569986	881.500000
385.011233	893.900000
387.449764	900.700000
389.889717	904.600000
392.326956	904.700000
394.761483	888.200000
397.199498	889.900000
399.632736	932.200000
402.067395	907.800000
404.497282	893.100000
406.930654	930.500000
409.359256	926.900000
411.787216	911.200000
414.216598	871.100000
416.641214	892.800000
419.067252	869.900000
421.492649	893.500000
423.917406	902.700000
426.337405	889.000000
428.758825	882.400000
431.177548	916.400000
433.597692	909.500000
436.015141	914.800000
438.434010	919.300000
440.850186	944.500000
443.261614	925.500000
445.676520	930.500000
448.088735	850.900000
450.500316	928.000000
452.911263	925.100000
455.319524	895.300000
457.727152	900.800000
460.134148	923.200000
462.540513	891.300000
464.944195	870.600000
467.347247	881.800000
469.749669	842.200000
472.151461	857.700000
474.550576	853.500000
476.951110	836.500000
479.351015	833.600000
481.746197	815.700000
484.144846	867.800000
486.538775	833.100000
488.932078	861.900000
491.324755	836.500000
493.716807	815.300000
496.110277	781.900000
498.499035	749.300000
500.885127	713.400000
503.272639	691.600000
505.659528	642.200000
508.043753	655.100000
510.429396	631.000000
512.812378	627.000000
515.192699	549.200000
517.574439	634.300000
519.953520	504.200000
522.334020	581.000000
524.711862	538.700000
527.087049	527.800000
529.461618	489.100000
531.837605	482.400000
534.210940	523.200000
536.585692	503.000000
538.955759	469.700000
541.325210	535.100000
543.696079	483.900000
546.062268	480.500000
548.429875	452.800000
550.794836	510.900000
553.159184	429.300000
555.522919	510.400000
557.888072	446.700000
560.248553	486.000000
562.610452	444.000000
564.969710	431.500000
567.326331	450.700000
569.686396	451.000000
572.039770	411.800000
574.396589	451.500000
576.750773	422.200000
579.104349	467.100000
581.457316	437.700000
583.807651	408.200000
586.159404	397.400000
588.504480	462.400000
590.855020	471.900000
593.198886	462.600000
595.548214	430.900000
597.892893	479.300000
600.234948	422.500000
602.578420	484.100000
604.919269	443.600000
607.259516	471.700000
609.597142	390.400000
611.938203	406.600000
614.274626	426.400000
616.612466	455.300000
618.947689	398.300000
621.280296	385.700000
623.614319	406.700000
625.945728	397.900000
628.276539	388.400000
630.606753	401.400000
632.936368	380.800000
635.261360	421.100000
637.591794	411.900000
639.917607	404.800000
642.240812	386.300000
644.565434	398.100000
646.887450	366.300000
649.208872	382.300000
651.527692	380.100000
653.847927	387.500000
656.167569	360.700000
658.484610	365.500000
660.801059	346.100000
663.114910	428.500000
665.430177	377.100000
667.742847	373.200000
670.056932	408.300000
672.366417	341.400000
674.677318	327.600000
676.985626	359.900000
679.293346	384.500000
681.602480	356.600000
683.907022	319.100000
686.210978	365.400000
688.514348	374.900000
690.819132	327.700000
693.119330	349.200000
695.420942	369.100000
697.721970	320.700000
700.018415	287.700000
702.316276	362.400000
704.613553	356.500000
706.910247	307.400000
709.202365	343.700000
711.497894	314.600000
713.788849	381.100000
716.081219	343.600000
718.371014	313.000000
720.660228	334.000000
722.948863	356.600000
725.234925	335.600000
727.522402	395.500000
729.807307	308.300000
732.091635	325.700000
734.373394	275.400000
736.656567	359.800000
738.939163	358.300000
741.217203	356.100000
743.496658	326.800000
745.775536	349.100000
748.053840	326.000000
750.327594	368.000000
752.602761	339.500000
754.877355	364.300000
757.149390	369.900000
759.422838	336.600000
761.693728	341.500000
763.962062	335.400000
766.231809	336.100000
768.499002	386.300000
770.765624	366.700000
773.031676	389.100000
775.295177	328.000000
777.560091	367.400000
779.824435	368.900000
782.084250	437.800000
784.345477	402.100000
786.606137	419.600000
788.864251	342.600000
791.119820	365.800000
793.378780	354.600000
795.631241	389.300000
797.889068	361.900000
800.142377	347.900000
802.393146	356.200000
804.645327	366.600000
806.894969	337.500000
809.146024	423.800000
811.392567	337.800000
813.640522	370.600000
815.885943	352.700000
818.132775	373.500000
820.379046	303.300000
822.620812	338.100000
824.865962	364.700000
827.104639	350.600000
829.346698	337.600000
831.584259	372.300000
833.823232	356.100000
836.059678	359.600000
838.297535	322.800000
840.532867	354.800000
842.765676	337.000000
844.999896	301.200000
847.231593	320.300000
849.462736	305.600000
851.693324	342.100000
853.923358	326.400000
856.152838	280.200000
858.377836	354.300000
860.606209	296.400000
862.830102	264.800000
865.055407	314.900000
867.276236	356.400000
869.500437	307.700000
871.720165	356.700000
873.941303	292.200000
876.161891	342.000000
878.379970	289.900000
880.599458	331.500000
882.814480	334.900000
885.028955	371.500000
887.242881	334.300000
889.456261	331.600000
891.669093	317.600000
893.881379	344.900000
896.091162	337.500000
898.300400	331.700000
900.509093	328.900000
902.715287	294.800000
904.922890	325.000000
907.127995	316.700000
909.332557	306.400000
911.534624	332.700000
913.738100	284.600000
915.939082	320.900000
918.139522	296.700000
920.341371	361.100000
922.536829	291.800000
924.735646	329.200000
926.930024	334.800000
929.127760	344.600000
931.321060	299.500000
933.515769	276.300000
935.707992	336.800000
937.899676	337.000000
940.090823	314.900000
942.279487	322.100000
944.467615	315.900000
946.653262	302.400000
948.842261	318.600000
951.026837	343.600000
953.210878	350.900000
955.398269	411.500000
957.577356	402.600000
959.759794	383.600000
961.941698	427.100000
964.121127	366.200000
966.298084	384.000000
968.476449	422.400000
970.656221	384.100000
972.829644	412.400000
975.006413	448.500000
977.178775	440.500000
979.352545	426.700000
981.521911	448.200000
983.694621	425.000000
985.864866	452.600000
988.034582	428.000000
990.203769	453.600000
992.368559	448.500000
994.536690	438.600000
996.700427	460.900000
998.865570	492.800000
1001.028254	454.500000
1003.190413	488.400000
1005.350115	514.200000
1007.509292	517.200000
1009.669876	500.400000
1011.828006	453.300000
1013.985611	456.200000
1016.142693	488.800000
1018.299251	485.500000
1020.451430	526.500000
1022.605016	505.100000
1024.758080	534.900000
1026.908695	488.100000
1029.060717	551.200000
1031.208365	513.900000
1033.359345	567.600000
1035.505954	493.000000
1037.652044	557.300000
1039.797616	516.900000
1041.944593	546.900000
1044.085281	528.700000
1046.229299	523.800000
1048.370876	480.900000
1050.511937	550.200000
1052.654402	531.400000
1054.790588	586.600000
1056.930099	561.200000
1059.065256	570.200000
1061.203737	549.200000
1063.337864	580.500000
1065.471478	598.200000
1067.606497	581.000000
1069.737166	551.700000
1071.869240	545.300000
1073.998885	535.000000
1076.128018	553.000000
1078.256639	552.200000
1080.384749	516.600000
1082.510433	470.600000
1084.635607	518.700000
1086.762185	513.700000
1088.884425	484.800000
1091.008070	485.800000
1093.127380	526.600000
1095.251920	525.400000
1097.370214	505.800000
1099.489913	477.800000
1101.607193	540.800000
1103.723967	445.200000
1105.840234	483.900000
1107.954085	452.200000
1110.069341	467.200000
1112.180273	457.000000
1114.294518	479.500000
1116.404442	487.800000
1118.515770	457.600000
1120.626593	426.000000
1122.733100	413.000000
1124.842917	413.900000
1126.948419	430.300000
1129.055324	403.200000
1131.156014	429.600000
1133.261916	433.700000
1135.363509	405.300000
1137.466505	428.500000
1139.569000	461.000000
1141.665288	370.200000
1143.766784	433.700000
1145.863976	431.200000
1147.960671	410.500000
1150.056867	368.600000
1152.152566	400.400000
1154.247766	415.000000
1156.340570	418.500000
1158.434777	415.900000
1160.522792	428.800000
1162.616005	419.800000
1164.703030	399.300000
1166.793354	382.100000
1168.879391	430.500000
1170.968725	393.900000
1173.051878	360.200000
1175.136433	368.000000
1177.222390	422.000000
1179.304065	389.200000
1181.387142	427.400000
1183.467833	387.500000
1185.548032	359.000000
1187.627740	408.900000
1189.706957	414.700000
1191.783792	351.400000
1193.858246	437.200000
1195.935991	407.100000
1198.009467	394.100000
1200.084343	393.100000
1202.154952	422.800000
1204.226962	425.700000
1206.296597	430.500000
1208.367632	390.500000
1210.438179	395.700000
1212.504465	381.300000
1214.572152	378.400000
1216.637467	379.600000
1218.704182	422.200000
1220.766641	352.300000
1222.832385	350.600000
1224.893875	391.600000
1226.956766	395.700000
1229.017289	359.100000
1231.077328	443.100000
1233.136885	418.500000
1235.194076	438.100000
1237.250786	396.800000
1239.305132	445.200000
1241.362760	360.400000
1243.418025	426.600000
1245.469049	374.500000
1247.521473	431.600000
1249.573417	347.000000
1251.623003	382.500000
1253.672110	432.300000
1255.720739	405.100000
1257.768889	363.600000
1259.816560	409.200000
1261.860001	433.900000
1263.906718	419.200000
1265.951081	394.300000
1267.994968	423.100000
1270.036503	410.000000
1272.075689	408.900000
1274.118148	398.100000
1276.156384	431.600000
1278.196019	426.600000
1280.235179	448.500000
1282.270120	442.100000
1284.306460	398.200000
1286.340456	463.500000
1288.375849	443.300000
1290.407030	477.700000
1292.439608	508.900000
1294.471715	456.600000
1296.501481	522.300000
1298.532645	503.500000
1300.559601	580.000000
1302.587955	510.100000
1304.612104	586.000000
1306.639519	584.400000
1308.662731	552.300000
1310.687341	626.700000
1312.709617	636.100000
1314.733290	657.400000
1316.754630	714.500000
1318.775502	728.800000
1320.795907	775.700000
1322.812119	786.900000
1324.829728	791.700000
1326.845009	820.100000
1328.863549	875.900000
1330.877900	828.200000
1332.889925	958.100000
1334.905207	935.300000
1336.916304	944.500000
1338.928798	941.900000
1340.937109	906.900000
1342.948675	955.400000
1344.954203	935.100000
1346.962986	908.600000
1348.967591	856.400000
1350.975450	842.000000
1352.982847	803.900000
1354.984213	777.500000
1356.986975	764.000000
1358.989278	738.100000
1360.991121	737.500000
1362.992504	635.300000
1364.991574	669.800000
1366.990185	584.800000
1368.988338	608.600000
1370.986032	562.200000
1372.979564	528.900000
1374.974491	518.700000
1376.968962	521.900000
1378.962976	489.000000
1380.954683	475.600000
1382.945935	499.800000
1384.934881	474.700000
1386.925222	482.300000
1388.915108	456.700000
1390.902690	466.300000
1392.889819	442.500000
1394.874646	427.700000
1396.860868	457.200000
1398.844790	431.300000
1400.828259	451.100000
1402.811275	397.400000
1404.791994	450.500000
1406.774107	415.300000
1408.753924	412.000000
1410.733289	403.100000
1412.708516	410.000000
1414.686981	396.800000
1416.663153	440.400000
1418.638876	392.300000
1420.614149	421.800000
1422.587131	399.100000
1424.559665	408.400000
1426.531751	395.500000
1428.503390	410.800000
1430.470900	368.700000
1432.443484	417.200000
1434.408262	384.800000
1436.378113	456.300000
1438.343840	367.000000
1440.310959	417.800000
1442.275795	338.800000
1444.236511	420.100000
1446.202295	403.600000
1448.162124	381.300000
1450.123347	320.800000
1452.085962	389.500000
1454.044462	379.400000
1456.002519	366.200000
1457.960135	344.800000
1459.917308	399.200000
1461.872206	383.500000
1463.828497	437.300000
1465.782513	375.100000
1467.736088	398.600000
1469.687391	345.100000
1471.640087	427.400000
1473.590510	351.500000
1475.540495	385.400000
1477.490041	384.000000
1479.437318	413.100000
1481.382327	381.000000
1483.328729	376.100000
1485.274693	374.900000
1487.220220	416.000000
1489.163481	394.400000
1491.106307	374.200000
1493.046869	406.700000
1494.988822	394.000000
1496.928513	424.500000
1498.867770	445.900000
1500.806591	393.300000
1502.743153	391.500000
1504.681106	397.700000
1506.616800	391.800000
1508.552061	423.500000
1510.485066	440.400000
1512.417638	354.600000
1514.349778	445.200000
1516.281486	368.100000
1518.210940	449.800000
1520.141785	404.200000
1522.072198	514.300000
1523.998539	459.400000
1525.926271	406.600000
1527.851752	450.000000
1529.776804	456.300000
1531.701427	426.700000
1533.625621	531.400000
1535.547567	482.900000
1537.470904	500.700000
1539.391994	506.100000
1541.310840	510.900000
1543.231076	556.300000
1545.149069	559.100000
1547.066635	570.000000
1548.981959	673.600000
1550.898673	634.800000
1552.811332	690.800000
1554.727195	659.400000
1556.640818	744.200000
1558.552203	759.900000
1560.464978	773.100000
1562.373703	762.000000
1564.283817	818.300000
1566.193508	801.400000
1568.102776	846.300000
1570.009810	815.900000
1571.914611	803.800000
1573.820801	768.700000
1575.724759	837.700000
1577.628296	773.800000
1579.531413	768.500000
1581.432300	730.700000
1583.334576	737.900000
1585.234624	714.400000
1587.136059	673.500000
1589.033461	648.300000
1590.930444	711.000000
1592.827009	616.700000
1594.724962	653.700000
1596.617080	663.800000
1598.512391	669.700000
1600.407285	609.700000
1602.299957	576.000000
1604.192212	590.600000
1606.082248	583.900000
1607.971868	585.700000
1609.861073	530.400000
1611.749863	520.400000
1613.636435	465.700000
1615.524395	521.200000
1617.408338	442.500000
1619.293668	468.000000
1621.178585	456.100000
1623.061288	407.000000
1624.945378	399.800000
1626.825456	443.300000
1628.706922	450.700000
1630.586177	381.800000
1632.466818	400.300000
1634.341655	395.800000
1636.221473	414.300000
1638.097287	349.000000
1639.972690	381.500000
1641.849479	370.400000
1643.720472	370.700000
1645.594646	341.700000
1647.464821	329.700000
1649.338178	373.100000
1651.209331	392.100000
1653.078282	285.500000
1654.948618	353.900000
1656.814962	322.000000
1658.682691	381.600000
1660.548221	331.100000
1662.415137	332.800000
1664.278064	309.700000
1666.142376	316.500000
1668.004492	293.000000
1669.866203	352.600000
1671.729300	320.600000
1673.590201	314.300000
1675.448910	277.300000
1677.307215	320.200000
1679.166905	286.900000
1681.020827	339.600000
1682.877923	317.300000
1684.734616	351.200000
1686.587332	293.800000
1688.443220	291.200000
1690.295134	276.200000
1692.146647	292.500000
1693.997759	369.000000
1695.848471	320.300000
1697.698782	299.500000
1699.546908	330.400000
1701.396419	315.200000
1703.240181	314.900000
1705.088892	281.100000
1706.931857	323.700000
1708.777989	295.800000
1710.620158	323.200000
1712.465493	310.700000
1714.305087	316.800000
1716.146065	330.900000
1717.988426	339.500000
1719.826831	261.600000
1721.666619	274.600000
1723.504232	330.100000
1725.341449	321.600000
1727.176493	315.800000
1729.012920	321.400000
1730.847175	288.000000
1732.681035	310.000000
1734.514501	264.600000
1736.344022	251.000000
1738.176701	299.200000
1740.005436	322.100000
1741.837328	291.500000
1743.665278	290.300000
1745.492837	335.500000
1747.320003	284.200000
1749.146778	261.700000
1750.973161	280.800000
1752.795608	316.400000
1754.621210	299.700000
1756.442877	261.500000
1758.265926	280.100000
1760.086813	276.600000
1761.907312	310.400000
1763.729191	278.000000
1765.545372	288.100000
1767.364704	304.400000
1769.180109	297.200000
1770.998664	264.800000
1772.813294	259.100000
1774.627537	283.800000
1776.441394	306.700000
1778.254864	316.400000
1780.066181	266.200000
1781.878878	287.700000
1783.691190	305.600000
1785.499584	278.600000
1787.309358	311.000000
1789.115218	282.800000
1790.924223	239.600000
1792.729315	244.600000
1794.535788	318.100000
1796.341877	221.900000
1798.144055	274.000000
1799.949378	305.500000
1801.750792	259.400000
1803.553586	277.300000
1805.352474	298.600000
1807.152743	305.200000
1808.952630	289.700000
1810.750375	282.300000
1812.547740	306.600000
1814.344725	254.000000
1816.141329	292.800000
1817.935794	304.100000
1819.731638	312.500000
1821.521827	309.400000
1823.316913	266.100000
1825.106347	266.400000
1826.898917	309.400000
1828.689352	225.600000
1830.477653	289.300000
1832.269089	280.200000
1834.054879	261.000000
1835.842049	285.900000
1837.627087	260.900000
1839.415259	313.200000
1841.199545	273.000000
1842.981701	266.300000
1844.765237	292.200000
1846.546644	270.400000
1848.329430	279.100000
1850.108335	300.700000
1851.888620	289.700000
1853.666778	260.100000
1855.446315	325.600000
1857.223727	251.500000
1858.999015	301.600000
1860.775681	305.400000
1862.550225	314.700000
1864.326147	294.100000
1866.096448	274.300000
1867.869877	286.700000
1869.641186	293.200000
1871.412124	312.200000
1873.184440	286.500000
1874.951142	265.600000
1876.720970	284.000000
1878.486934	272.600000
1880.256021	303.200000
1882.021247	247.800000
1883.786105	326.500000
1885.552340	295.000000
1887.314716	279.300000
1889.076725	333.900000
1890.838366	286.800000
1892.599641	259.000000
1894.360548	293.400000
1896.121089	327.800000
1897.879520	292.600000
1899.637585	272.600000
1901.393543	274.900000
1903.150877	316.900000
1904.907846	313.800000
1906.662708	286.200000
1908.415466	317.200000
1910.167859	307.100000
1911.921629	273.900000
1913.673295	263.600000
1915.422859	293.300000
1917.173798	272.500000
1918.924375	308.900000
1920.671112	234.000000
1922.419226	312.000000
1924.165240	270.200000
1925.912629	281.600000
1927.657921	255.600000
1929.401115	283.300000
1931.145684	252.100000
1932.888158	287.600000
1934.630271	303.600000
1936.372024	282.100000
1938.113417	261.200000
1939.852717	266.600000
1941.591658	289.700000
1943.330240	283.900000
1945.066731	316.700000
1946.802864	291.300000
1948.540371	265.900000
1950.274056	292.400000
1952.009116	263.400000
1953.742087	252.900000
1955.474702	254.000000
1957.206961	293.800000
1958.938863	280.700000
1960.668679	308.200000
1962.396410	225.700000
1964.125516	328.300000
1965.854267	283.000000
1967.580934	298.200000
1969.307247	283.100000
1971.034933	302.300000
1972.757083	256.500000
1974.482334	283.700000
1976.203778	301.800000
1977.928323	316.300000
1979.650787	271.600000
1981.369449	324.000000
1983.091209	306.500000
1984.809167	289.200000
1986.528498	297.200000
1988.244030	304.800000
1989.964382	290.000000
1991.680936	303.300000
1993.393693	265.600000
1995.109546	317.100000
1996.823327	255.600000
1998.536758	267.100000
2000.248118	305.900000
2001.960850	301.700000
2003.669792	272.200000
2005.381826	288.600000
2007.088352	283.800000
2008.797969	298.200000
2010.505520	245.300000
2012.212722	299.900000
2013.917859	292.900000
2015.622650	288.300000
2017.328812	276.300000
2019.031192	303.100000
2020.734943	265.200000
2022.436632	324.700000
2024.137976	284.400000
2025.838974	294.800000
2027.537911	280.000000
2029.238220	314.800000
2030.934754	314.400000
2032.632659	297.200000
2034.328505	298.500000
2036.027437	332.000000
2037.720883	336.200000
2039.415700	307.400000
2041.110175	306.300000
2042.800881	284.600000
2044.494671	336.100000
2046.184694	312.300000
2047.876088	280.700000
2049.565429	271.400000
2051.256140	226.300000
2052.943088	261.900000
2054.629697	256.400000
2056.317675	292.100000
2058.001894	269.900000
2059.687484	301.500000
2061.372734	269.100000
2063.055935	255.100000
2064.740507	304.100000
2066.419616	264.500000
2068.103510	285.800000
2069.781943	313.100000
2071.463454	279.100000
2073.141213	290.500000
2074.818636	321.800000
2076.497428	280.400000
2078.174178	237.700000
2079.848886	252.500000
2081.524963	289.700000
2083.199000	296.900000
2084.872701	272.500000
2086.546067	323.200000
2088.217394	249.400000
2089.888387	294.700000
2091.559046	254.400000
2093.229371	305.500000
2094.899362	275.000000
2096.567317	281.000000
2098.234939	277.000000
2099.900526	310.100000
2101.567482	319.200000
2103.232405	274.300000
2104.896996	281.900000
2106.559555	334.300000
2108.223482	265.200000
2109.885378	300.800000
2111.546944	257.500000
2113.208178	308.800000
2114.867384	282.600000
2116.526259	285.000000
2118.184805	279.300000
2119.843020	247.100000
2121.497513	291.400000
2123.155070	298.600000
2124.812298	259.900000
2126.465804	306.500000
2128.120678	259.600000
2129.771833	348.800000
2131.426051	283.100000
2133.076552	296.300000
2134.728419	258.500000
2136.374878	297.400000
2138.026092	334.800000
2139.673592	317.600000
2141.322459	295.400000
2142.969307	283.800000
2144.615830	288.700000
2146.262027	273.000000
2147.904516	261.600000
2149.550063	330.900000
2151.191903	315.000000
2152.836800	293.200000
2154.477991	335.900000
2156.118860	284.400000
2157.759404	271.400000
2159.397936	332.400000
2161.037834	300.200000
2162.674032	320.800000
2164.311596	259.600000
2165.948838	339.800000
2167.584070	277.000000
2169.218981	299.600000
2170.853569	269.100000
2172.487837	287.800000
2174.118411	322.300000
2175.752037	288.200000
2177.381971	273.800000
2179.013270	270.500000
2180.642564	281.300000
2182.271539	289.500000
2183.900194	299.600000
2185.528530	286.700000
2187.154864	283.200000
2188.780879	300.300000
2190.404892	270.200000
2192.030271	315.300000
2193.653649	286.800000
2195.278392	304.400000
2196.899454	283.600000
2198.520199	328.100000
2200.142309	262.800000
2201.762421	329.300000
2203.380536	224.400000
2204.998336	299.100000
2206.615821	224.900000
2208.232990	322.700000
2209.849844	279.500000
2211.466382	290.200000
2213.080928	300.600000
2214.693481	359.900000
2216.307398	285.900000
2217.919324	287.600000
2219.532613	231.900000
2221.143912	274.300000
2222.753221	275.300000
2224.363894	332.800000
2225.972578	275.100000
2227.580949	291.800000
2229.187334	271.100000
2230.795082	270.100000
2232.400843	250.300000
2234.006293	259.400000
2235.609758	285.600000
2237.214586	281.200000
2238.817430	328.300000
2240.418291	295.000000
2242.020515	338.800000
2243.620757	296.800000
2245.222361	249.000000
2246.820312	315.000000
2248.419626	305.100000
2250.016960	325.500000
2251.613986	264.300000
2253.212374	306.500000
2254.807113	278.600000
2256.399875	255.900000
2257.994000	331.700000
2259.589486	335.600000
2261.181327	288.600000
2262.772862	267.200000
2264.365759	283.100000
2265.953346	303.500000
2267.545629	293.100000
2269.132606	261.000000
2270.722610	281.900000
2272.307310	309.000000
2273.896704	291.500000
2275.480796	267.500000
2277.066248	292.200000
2278.649732	269.200000
2280.236241	244.200000
2281.819117	279.900000
2283.401690	302.300000
2284.983959	294.400000
2286.562598	287.100000
2288.144262	309.700000
2289.722297	290.500000
2291.303355	300.300000
2292.880786	280.600000
2294.456254	260.900000
2296.034744	278.100000
2297.609610	310.200000
2299.184175	240.300000
2300.758440	270.600000
2302.332404	307.500000
2303.906067	287.600000
2305.479431	289.600000
2307.049176	277.400000
2308.618622	314.100000
2310.191086	283.700000
2311.758276	297.400000
2313.328484	282.600000
2314.895077	259.700000
2316.463030	318.200000
2318.029027	274.700000
2319.594727	313.300000
2321.160129	283.600000
2322.723578	305.500000
2324.288386	326.300000
2325.849586	393.300000
2327.413800	352.700000
2328.972752	370.900000
2330.534719	355.000000
2332.094734	307.300000
2333.654455	265.400000
2335.212226	281.600000
2336.769702	283.700000
2338.326884	257.000000
2339.882118	270.200000
2341.437059	283.200000
2342.991705	271.300000
2344.546058	286.200000
2346.100118	236.400000
2347.653883	280.800000
2349.205704	242.000000
2350.755583	304.700000
2352.308469	267.500000
2353.856112	310.700000
2355.406764	273.000000
2356.953824	275.100000
2358.502242	293.800000
2360.050369	335.200000
2361.594907	250.800000
2363.140803	288.900000
2364.684761	271.100000
2366.230076	309.500000
2367.771806	313.700000
2369.314893	306.300000
2370.856044	272.600000
2372.396906	277.700000
2373.937479	258.600000
2375.477763	311.600000
2377.017758	255.100000
2378.554175	328.300000
2380.093593	260.600000
2381.629433	317.200000
2383.166631	280.800000
2384.700253	306.200000
2386.236875	287.900000
2387.771567	293.600000
2389.304329	309.500000
2390.836804	295.700000
2392.367351	274.500000
2393.900896	299.900000
2395.429230	245.700000
2396.958921	315.400000
2398.488325	303.300000
2400.017445	295.000000
2401.546280	287.400000
2403.069909	299.700000
2404.598174	300.300000
2406.121237	307.900000
2407.648933	313.700000
2409.169790	297.300000
2410.695280	299.000000
2412.217209	318.600000
2413.740494	291.000000
2415.261857	320.800000
2416.781301	296.700000
2418.302100	325.700000
2419.820981	305.300000
2421.339579	313.700000
2422.856260	259.300000
2424.374295	303.700000
2425.892049	288.900000
2427.406252	346.100000
2428.920174	315.400000
2430.433816	282.800000
2431.948813	273.600000
2433.460261	243.000000
2434.973064	288.000000
2436.483953	298.100000
2437.994564	300.100000
2439.503263	306.800000
2441.014948	310.600000
2442.523090	306.100000
2444.030954	262.500000
2445.538540	288.200000
2447.042585	299.100000
2448.549615	306.300000
2450.054737	318.700000
2451.559582	335.800000
2453.062520	340.100000
2454.565182	319.500000
2456.067567	291.200000
2457.568047	319.900000
2459.069880	317.600000
2460.569808	289.700000
2462.069461	318.500000
2463.568839	299.800000
2465.066314	295.100000
2466.561887	291.300000
2468.060440	313.200000
2469.555465	296.600000
2471.051842	285.500000
2472.544693	251.300000
2474.038897	268.700000
2475.532827	282.300000
2477.023233	302.700000
2478.516617	288.100000
2480.008103	273.000000
2481.497692	282.300000
2482.987009	257.100000
2484.474430	266.200000
2485.964827	270.600000
2487.451706	273.900000
2488.939936	287.000000
2490.424649	293.300000
2491.909093	267.100000
2493.394887	247.400000
2494.878790	297.800000
2496.364043	317.300000
2497.844163	340.200000
2499.327256	298.700000
2500.808458	328.800000
2502.289391	299.200000
2503.768435	311.000000
2505.247210	270.000000
2506.725717	259.900000
2508.203956	314.700000
2509.681926	290.800000
2511.156391	270.700000
2512.633826	289.700000
2514.107757	281.500000
2515.583038	303.400000
2517.058052	306.700000
2518.529565	283.100000
2520.002429	322.100000
2521.473410	294.400000
2522.945741	323.000000
2524.412958	252.200000
2525.883142	292.900000
2527.351445	278.900000
2528.819483	329.100000
2530.287256	250.800000
2531.754764	278.200000
2533.222007	262.500000
2534.685758	332.300000
2536.150859	289.100000
2537.614083	333.700000
2539.078656	321.300000
2540.539741	307.800000
2542.002175	303.200000
2543.464346	347.300000
2544.923031	263.600000
2546.386287	334.600000
2547.844448	308.700000
2549.303957	319.500000
2550.758372	322.400000
2552.217358	303.400000
2553.674472	287.900000
2555.129715	306.400000
2556.584696	313.300000
2558.037809	313.200000
2559.492270	315.900000
2560.944861	306.600000
2562.397193	292.700000
2563.847658	334.200000
2565.301078	328.400000
2566.749416	326.800000
2568.200709	309.500000
2569.650137	289.300000
2571.096092	304.400000
2572.545002	343.800000
2573.990442	298.900000
2575.437229	278.900000
2576.882154	315.600000
2578.326820	318.900000
2579.772834	336.800000
2581.215382	309.000000
2582.659277	297.000000
2584.099707	335.600000
2585.541484	310.200000
2586.981402	307.100000
2588.422667	335.500000
2589.860470	306.200000
2591.301223	302.100000
2592.736914	332.400000
2594.175554	289.500000
2595.612336	332.800000
2597.047263	298.800000
2598.485137	285.800000
2599.917954	277.100000
2601.352118	312.200000
2602.784428	324.000000
2604.218084	330.600000
2605.649887	344.000000
2607.081436	324.400000
2608.512733	348.800000
2609.942177	377.900000
2611.371369	302.900000
2612.798711	306.500000
2614.227398	344.700000
2615.655834	309.900000
2617.080822	321.000000
2618.507157	335.600000
2619.931643	338.500000
2621.357475	333.700000
2622.779863	345.600000
2624.203597	320.000000
2625.625484	317.900000
2627.047122	330.200000
2628.466914	331.200000
2629.888052	386.200000
2631.308940	321.500000
2632.726390	353.900000
2634.146779	358.200000
2635.563731	372.600000
2636.980434	392.400000
2638.396889	374.700000
2639.813096	343.400000
2641.229055	353.600000
2642.643173	376.500000
2644.057043	359.600000
2645.469075	370.000000
2646.882450	432.900000
2648.292396	351.100000
2649.705278	397.800000
2651.114731	405.800000
2652.523938	420.000000
2653.931309	364.400000
2655.341614	394.400000
2656.750084	389.200000
2658.156718	455.100000
2659.563107	401.200000
2660.967662	404.000000
2662.373561	369.100000
2663.777627	382.400000
2665.181448	389.600000
2666.585025	418.400000
2667.986771	407.700000
2669.389860	422.600000
2670.789531	384.800000
2672.190546	402.700000
2673.588145	398.800000
2674.988674	438.300000
2676.385787	418.000000
2677.784244	428.900000
2679.180874	392.300000
2680.577261	418.900000
2681.973406	386.500000
2683.367725	396.000000
2684.763387	378.200000
2686.155640	368.100000
2687.549235	414.000000
2688.941006	402.800000
2690.334120	421.200000
2691.725410	387.500000
2693.114877	411.200000
2694.504104	403.500000
2695.893092	369.800000
2697.283421	397.400000
2698.668767	365.300000
2700.057036	387.900000
2701.443485	356.800000
2702.829695	373.900000
2704.215666	365.000000
2705.598239	337.200000
2706.982154	359.700000
2708.365831	341.600000
2709.749269	365.400000
2711.129313	363.400000
2712.510697	387.200000
2713.890267	360.600000
2715.271177	364.700000
2716.650273	337.700000
2718.027555	291.600000
2719.406178	356.500000
2720.782988	344.500000
2722.159561	402.800000
2723.535899	301.800000
2724.910426	332.000000
2726.286293	309.900000
2727.658773	369.900000
2729.034169	276.200000
2730.404605	348.800000
2731.776382	294.200000
2733.147924	323.700000
2734.517658	305.500000
2735.888733	329.900000
2737.257999	317.000000
2738.627032	349.900000
2739.994259	284.000000
2741.361252	327.800000
2742.728013	275.000000
2744.094542	338.300000
2745.459265	279.300000
2746.823756	268.400000
2748.188016	310.800000
2749.552043	318.900000
2750.915839	274.600000
2752.276261	233.700000
2753.639593	331.700000
2754.997983	277.200000
2756.359283	301.300000
2757.717213	275.200000
2759.078051	310.200000
2760.437090	307.000000
2761.792760	329.900000
2763.151338	286.200000
2764.506549	283.100000
2765.861531	295.600000
2767.214717	297.700000
2768.570809	320.900000
2769.923536	256.500000
2771.276036	283.900000
2772.628307	291.900000
2773.981916	283.000000
2775.332165	295.500000
2776.680619	262.500000
2778.031979	286.300000
2779.379979	329.900000
2780.729317	284.400000
2782.076863	288.600000
2783.424183	292.400000
2784.771276	316.700000
2786.116578	274.000000
2787.461653	292.800000
2788.806503	274.400000
2790.151127	291.800000
2791.492399	295.500000
2792.835009	330.500000
2794.177393	257.700000
2795.519552	305.000000
2796.858362	224.300000
2798.200072	332.700000
2799.538434	318.900000
2800.878132	296.300000
2802.216046	260.800000
2803.552175	278.800000
2804.888080	273.600000
2806.225323	252.100000
2807.560782	280.700000
2808.896018	286.500000
2810.229471	234.900000
2811.564261	281.400000
2812.895711	252.700000
2814.230056	264.600000
2815.559503	266.000000
2816.890287	293.300000
2818.220849	262.100000
2819.549632	299.100000
2820.879751	292.100000
2822.208092	298.800000
2823.536212	290.300000
2824.862554	301.200000
2826.190233	279.800000
2827.514578	278.500000
2828.840260	249.300000
2830.164166	272.300000
2831.487853	208.900000
2832.812875	231.000000
2834.134567	274.100000
2835.456041	305.600000
2836.777296	285.300000
2838.098332	277.800000
2839.417595	278.600000
2840.738194	295.400000
2842.057022	282.000000
2843.375631	263.800000
2844.692469	220.200000
2846.009090	270.500000
2847.325494	268.100000
2848.640128	287.400000
2849.956098	229.400000
2851.268747	305.800000
2852.582731	267.200000
2853.896499	287.000000
2855.210050	257.600000
2856.521835	259.300000
2857.831853	290.500000
2859.143206	255.800000
2860.451244	297.600000
2861.760616	290.000000
2863.069774	253.400000
2864.378716	285.200000
2865.685894	323.100000
2866.991310	309.200000
2868.298060	315.600000
2869.603047	277.200000
2870.907821	298.000000
2872.210833	277.300000
2873.516726	298.600000
2874.817765	252.200000
2876.120138	279.100000
2877.420751	315.700000
2878.722698	266.700000
2880.024431	296.800000
2881.322861	330.200000
2882.622624	288.700000
2883.920630	250.200000
2885.218424	278.800000
2886.514462	316.300000
2887.811833	248.500000
2889.107448	322.900000
2890.402852	340.200000
2891.698045	270.800000
2892.989941	291.100000
2894.284713	233.700000
2895.576188	324.700000
2896.868996	280.200000
2898.161594	295.800000
2899.450898	301.600000
2900.741534	249.000000
2902.030419	269.400000
2903.320636	311.700000
2904.607562	253.200000
2905.895820	284.600000
2907.182329	265.700000
2908.468629	318.000000
2909.754722	242.100000
2911.039066	340.500000
2912.326281	294.000000
2913.608670	296.300000
2914.892391	253.600000
2916.174366	302.800000
2917.456133	291.300000
2918.736156	287.600000
2920.019048	244.900000
2921.300195	304.700000
2922.578060	290.300000
2923.858794	284.200000
2925.136247	275.900000
2926.413494	266.800000
2927.688999	279.500000
2928.967372	311.100000
2930.240931	255.000000
2931.517357	289.800000
2932.792042	216.400000
2934.064986	243.500000
2935.339262	250.000000
2936.611798	271.500000
2937.884129	302.900000
2939.153188	284.100000
2940.425112	316.400000
2941.695298	250.100000
2942.965280	191.900000
2944.235059	221.700000
2945.503102	245.600000
2946.769408	283.100000
2948.035513	278.500000
2949.302947	244.300000
2950.568647	277.500000
2951.834144	265.600000
2953.099439	255.400000
2954.361469	296.200000
2955.624829	222.500000
2956.887988	264.300000
2958.149415	249.000000
2959.412171	290.400000
2960.673195	264.300000
2961.932489	316.400000
2963.191583	231.800000
2964.450476	291.000000
2965.709169	289.600000
2966.967662	240.200000
2968.224426	240.500000
2969.480990	300.500000
2970.735827	252.000000
2971.991992	252.400000
2973.244903	291.300000
2974.499143	261.900000
2975.753184	262.800000
2977.005499	273.200000
2978.257615	280.600000
2979.508007	322.200000
2980.761254	236.700000
2982.009724	261.600000
2983.261049	232.700000
2984.509124	314.200000
2985.757003	302.800000
2987.004684	281.800000
2988.252168	202.200000
2989.497931	240.500000
2990.743498	211.800000
2991.990392	218.800000
2993.234042	256.800000
2994.479020	264.700000
2995.720754	283.700000
2996.965340	234.000000
2998.208207	229.800000
2999.447833	272.600000
3000.690309	251.400000
3001.929545	268.400000
3003.170109	268.000000
3004.408957	293.200000
3005.647609	225.900000
3006.884546	255.300000
3008.122811	206.900000
3009.359360	308.300000
3010.595716	242.300000
3011.831878	261.400000
3013.066326	214.200000
3014.300582	274.400000
3015.534644	221.000000
3016.766994	262.800000
3017.997632	182.800000
3019.231116	266.700000
3020.462888	253.900000
3021.692950	292.200000
3022.922819	195.500000
3024.150980	227.300000
3025.380466	239.500000
3026.608243	245.000000
3027.835829	243.400000
3029.064742	257.700000
3030.288912	259.800000
3031.515925	248.900000
3032.739714	229.100000
3033.964830	292.400000
3035.188239	219.900000
3036.411458	280.900000
3037.632972	191.200000
3038.857327	260.200000
3040.076947	194.700000
3041.297893	257.000000
3042.518650	233.200000
3043.737703	265.500000
3044.958081	265.000000
3046.175243	247.000000
3047.393731	197.300000
3048.610516	269.900000
3049.827114	198.600000
3051.043523	240.500000
3052.256720	223.100000
3053.472754	248.200000
3054.685576	200.300000
3055.901235	253.100000
3057.112171	258.000000
3058.324432	231.800000
3059.536507	219.600000
3060.748394	249.100000
3061.958585	188.800000
3063.168589	223.900000
3064.378407	207.000000
3065.586529	223.600000
3066.794466	226.200000
3068.000707	259.100000
3069.208273	224.400000
3070.414144	219.400000
3071.619831	214.400000
3072.825332	248.900000
3074.029140	249.400000
3075.234272	193.600000
3076.437711	263.600000
3077.639459	228.100000
3078.841022	256.600000
3080.042402	216.900000
3081.243598	231.000000
3082.443104	223.100000
3083.642427	212.000000
3084.843073	288.600000
3086.042029	182.100000
3087.237791	236.200000
3088.436382	217.600000
3089.631779	210.000000
3090.828499	220.100000
3092.022027	237.100000
3093.218383	244.900000
3094.413053	208.200000
3095.604532	231.200000
3096.800342	228.200000
3097.991458	245.300000
3099.183898	243.800000
3100.373150	242.300000
3101.565227	214.700000
3102.755621	181.500000
3103.942829	266.000000
3105.131360	225.200000
3106.321212	259.000000
3107.507881	239.300000
3108.694369	258.000000
3109.880679	248.900000
3111.068310	197.100000
3112.252759	236.600000
3113.435529	224.300000
3114.621121	219.800000
3115.805034	255.200000
3116.987268	227.700000
3118.169323	261.800000
3119.351200	213.300000
3120.532899	232.800000
3121.712921	190.300000
3122.891266	227.000000
3124.072431	251.900000
3125.250421	227.100000
3126.428235	198.500000
3127.605871	233.700000
3128.781832	240.700000
3129.957616	223.000000
3131.134722	181.700000
3132.310153	272.000000
3133.483911	296.700000
3134.655996	242.500000
3135.829403	206.500000
3137.002633	205.700000
3138.174192	216.000000
3139.347071	226.700000
3140.516783	263.700000
3141.687816	250.100000
3142.857179	220.000000
3144.024871	262.500000
3145.195379	208.100000
3146.361229	242.200000
3147.531387	176.700000
3148.696889	258.400000
3149.862216	260.500000
3151.027370	217.700000
3152.192351	258.100000
3153.358651	187.700000
3154.520299	192.200000
3155.683266	211.000000
3156.846061	232.400000
3158.008683	232.600000
3159.169640	181.700000
3160.330424	256.500000
3161.491036	205.300000
3162.649984	217.900000
3163.808761	239.900000
3164.967366	228.500000
3166.125798	197.000000
3167.284060	251.000000
3168.440659	188.900000
3169.595597	195.100000
3170.751854	220.000000
3171.906450	218.900000
3173.060876	207.000000
3174.213642	176.400000
3175.366237	210.100000
3176.518663	260.100000
3177.670919	182.300000
3178.823004	217.100000
3179.971944	208.700000
3181.123690	270.000000
3182.273778	199.700000
3183.422210	221.300000
3184.570472	154.700000
3185.718566	203.400000
3186.866491	206.700000
3188.012760	223.700000
3189.158861	225.000000
3190.303308	165.700000
3191.447587	174.300000
3192.591698	223.200000
3193.737126	169.200000
3194.879416	280.200000
3196.021539	201.600000
3197.163494	268.500000
3198.305282	234.500000
3199.446903	253.300000
3200.585389	253.800000
3201.725192	251.000000
3202.866313	225.500000
3204.004299	242.100000
3205.140636	224.000000
3206.276807	239.200000
3207.414295	215.800000
3208.550135	246.900000
3209.687292	196.900000
3210.819836	217.200000
3211.956662	199.400000
3213.088876	248.500000
3214.222407	244.600000
3215.355774	193.900000
3216.486013	201.000000
3217.619050	217.900000
3218.748961	237.100000
3219.880188	296.000000
3221.008291	175.400000
3222.139190	229.000000
3223.268445	237.700000
3224.396057	206.800000
3225.520546	238.700000
3226.649311	201.400000
3227.774954	145.600000
3228.900435	194.600000
3230.024274	204.200000
3231.150907	231.400000
3232.272943	172.500000
3233.396295	213.000000
3234.519485	212.300000
3235.642512	225.500000
3236.763901	181.500000
3237.885127	221.300000
3239.004716	198.200000
3240.124143	218.400000
3241.241932	231.500000
3242.362513	212.800000
3243.479981	173.800000
3244.597288	213.700000
3245.714435	176.100000
3246.829946	237.000000
3247.946771	241.100000
3249.060487	241.700000
3250.176992	194.100000
3251.291863	223.200000
3252.403625	193.800000
3253.515227	237.000000
3254.628145	202.400000
3255.740903	249.100000
3256.850555	203.100000
3257.961522	188.900000
3259.072330	214.900000
3260.181506	191.100000
3261.289052	236.300000
3262.397911	202.500000
3263.506613	201.900000
3264.612212	230.200000
3265.719125	179.400000
3266.824409	204.700000
3267.931007	169.400000
3269.034505	216.100000
3270.139318	197.300000
3271.243973	264.500000
3272.345529	211.200000
3273.446929	192.900000
3274.549643	206.500000
3275.652201	169.000000
3276.751662	213.500000
3277.853907	202.000000
3278.953056	229.800000
3280.050581	199.800000
3281.147950	201.300000
3282.248101	227.400000
3283.345160	221.800000
3284.442063	173.100000
3285.538811	188.000000
3286.631001	232.700000
3287.727439	206.000000
3288.822255	223.400000
3289.916917	165.100000
3291.009957	220.700000
3292.102842	207.600000
3293.194108	162.800000
3294.286685	178.800000
3295.377643	186.600000
3296.466981	186.700000
3297.556166	223.900000
3298.646664	197.400000
3299.734077	206.700000
3300.821337	212.600000
3301.909910	163.200000
3302.998331	202.000000
3304.082204	213.200000
3305.170319	210.900000
3306.255352	203.500000
3307.338770	189.200000
3308.423500	199.300000
3309.506614	194.600000
3310.591041	168.400000
3311.672389	153.100000
3312.755049	202.300000
3313.836095	163.800000
3314.916990	207.200000
3315.996271	167.000000
3317.075402	197.400000
3318.155845	177.300000
3319.233213	186.900000
3320.311893	230.900000
3321.388961	225.600000
3322.465880	195.400000
3323.541187	231.500000
3324.616345	170.300000
3325.692814	210.300000
3326.766213	170.100000
3327.839463	210.500000
3328.914023	194.700000
3329.986975	166.400000
3331.058318	186.800000
3332.130972	234.500000
3333.200560	187.300000
3334.271458	228.700000
3335.340749	187.400000
3336.411351	209.400000
3337.480346	146.800000
3338.547735	185.000000
3339.613519	186.500000
3340.683529	198.100000
3341.750476	201.500000
3342.814361	182.400000
3343.881014	157.700000
3344.946062	188.600000
3346.009507	178.500000
3347.072806	202.100000
3348.135958	151.700000
3349.198964	197.600000
3350.261824	187.000000
3351.323082	219.100000
3352.381283	173.200000
3353.443704	188.600000
3354.503070	176.700000
3355.562290	169.500000
3356.622820	209.700000
3357.678840	197.400000
3358.737624	167.500000
3359.791901	190.800000
3360.848942	219.100000
3361.904384	207.700000
3362.961136	198.300000
3364.016289	158.400000
3365.069845	187.900000
3366.121805	207.200000
3367.176526	182.200000
3368.228198	211.600000
3369.279727	161.100000
3370.332564	221.300000
3371.382354	165.700000
3372.433453	222.400000
3373.481506	183.900000
3374.532318	187.300000
3375.580086	171.800000
3376.627711	232.700000
3377.675193	177.000000
3378.721083	176.400000
3379.768281	188.300000
3380.812437	218.800000
3381.859351	167.200000
3382.904673	207.800000
3383.946954	138.100000
3384.989095	191.900000
3386.032543	137.900000
3387.075850	195.200000
3388.117568	179.800000
3389.159144	213.200000
3390.200579	180.000000
3391.240426	196.200000
3392.278684	178.300000
3393.318250	160.600000
3394.357676	207.900000
3395.395514	188.400000
3396.431765	186.600000
3397.467877	202.500000
3398.505296	186.600000
3399.539682	188.900000
3400.575375	179.500000
3401.610929	216.700000
3402.643452	225.600000
3403.678728	192.300000
3404.710973	195.800000
3405.743080	173.000000
3406.773603	181.700000
3407.805433	202.200000
3408.837125	220.700000
3409.865789	197.400000
3410.894316	152.900000
3411.924149	163.000000
3412.953845	166.000000
3413.980515	191.300000
3415.008492	184.100000
3416.033444	169.300000
3417.061146	192.500000
3418.085825	194.000000
3419.111810	200.000000
3420.136215	175.300000
3421.160484	181.400000
3422.183174	204.600000
3423.205728	165.000000
3424.229588	183.200000
3425.250428	172.300000
3426.271132	181.100000
3427.293143	202.300000
3428.312135	245.900000
3429.330991	193.800000
3430.351154	173.500000
3431.368300	166.700000
