-117.888313	236.800000
-115.218713	240.400000
-112.552048	251.400000
-109.886135	234.700000
-107.223154	237.100000
-104.558744	244.300000
-101.897264	230.600000
-99.234355	242.700000
-96.576552	245.600000
-93.917320	264.700000
-91.258836	249.000000
-88.603276	252.400000
-85.946288	225.300000
-83.294398	259.900000
-80.641078	275.700000
-77.990677	246.500000
-75.338847	238.500000
-72.692108	274.700000
-70.043940	258.000000
-67.396514	265.800000
-64.752002	254.900000
-62.106062	263.500000
-59.465203	257.300000
-56.822915	254.800000
-54.183536	250.500000
-51.542727	274.300000
-48.902659	269.000000
-46.267663	278.300000
-43.631239	255.600000
-40.997717	259.800000
-38.362767	271.400000
-35.732882	264.900000
-33.099405	270.000000
-30.470990	292.400000
-27.843309	299.500000
-25.214199	298.100000
-22.590146	292.000000
-19.962504	296.400000
-17.339915	311.700000
-14.718058	358.800000
-12.096931	422.400000
-9.476534	671.900000
-6.859026	1516.900000
-4.240089	3777.100000
-1.624037	9398.000000
0.991286	9624.500000
3.605882	4829.900000
6.217595	768.200000
8.830737	388.300000
11.438845	337.200000
14.050535	330.000000
16.657194	342.600000
19.265281	330.000000
21.872644	315.500000
24.474982	337.300000
27.080898	361.400000
29.681792	341.700000
32.284114	356.900000
34.881419	330.100000
37.482299	349.100000
40.078164	364.900000
42.675458	361.000000
45.272032	353.100000
47.863597	407.200000
50.456590	368.000000
53.046722	379.300000
55.638282	376.600000
58.226982	403.000000
60.817109	414.500000
63.402237	415.000000
65.988793	412.300000
68.574635	419.500000
71.157623	408.900000
73.742037	412.300000
76.319323	440.300000
78.900175	469.100000
81.478178	455.600000
84.055471	490.400000
86.634190	492.300000
89.207927	510.600000
91.783092	517.600000
94.355413	514.400000
96.927026	542.300000
99.495799	586.100000
102.065999	629.300000
104.633361	680.500000
107.202148	732.900000
109.768099	786.800000
112.331215	972.100000
114.897887	1146.600000
117.455338	1413.100000
120.018474	1849.000000
122.576650	2531.800000
125.138381	3607.600000
127.695155	5140.200000
130.253356	6553.200000
132.806603	6632.400000
135.359153	6691.400000
137.915253	6786.700000
140.466405	6946.700000
143.016860	6972.600000
145.566617	7050.400000
148.113555	7125.600000
150.659798	7137.000000
153.207466	7153.000000
155.754438	7162.800000
158.296475	7137.800000
160.837818	7114.200000
163.378468	7164.700000
165.920544	7123.400000
168.459808	7120.900000
170.996264	7131.300000
173.532028	7132.600000
176.069218	7092.400000
178.605717	7125.900000
181.139410	7106.500000
183.670299	7118.600000
186.200501	7133.800000
188.732127	7110.300000
191.260952	7121.000000
193.786978	7126.600000
196.312318	7133.900000
198.839083	7110.900000
201.363052	7095.500000
203.886336	7135.200000
206.408935	7121.400000
208.928741	7101.700000
211.447864	7107.000000
213.966304	7083.700000
216.486168	7105.000000
218.999031	7138.400000
221.515425	7101.400000
224.031137	7093.200000
226.541959	7101.000000
229.054206	7121.300000
231.563671	7101.700000
234.072457	7144.500000
236.580564	7143.900000
239.090096	7108.500000
241.594747	7144.500000
244.098722	7105.500000
246.604121	7179.400000
249.104645	7139.100000
251.608693	7160.600000
254.105769	7149.600000
256.606369	7150.500000
259.104197	7141.600000
261.601352	7159.300000
264.097834	7144.300000
266.589453	7189.200000
269.084592	7159.000000
271.576964	7182.700000
274.068666	7158.900000
276.557605	7161.100000
279.047968	7138.100000
281.535568	7168.400000
284.020409	7181.600000
286.508765	7183.700000
288.990181	7190.800000
291.475111	7199.200000
293.955196	7159.100000
296.438793	7201.200000
298.917547	7159.700000
301.397725	7177.300000
303.875150	7209.500000
306.351912	7212.700000
308.828011	7219.900000
311.301361	7251.800000
313.774049	7274.900000
316.246076	7329.100000
318.717442	7426.500000
321.186063	7507.200000
323.654026	7471.000000
326.123410	7403.400000
328.587972	7322.600000
331.056038	7308.900000
333.519284	7269.700000
335.981872	7248.100000
338.443804	7248.000000
340.905079	7244.600000
343.363620	7249.100000
345.823583	7242.800000
348.280813	7243.900000
350.737389	7237.400000
353.193311	7251.600000
355.646503	7209.200000
358.101118	7251.400000
360.550931	7283.000000
363.004240	7245.100000
365.452751	7262.100000
367.900610	7249.900000
370.349892	7259.000000
372.794380	7265.800000
375.240290	7249.700000
377.685550	7246.200000
380.128092	7245.700000
382.569986	7234.100000
385.011233	7252.100000
387.449764	7289.400000
389.889717	7254.500000
392.326956	7240.600000
394.761483	7220.700000
397.199498	7257.100000
399.632736	7249.200000
402.067395	7225.800000
404.497282	7277.300000
406.930654	7260.500000
409.359256	7243.500000
411.787216	7241.700000
414.216598	7244.800000
416.641214	7238.200000
419.067252	7242.700000
421.492649	7257.400000
423.917406	7272.900000
426.337405	7237.000000
428.758825	7256.400000
431.177548	7286.900000
433.597692	7269.700000
436.015141	7266.700000
438.434010	7296.900000
440.850186	7276.200000
443.261614	7295.200000
445.676520	7240.800000
448.088735	7274.900000
450.500316	7239.700000
452.911263	7255.000000
455.319524	7259.000000
457.727152	7250.600000
460.134148	7223.000000
462.540513	7228.500000
464.944195	7224.900000
467.347247	7222.500000
469.749669	7221.600000
472.151461	7176.200000
474.550576	7203.100000
476.951110	7215.300000
479.351015	7221.400000
481.746197	7221.200000
484.144846	7206.700000
486.538775	7211.100000
488.932078	7204.400000
491.324755	7220.600000
493.716807	7182.800000
496.110277	7141.100000
498.499035	7108.800000
500.885127	7114.100000
503.272639	7059.200000
505.659528	7055.200000
508.043753	7043.600000
510.429396	7013.500000
512.812378	6983.500000
515.192699	6970.300000
517.574439	6975.800000
519.953520	6948.300000
522.334020	6935.400000
524.711862	6938.300000
527.087049	6924.900000
529.461618	6914.500000
531.837605	6895.900000
534.210940	6898.300000
536.585692	6874.300000
538.955759	6933.900000
541.325210	6907.100000
543.696079	6914.900000
546.062268	6900.800000
548.429875	6881.500000
550.794836	6858.500000
553.159184	6888.700000
555.522919	6890.800000
557.888072	6883.800000
560.248553	6874.600000
562.610452	6887.900000
564.969710	6867.000000
567.326331	6875.300000
569.686396	6843.000000
572.039770	6852.800000
574.396589	6857.000000
576.750773	6858.500000
579.104349	6844.700000
581.457316	6850.700000
583.807651	6852.300000
586.159404	6850.800000
588.504480	6845.900000
590.855020	6850.000000
593.198886	6853.900000
595.548214	6833.200000
597.892893	6842.800000
600.234948	6844.000000
602.578420	6848.900000
604.919269	6841.900000
607.259516	6859.000000
609.597142	6834.700000
611.938203	6859.000000
614.274626	6805.900000
616.612466	6828.100000
618.947689	6816.300000
621.280296	6807.000000
623.614319	6834.600000
625.945728	6805.400000
628.276539	6811.100000
630.606753	6832.200000
632.936368	6819.900000
635.261360	6816.700000
637.591794	6835.500000
639.917607	6795.500000
642.240812	6806.700000
644.565434	6826.000000
646.887450	6800.300000
649.208872	6790.700000
651.527692	6778.900000
653.847927	6784.400000
656.167569	6806.100000
658.484610	6789.300000
660.801059	6788.800000
663.114910	6770.400000
665.430177	6776.100000
667.742847	6782.500000
670.056932	6786.300000
672.366417	6792.400000
674.677318	6808.900000
676.985626	6769.000000
679.293346	6760.900000
681.602480	6772.100000
683.907022	6767.100000
686.210978	6766.900000
688.514348	6772.700000
690.819132	6776.100000
693.119330	6749.600000
695.420942	6736.400000
697.721970	6765.000000
700.018415	6757.900000
702.316276	6760.900000
704.613553	6754.600000
706.910247	6765.400000
709.202365	6757.900000
711.497894	6752.200000
713.788849	6772.000000
716.081219	6759.800000
718.371014	6745.200000
720.660228	6749.700000
722.948863	6754.200000
725.234925	6762.400000
727.522402	6745.000000
729.807307	6736.900000
732.091635	6757.100000
734.373394	6761.500000
736.656567	6759.300000
738.939163	6773.400000
741.217203	6784.500000
743.496658	6772.500000
745.775536	6764.600000
748.053840	6789.500000
750.327594	6776.000000
752.602761	6792.300000
754.877355	6768.300000
757.149390	6783.300000
759.422838	6770.700000
761.693728	6765.000000
763.962062	6789.300000
766.231809	6777.300000
768.499002	6781.500000
770.765624	6774.500000
773.031676	6788.500000
775.295177	6783.400000
777.560091	6802.000000
779.824435	6791.300000
782.084250	6790.600000
784.345477	6800.900000
786.606137	6778.300000
788.864251	6781.500000
791.119820	6785.500000
793.378780	6796.800000
795.631241	6802.300000
797.889068	6784.400000
800.142377	6748.600000
802.393146	6754.300000
804.645327	6782.300000
806.894969	6764.900000
809.146024	6757.900000
811.392567	6783.900000
813.640522	6741.900000
815.885943	6741.800000
818.132775	6727.000000
820.379046	6716.600000
822.620812	6739.900000
824.865962	6744.100000
827.104639	6752.800000
829.346698	6738.200000
831.584259	6737.900000
833.823232	6737.900000
836.059678	6740.500000
838.297535	6739.500000
840.532867	6733.100000
842.765676	6728.900000
844.999896	6739.900000
847.231593	6703.900000
849.462736	6716.100000
851.693324	6692.800000
853.923358	6706.200000
856.152838	6715.700000
858.377836	6685.100000
860.606209	6704.200000
862.830102	6687.300000
865.055407	6716.500000
867.276236	6689.200000
869.500437	6686.700000
871.720165	6708.600000
873.941303	6709.300000
876.161891	6710.700000
878.379970	6714.700000
880.599458	6710.500000
882.814480	6700.700000
885.028955	6704.000000
887.242881	6707.200000
889.456261	6715.500000
891.669093	6699.800000
893.881379	6709.300000
896.091162	6688.000000
898.300400	6705.700000
900.509093	6715.900000
902.715287	6696.000000
904.922890	6694.800000
907.127995	6689.800000
909.332557	6706.200000
911.534624	6696.100000
913.738100	6683.600000
915.939082	6722.100000
918.139522	6690.800000
920.341371	6674.200000
922.536829	6664.900000
924.735646	6656.900000
926.930024	6695.100000
929.127760	6651.300000
931.321060	6676.200000
933.515769	6658.400000
935.707992	6694.500000
937.899676	6667.900000
940.090823	6674.400000
942.279487	6650.800000
944.467615	6709.900000
946.653262	6656.800000
948.842261	6690.600000
951.026837	6663.300000
953.210878	6676.900000
955.398269	6665.800000
957.577356	6673.000000
959.759794	6648.600000
961.941698	6671.000000
964.121127	6675.400000
966.298084	6715.100000
968.476449	6661.500000
970.656221	6673.600000
972.829644	6656.400000
975.006413	6709.500000
977.178775	6645.900000
979.352545	6638.300000
981.521911	6690.800000
983.694621	6658.400000
985.864866	6666.200000
988.034582	6615.600000
990.203769	6634.000000
992.368559	6658.400000
994.536690	6686.700000
996.700427	6629.200000
998.865570	6602.900000
1001.028254	6656.500000
1003.190413	6603.100000
1005.350115	6615.900000
1007.509292	6610.600000
1009.669876	6642.600000
1011.828006	6601.700000
1013.985611	6636.900000
1016.142693	6562.200000
1018.299251	6531.200000
1020.451430	6586.800000
1022.605016	6589.200000
1024.758080	6596.200000
1026.908695	6538.500000
1029.060717	6556.200000
1031.208365	6527.700000
1033.359345	6523.400000
1035.505954	6551.200000
1037.652044	6566.700000
1039.797616	6521.800000
1041.944593	6570.400000
1044.085281	6493.200000
1046.229299	6484.000000
1048.370876	6525.000000
1050.511937	6530.600000
1052.654402	6480.800000
1054.790588	6475.200000
1056.930099	6541.500000
1059.065256	6524.500000
1061.203737	6524.700000
1063.337864	6479.900000
1065.471478	6529.700000
1067.606497	6564.600000
1069.737166	6492.400000
1071.869240	6567.900000
1073.998885	6555.300000
1076.128018	6575.100000
1078.256639	6491.300000
1080.384749	6555.600000
1082.510433	6563.800000
1084.635607	6572.500000
1086.762185	6536.400000
1088.884425	6527.900000
1091.008070	6596.100000
1093.127380	6619.300000
1095.251920	6582.800000
1097.370214	6592.900000
1099.489913	6559.000000
1101.607193	6578.900000
1103.723967	6557.900000
1105.840234	6566.800000
1107.954085	6626.100000
1110.069341	6616.100000
1112.180273	6575.400000
1114.294518	6633.800000
1116.404442	6666.700000
1118.515770	6650.700000
1120.626593	6655.900000
1122.733100	6637.800000
1124.842917	6672.000000
1126.948419	6604.600000
1129.055324	6663.100000
1131.156014	6627.100000
1133.261916	6678.600000
1135.363509	6664.600000
1137.466505	6645.000000
1139.569000	6636.800000
1141.665288	6673.900000
1143.766784	6670.700000
1145.863976	6666.500000
1147.960671	6708.200000
1150.056867	6680.200000
1152.152566	6699.900000
1154.247766	6699.200000
1156.340570	6681.100000
1158.434777	6727.400000
1160.522792	6695.400000
1162.616005	6698.600000
1164.703030	6729.400000
1166.793354	6715.700000
1168.879391	6764.000000
1170.968725	6709.300000
1173.051878	6751.800000
1175.136433	6740.900000
1177.222390	6720.600000
1179.304065	6736.200000
1181.387142	6732.200000
1183.467833	6751.700000
1185.548032	6759.700000
1187.627740	6749.300000
1189.706957	6740.000000
1191.783792	6773.700000
1193.858246	6748.200000
1195.935991	6747.500000
1198.009467	6747.900000
1200.084343	6742.000000
1202.154952	6751.600000
1204.226962	6783.300000
1206.296597	6755.700000
1208.367632	6757.300000
1210.438179	6780.100000
1212.504465	6751.300000
1214.572152	6728.100000
1216.637467	6775.700000
1218.704182	6776.000000
1220.766641	6762.500000
1222.832385	6779.000000
1224.893875	6767.000000
1226.956766	6769.000000
1229.017289	6759.500000
1231.077328	6752.800000
1233.136885	6764.300000
1235.194076	6772.400000
1237.250786	6799.600000
1239.305132	6747.200000
1241.362760	6784.300000
1243.418025	6770.900000
1245.469049	6758.000000
1247.521473	6776.400000
1249.573417	6771.600000
1251.623003	6785.600000
1253.672110	6759.500000
1255.720739	6806.500000
1257.768889	6767.200000
1259.816560	6804.700000
1261.860001	6796.000000
1263.906718	6807.400000
1265.951081	6794.200000
1267.994968	6755.200000
1270.036503	6796.600000
1272.075689	6745.000000
1274.118148	6803.300000
1276.156384	6781.500000
1278.196019	6798.300000
1280.235179	6790.000000
1282.270120	6832.400000
1284.306460	6826.200000
1286.340456	6806.500000
1288.375849	6786.000000
1290.407030	6834.800000
1292.439608	6849.000000
1294.471715	6869.700000
1296.501481	6844.500000
1298.532645	6892.300000
1300.559601	6866.600000
1302.587955	6906.600000
1304.612104	6924.100000
1306.639519	6947.300000
1308.662731	6973.900000
1310.687341	6986.500000
1312.709617	7027.700000
1314.733290	7077.000000
1316.754630	7033.500000
1318.775502	7114.100000
1320.795907	7109.800000
1322.812119	7175.500000
1324.829728	7158.200000
1326.845009	7190.500000
1328.863549	7249.400000
1330.877900	7220.300000
1332.889925	7243.300000
1334.905207	7211.600000
1336.916304	7239.400000
1338.928798	7225.700000
1340.937109	7217.600000
1342.948675	7220.300000
1344.954203	7201.600000
1346.962986	7161.700000
1348.967591	7126.500000
1350.975450	7134.300000
1352.982847	7080.400000
1354.984213	7062.200000
1356.986975	7053.900000
1358.989278	7021.500000
1360.991121	6982.500000
1362.992504	7011.600000
1364.991574	6959.500000
1366.990185	6931.200000
1368.988338	6956.000000
1370.986032	6926.300000
1372.979564	6914.000000
1374.974491	6888.500000
1376.968962	6877.300000
1378.962976	6875.000000
1380.954683	6876.400000
1382.945935	6839.000000
1384.934881	6851.300000
1386.925222	6821.700000
1388.915108	6827.000000
1390.902690	6841.500000
1392.889819	6809.300000
1394.874646	6787.900000
1396.860868	6823.000000
1398.844790	6830.500000
1400.828259	6808.500000
1402.811275	6796.100000
1404.791994	6817.200000
1406.774107	6814.900000
1408.753924	6784.300000
1410.733289	6784.500000
1412.708516	6780.100000
1414.686981	6808.600000
1416.663153	6768.900000
1418.638876	6801.100000
1420.614149	6814.700000
1422.587131	6756.200000
1424.559665	6769.800000
1426.531751	6790.500000
1428.503390	6791.000000
1430.470900	6821.900000
1432.443484	6750.300000
1434.408262	6779.800000
1436.378113	6776.700000
1438.343840	6797.700000
1440.310959	6751.800000
1442.275795	6748.400000
1444.236511	6763.900000
1446.202295	6783.300000
1448.162124	6776.200000
1450.123347	6790.800000
1452.085962	6814.300000
1454.044462	6798.300000
1456.002519	6750.100000
1457.960135	6761.500000
1459.917308	6777.900000
1461.872206	6793.800000
1463.828497	6766.600000
1465.782513	6764.500000
1467.736088	6774.400000
1469.687391	6772.400000
1471.640087	6755.500000
1473.590510	6767.100000
1475.540495	6761.100000
1477.490041	6785.600000
1479.437318	6789.700000
1481.382327	6770.600000
1483.328729	6769.100000
1485.274693	6799.300000
1487.220220	6781.300000
1489.163481	6790.300000
1491.106307	6769.700000
1493.046869	6775.700000
1494.988822	6769.500000
1496.928513	6762.300000
1498.867770	6764.800000
1500.806591	6773.000000
1502.743153	6766.300000
1504.681106	6781.300000
1506.616800	6764.600000
1508.552061	6798.200000
1510.485066	6746.700000
1512.417638	6778.400000
1514.349778	6807.700000
1516.281486	6770.700000
1518.210940	6776.800000
1520.141785	6824.500000
1522.072198	6754.100000
1523.998539	6776.100000
1525.926271	6798.800000
1527.851752	6821.400000
1529.776804	6841.400000
1531.701427	6812.400000
1533.625621	6836.700000
1535.547567	6833.600000
1537.470904	6805.700000
1539.391994	6871.000000
1541.310840	6897.800000
1543.231076	6917.100000
1545.149069	6862.500000
1547.066635	6954.300000
1548.981959	6928.900000
1550.898673	6981.500000
1552.811332	7004.300000
1554.727195	6984.800000
1556.640818	7027.800000
1558.552203	7052.400000
1560.464978	7062.100000
1562.373703	7074.200000
1564.283817	7028.900000
1566.193508	7074.900000
1568.102776	7104.800000
1570.009810	7078.500000
1571.914611	7079.600000
1573.820801	7054.400000
1575.724759	7021.800000
1577.628296	7009.400000
1579.531413	7001.600000
1581.432300	6992.500000
1583.334576	6975.900000
1585.234624	6952.200000
1587.136059	6971.800000
1589.033461	6987.500000
1590.930444	6904.100000
1592.827009	6916.000000
1594.724962	6905.700000
1596.617080	6901.300000
1598.512391	6893.200000
1600.407285	6864.500000
1602.299957	6814.200000
1604.192212	6888.200000
1606.082248	6837.800000
1607.971868	6792.200000
1609.861073	6767.700000
1611.749863	6762.000000
1613.636435	6743.600000
1615.524395	6747.800000
1617.408338	6718.200000
1619.293668	6677.600000
1621.178585	6682.100000
1623.061288	6643.100000
1624.945378	6677.600000
1626.825456	6685.800000
1628.706922	6644.400000
1630.586177	6645.600000
1632.466818	6598.200000
1634.341655	6644.200000
1636.221473	6621.100000
1638.097287	6633.600000
1639.972690	6587.700000
1641.849479	6592.400000
1643.720472	6562.400000
1645.594646	6603.200000
1647.464821	6564.200000
1649.338178	6574.200000
1651.209331	6576.800000
1653.078282	6544.400000
1654.948618	6558.900000
1656.814962	6545.100000
1658.682691	6523.100000
1660.548221	6522.400000
1662.415137	6505.000000
1664.278064	6555.900000
1666.142376	6515.500000
1668.004492	6514.100000
1669.866203	6489.800000
1671.729300	6506.400000
1673.590201	6517.900000
1675.448910	6493.600000
1677.307215	6495.400000
1679.166905	6445.600000
1681.020827	6443.000000
1682.877923	6438.300000
1684.734616	6480.100000
1686.587332	6452.700000
1688.443220	6475.100000
1690.295134	6464.400000
1692.146647	6407.900000
1693.997759	6434.000000
1695.848471	6429.800000
1697.698782	6460.500000
1699.546908	6427.000000
1701.396419	6465.700000
1703.240181	6430.400000
1705.088892	6401.800000
1706.931857	6409.000000
1708.777989	6398.900000
1710.620158	6429.400000
1712.465493	6468.100000
1714.305087	6391.900000
1716.146065	6381.600000
1717.988426	6405.100000
1719.826831	6406.300000
1721.666619	6380.100000
1723.504232	6414.700000
1725.341449	6444.600000
1727.176493	6432.700000
1729.012920	6418.900000
1730.847175	6332.500000
1732.681035	6374.300000
1734.514501	6367.700000
1736.344022	6348.100000
1738.176701	6355.400000
1740.005436	6369.100000
1741.837328	6362.500000
1743.665278	6341.200000
1745.492837	6388.400000
1747.320003	6381.200000
1749.146778	6365.500000
1750.973161	6363.100000
1752.795608	6422.900000
1754.621210	6358.900000
1756.442877	6353.600000
1758.265926	6344.700000
1760.086813	6417.400000
1761.907312	6401.600000
1763.729191	6390.200000
1765.545372	6362.600000
1767.364704	6394.400000
1769.180109	6381.300000
1770.998664	6364.300000
1772.813294	6383.900000
1774.627537	6390.600000
1776.441394	6377.500000
1778.254864	6356.700000
1780.066181	6463.900000
1781.878878	6376.000000
1783.691190	6425.100000
1785.499584	6374.100000
1787.309358	6428.000000
1789.115218	6497.700000
1790.924223	6426.600000
1792.729315	6394.700000
1794.535788	6435.900000
1796.341877	6456.900000
1798.144055	6417.900000
1799.949378	6451.900000
1801.750792	6483.900000
1803.553586	6465.300000
1805.352474	6482.300000
1807.152743	6471.200000
1808.952630	6495.200000
1810.750375	6479.300000
1812.547740	6466.400000
1814.344725	6464.100000
1816.141329	6500.900000
1817.935794	6487.600000
1819.731638	6499.200000
1821.521827	6522.100000
1823.316913	6496.300000
1825.106347	6498.200000
1826.898917	6519.300000
1828.689352	6478.400000
1830.477653	6501.800000
1832.269089	6595.100000
1834.054879	6475.500000
1835.842049	6530.100000
1837.627087	6510.900000
1839.415259	6506.000000
1841.199545	6553.900000
1842.981701	6528.400000
1844.765237	6529.500000
1846.546644	6587.100000
1848.329430	6529.600000
1850.108335	6583.600000
1851.888620	6518.100000
1853.666778	6562.900000
1855.446315	6549.700000
1857.223727	6579.200000
1858.999015	6563.400000
1860.775681	6582.000000
1862.550225	6552.400000
1864.326147	6587.800000
1866.096448	6584.300000
1867.869877	6557.700000
1869.641186	6630.100000
1871.412124	6590.000000
1873.184440	6571.800000
1874.951142	6605.100000
1876.720970	6582.900000
1878.486934	6596.100000
1880.256021	6570.900000
1882.021247	6581.700000
1883.786105	6539.600000
1885.552340	6598.200000
1887.314716	6586.700000
1889.076725	6667.100000
1890.838366	6572.100000
1892.599641	6619.700000
1894.360548	6644.400000
1896.121089	6635.500000
1897.879520	6636.600000
1899.637585	6631.500000
1901.393543	6602.700000
1903.150877	6637.400000
1904.907846	6639.000000
1906.662708	6598.500000
1908.415466	6603.800000
1910.167859	6650.900000
1911.921629	6612.200000
1913.673295	6648.400000
1915.422859	6623.000000
1917.173798	6623.900000
1918.924375	6641.100000
1920.671112	6610.000000
1922.419226	6635.200000
1924.165240	6637.900000
1925.912629	6623.300000
1927.657921	6631.700000
1929.401115	6664.000000
1931.145684	6671.400000
1932.888158	6618.800000
1934.630271	6649.800000
1936.372024	6632.200000
1938.113417	6660.100000
1939.852717	6651.100000
1941.591658	6613.200000
1943.330240	6628.400000
1945.066731	6665.000000
1946.802864	6689.350000
1948.540371	6713.700000
1950.274056	6678.600000
1952.009116	6646.800000
1953.742087	6641.200000
1955.474702	6648.700000
1957.206961	6631.600000
1958.938863	6683.600000
1960.668679	6659.200000
1962.396410	6676.600000
1964.125516	6668.600000
1965.854267	6671.900000
1967.580934	6649.200000
1969.307247	6669.700000
1971.034933	6679.200000
1972.757083	6685.600000
1974.482334	6691.500000
1976.203778	6649.300000
1977.928323	6661.200000
1979.650787	6695.200000
1981.369449	6684.400000
1983.091209	6650.700000
1984.809167	6679.200000
1986.528498	6669.300000
1988.244030	6639.300000
1989.964382	6699.500000
1991.680936	6721.800000
1993.393693	6658.700000
1995.109546	6669.900000
1996.823327	6693.800000
1998.536758	6663.600000
2000.248118	6682.600000
2001.960850	6708.700000
2003.669792	6682.700000
2005.381826	6671.500000
2007.088352	6711.900000
2008.797969	6687.200000
2010.505520	6704.200000
2012.212722	6701.700000
2013.917859	6688.500000
2015.622650	6669.100000
2017.328812	6687.500000
2019.031192	6712.200000
2020.734943	6669.300000
2022.436632	6684.500000
2024.137976	6721.300000
2025.838974	6721.300000
2027.537911	6702.100000
2029.238220	6682.800000
2030.934754	6672.000000
2032.632659	6703.700000
2034.328505	6685.200000
2036.027437	6689.800000
2037.720883	6728.300000
2039.415700	6696.200000
2041.110175	6690.900000
2042.800881	6666.400000
2044.494671	6709.600000
2046.184694	6699.600000
2047.876088	6698.300000
2049.565429	6702.500000
2051.256140	6679.900000
2052.943088	6720.200000
2054.629697	6708.000000
2056.317675	6706.000000
2058.001894	6709.600000
2059.687484	6698.100000
2061.372734	6698.500000
2063.055935	6684.300000
2064.740507	6694.800000
2066.419616	6718.200000
2068.103510	6704.700000
2069.781943	6690.100000
2071.463454	6699.800000
2073.141213	6692.500000
2074.818636	6714.600000
2076.497428	6705.300000
2078.174178	6732.300000
2079.848886	6718.600000
2081.524963	6752.400000
2083.199000	6704.400000
2084.872701	6694.500000
2086.546067	6703.000000
2088.217394	6723.900000
2089.888387	6735.200000
2091.559046	6696.900000
2093.229371	6701.000000
2094.899362	6726.400000
2096.567317	6685.400000
2098.234939	6727.500000
2099.900526	6689.000000
2101.567482	6759.500000
2103.232405	6742.400000
2104.896996	6690.800000
2106.559555	6687.400000
2108.223482	6727.000000
2109.885378	6719.900000
2111.546944	6691.900000
2113.208178	6706.000000
2114.867384	6725.400000
2116.526259	6702.100000
2118.184805	6707.300000
2119.843020	6710.600000
2121.497513	6726.700000
2123.155070	6722.300000
2124.812298	6742.300000
2126.465804	6699.200000
2128.120678	6756.100000
2129.771833	6704.600000
2131.426051	6683.600000
2133.076552	6721.400000
2134.728419	6695.100000
2136.374878	6705.500000
2138.026092	6726.700000
2139.673592	6704.600000
2141.322459	6699.000000
2142.969307	6690.200000
2144.615830	6708.000000
2146.262027	6727.600000
2147.904516	6717.100000
2149.550063	6712.700000
2151.191903	6725.300000
2152.836800	6708.500000
2154.477991	6728.300000
2156.118860	6677.900000
2157.759404	6703.400000
2159.397936	6695.900000
2161.037834	6719.500000
2162.674032	6709.000000
2164.311596	6720.200000
2165.948838	6707.000000
2167.584070	6704.400000
2169.218981	6737.400000
2170.853569	6688.700000
2172.487837	6669.800000
2174.118411	6712.300000
2175.752037	6675.600000
2177.381971	6699.700000
2179.013270	6693.400000
2180.642564	6697.800000
2182.271539	6701.100000
2183.900194	6680.100000
2185.528530	6696.000000
2187.154864	6696.900000
2188.780879	6717.700000
2190.404892	6703.200000
2192.030271	6686.300000
2193.653649	6706.300000
2195.278392	6698.700000
2196.899454	6673.800000
2198.520199	6674.100000
2200.142309	6676.100000
2201.762421	6658.800000
2203.380536	6737.000000
2204.998336	6693.300000
2206.615821	6657.700000
2208.232990	6701.300000
2209.849844	6712.500000
2211.466382	6651.600000
2213.080928	6680.500000
2214.693481	6718.800000
2216.307398	6667.800000
2217.919324	6680.100000
2219.532613	6682.300000
2221.143912	6674.700000
2222.753221	6687.000000
2224.363894	6704.900000
2225.972578	6657.200000
2227.580949	6706.700000
2229.187334	6651.400000
2230.795082	6655.600000
2232.400843	6654.500000
2234.006293	6630.100000
2235.609758	6632.800000
2237.214586	6665.300000
2238.817430	6673.100000
2240.418291	6665.300000
2242.020515	6642.300000
2243.620757	6668.600000
2245.222361	6659.800000
2246.820312	6668.400000
2248.419626	6666.800000
2250.016960	6705.400000
2251.613986	6673.800000
2253.212374	6645.300000
2254.807113	6640.500000
2256.399875	6704.400000
2257.994000	6646.700000
2259.589486	6618.500000
2261.181327	6655.500000
2262.772862	6644.800000
2264.365759	6652.500000
2265.953346	6636.900000
2267.545629	6667.200000
2269.132606	6617.600000
2270.722610	6639.200000
2272.307310	6613.900000
2273.896704	6661.400000
2275.480796	6620.200000
2277.066248	6652.600000
2278.649732	6581.800000
2280.236241	6605.300000
2281.819117	6605.600000
2283.401690	6628.800000
2284.983959	6608.900000
2286.562598	6607.800000
2288.144262	6628.200000
2289.722297	6608.100000
2291.303355	6609.900000
2292.880786	6609.100000
2294.456254	6608.300000
2296.034744	6589.700000
2297.609610	6566.800000
2299.184175	6597.200000
2300.758440	6620.700000
2302.332404	6622.200000
2303.906067	6604.200000
2305.479431	6604.100000
2307.049176	6591.800000
2308.618622	6622.400000
2310.191086	6608.700000
2311.758276	6581.300000
2313.328484	6596.900000
2314.895077	6592.900000
2316.463030	6591.300000
2318.029027	6571.000000
2319.594727	6562.900000
2321.160129	6589.000000
2322.723578	6600.300000
2324.288386	6633.000000
2325.849586	6623.000000
2327.413800	6623.200000
2328.972752	6638.100000
2330.534719	6542.400000
2332.094734	6526.500000
2333.654455	6592.300000
2335.212226	6541.500000
2336.769702	6586.200000
2338.326884	6556.900000
2339.882118	6552.000000
2341.437059	6562.500000
2342.991705	6487.400000
2344.546058	6508.700000
2346.100118	6526.900000
2347.653883	6519.800000
2349.205704	6553.000000
2350.755583	6561.100000
2352.308469	6539.100000
2353.856112	6566.500000
2355.406764	6487.500000
2356.953824	6581.400000
2358.502242	6533.300000
2360.050369	6564.900000
2361.594907	6530.100000
2363.140803	6487.600000
2364.684761	6554.600000
2366.230076	6528.800000
2367.771806	6507.200000
2369.314893	6517.000000
2370.856044	6502.300000
2372.396906	6545.700000
2373.937479	6514.700000
2375.477763	6541.400000
2377.017758	6480.700000
2378.554175	6459.000000
2380.093593	6498.800000
2381.629433	6529.100000
2383.166631	6494.100000
2384.700253	6520.300000
2386.236875	6514.900000
2387.771567	6522.000000
2389.304329	6522.600000
2390.836804	6502.800000
2392.367351	6488.600000
2393.900896	6475.100000
2395.429230	6520.700000
2396.958921	6500.000000
2398.488325	6540.100000
2400.017445	6511.800000
2401.546280	6539.800000
2403.069909	6548.100000
2404.598174	6554.700000
2406.121237	6477.400000
2407.648933	6518.100000
2409.169790	6428.400000
2410.695280	6538.800000
2412.217209	6486.200000
2413.740494	6518.600000
2415.261857	6596.500000
2416.781301	6513.900000
2418.302100	6505.200000
2419.820981	6520.000000
2421.339579	6530.000000
2422.856260	6500.900000
2424.374295	6505.800000
2425.892049	6503.400000
2427.406252	6518.400000
2428.920174	6547.500000
2430.433816	6499.700000
2431.948813	6459.200000
2433.460261	6493.400000
2434.973064	6517.600000
2436.483953	6516.900000
2437.994564	6522.500000
2439.503263	6503.300000
2441.014948	6515.400000
2442.523090	6508.200000
2444.030954	6489.200000
2445.538540	6538.600000
2447.042585	6561.400000
2448.549615	6492.600000
2450.054737	6533.700000
2451.559582	6561.700000
2453.062520	6509.500000
2454.565182	6521.400000
2456.067567	6536.500000
2457.568047	6486.900000
2459.069880	6525.000000
2460.569808	6556.000000
2462.069461	6572.900000
2463.568839	6522.400000
2465.066314	6538.200000
2466.561887	6485.800000
2468.060440	6539.700000
2469.555465	6530.600000
2471.051842	6583.100000
2472.544693	6542.200000
2474.038897	6535.900000
2475.532827	6591.200000
2477.023233	6561.100000
2478.516617	6570.900000
2480.008103	6582.400000
2481.497692	6520.100000
2482.987009	6592.700000
2484.474430	6550.200000
2485.964827	6559.300000
2487.451706	6540.600000
2488.939936	6590.400000
2490.424649	6536.100000
2491.909093	6564.000000
2493.394887	6543.200000
2494.878790	6510.400000
2496.364043	6531.100000
2497.844163	6538.600000
2499.327256	6564.200000
2500.808458	6570.700000
2502.289391	6609.300000
2503.768435	6504.100000
2505.247210	6561.200000
2506.725717	6590.100000
2508.203956	6550.800000
2509.681926	6568.100000
2511.156391	6562.900000
2512.633826	6561.400000
2514.107757	6564.300000
2515.583038	6563.000000
2517.058052	6548.500000
2518.529565	6591.000000
2520.002429	6604.400000
2521.473410	6565.200000
2522.945741	6582.700000
2524.412958	6550.600000
2525.883142	6574.700000
2527.351445	6534.300000
2528.819483	6588.600000
2530.287256	6605.000000
2531.754764	6626.500000
2533.222007	6632.600000
2534.685758	6588.200000
2536.150859	6578.500000
2537.614083	6601.400000
2539.078656	6563.800000
2540.539741	6554.200000
2542.002175	6562.700000
2543.464346	6553.500000
2544.923031	6550.600000
2546.386287	6610.700000
2547.844448	6634.700000
2549.303957	6569.600000
2550.758372	6648.700000
2552.217358	6621.300000
2553.674472	6613.700000
2555.129715	6565.200000
2556.584696	6616.800000
2558.037809	6596.000000
2559.492270	6617.400000
2560.944861	6602.500000
2562.397193	6598.700000
2563.847658	6624.500000
2565.301078	6645.800000
2566.749416	6615.300000
2568.200709	6616.800000
2569.650137	6596.900000
2571.096092	6587.600000
2572.545002	6682.800000
2573.990442	6594.900000
2575.437229	6598.600000
2576.882154	6609.200000
2578.326820	6599.900000
2579.772834	6652.800000
2581.215382	6629.700000
2582.659277	6583.000000
2584.099707	6638.700000
2585.541484	6655.300000
2586.981402	6590.000000
2588.422667	6618.100000
2589.860470	6647.800000
2591.301223	6657.400000
2592.736914	6622.200000
2594.175554	6666.100000
2595.612336	6664.600000
2597.047263	6656.900000
2598.485137	6638.900000
2599.917954	6640.300000
2601.352118	6667.600000
2602.784428	6676.100000
2604.218084	6659.100000
2605.649887	6654.200000
2607.081436	6652.500000
2608.512733	6663.800000
2609.942177	6657.100000
2611.371369	6670.200000
2612.798711	6672.400000
2614.227398	6670.700000
2615.655834	6659.600000
2617.080822	6684.000000
2618.507157	6688.100000
2619.931643	6658.600000
2621.357475	6627.000000
2622.779863	6668.200000
2624.203597	6634.600000
2625.625484	6698.900000
2627.047122	6671.900000
2628.466914	6706.700000
2629.888052	6739.100000
2631.308940	6665.700000
2632.726390	6687.400000
2634.146779	6686.800000
2635.563731	6698.700000
2636.980434	6711.600000
2638.396889	6698.100000
2639.813096	6733.900000
2641.229055	6715.600000
2642.643173	6736.700000
2644.057043	6712.900000
2645.469075	6731.400000
2646.882450	6672.900000
2648.292396	6743.200000
2649.705278	6755.900000
2651.114731	6746.600000
2652.523938	6717.700000
2653.931309	6732.900000
2655.341614	6733.900000
2656.750084	6785.900000
2658.156718	6756.000000
2659.563107	6729.500000
2660.967662	6795.300000
2662.373561	6719.200000
2663.777627	6719.600000
2665.181448	6725.900000
2666.585025	6683.300000
2667.986771	6747.200000
2669.389860	6704.400000
2670.789531	6749.200000
2672.190546	6732.500000
2673.588145	6738.800000
2674.988674	6770.100000
2676.385787	6790.200000
2677.784244	6696.300000
2679.180874	6711.100000
2680.577261	6715.200000
2681.973406	6679.300000
2683.367725	6738.200000
2684.763387	6735.600000
2686.155640	6712.000000
2687.549235	6749.200000
2688.941006	6754.400000
2690.334120	6709.400000
2691.725410	6700.900000
2693.114877	6697.400000
2694.504104	6730.600000
2695.893092	6708.600000
2697.283421	6702.800000
2698.668767	6724.400000
2700.057036	6706.400000
2701.443485	6677.900000
2702.829695	6705.200000
2704.215666	6698.800000
2705.598239	6692.200000
2706.982154	6698.300000
2708.365831	6688.600000
2709.749269	6720.000000
2711.129313	6683.700000
2712.510697	6706.000000
2713.890267	6696.600000
2715.271177	6697.400000
2716.650273	6675.600000
2718.027555	6702.400000
2719.406178	6662.900000
2720.782988	6690.400000
2722.159561	6648.000000
2723.535899	6688.200000
2724.910426	6668.300000
2726.286293	6718.300000
2727.658773	6629.900000
2729.034169	6676.800000
2730.404605	6693.900000
2731.776382	6723.500000
2733.147924	6695.700000
2734.517658	6704.800000
2735.888733	6648.400000
2737.257999	6676.300000
2738.627032	6687.700000
2739.994259	6664.800000
2741.361252	6680.100000
2742.728013	6685.000000
2744.094542	6645.900000
2745.459265	6670.900000
2746.823756	6643.500000
2748.188016	6707.600000
2749.552043	6695.800000
2750.915839	6637.600000
2752.276261	6639.900000
2753.639593	6654.100000
2754.997983	6633.600000
2756.359283	6613.900000
2757.717213	6655.400000
2759.078051	6628.700000
2760.437090	6653.100000
2761.792760	6675.400000
2763.151338	6655.000000
2764.506549	6640.100000
2765.861531	6663.600000
2767.214717	6652.200000
2768.570809	6678.600000
2769.923536	6652.800000
2771.276036	6598.700000
2772.628307	6628.300000
2773.981916	6623.600000
2775.332165	6655.600000
2776.680619	6631.400000
2778.031979	6637.300000
2779.379979	6650.200000
2780.729317	6613.900000
2782.076863	6628.200000
2783.424183	6622.700000
2784.771276	6641.900000
2786.116578	6642.000000
2787.461653	6600.400000
2788.806503	6628.100000
2790.151127	6631.300000
2791.492399	6649.400000
2792.835009	6642.200000
2794.177393	6632.200000
2795.519552	6662.300000
2796.858362	6672.400000
2798.200072	6649.000000
2799.538434	6685.200000
2800.878132	6687.400000
2802.216046	6600.300000
2803.552175	6605.500000
2804.888080	6619.500000
2806.225323	6651.000000
2807.560782	6679.700000
2808.896018	6645.700000
2810.229471	6634.900000
2811.564261	6640.000000
2812.895711	6670.500000
2814.230056	6644.700000
2815.559503	6673.400000
2816.890287	6642.600000
2818.220849	6659.400000
2819.549632	6679.600000
2820.879751	6699.200000
2822.208092	6667.000000
2823.536212	6653.700000
2824.862554	6610.400000
2826.190233	6665.200000
2827.514578	6661.900000
2828.840260	6633.500000
2830.164166	6626.500000
2831.487853	6626.700000
2832.812875	6599.400000
2834.134567	6690.500000
2835.456041	6630.000000
2836.777296	6609.400000
2838.098332	6644.300000
2839.417595	6640.900000
2840.738194	6612.200000
2842.057022	6641.800000
2843.375631	6574.700000
2844.692469	6633.800000
2846.009090	6625.600000
2847.325494	6640.100000
2848.640128	6632.500000
2849.956098	6648.400000
2851.268747	6653.500000
2852.582731	6653.300000
2853.896499	6640.300000
2855.210050	6615.800000
2856.521835	6657.100000
2857.831853	6702.100000
2859.143206	6667.200000
2860.451244	6650.000000
2861.760616	6657.400000
2863.069774	6649.200000
2864.378716	6654.800000
2865.685894	6641.400000
2866.991310	6631.100000
2868.298060	6666.900000
2869.603047	6658.100000
2870.907821	6626.900000
2872.210833	6641.700000
2873.516726	6664.200000
2874.817765	6621.700000
2876.120138	6643.400000
2877.420751	6665.000000
2878.722698	6674.400000
2880.024431	6632.300000
2881.322861	6639.000000
2882.622624	6634.800000
2883.920630	6641.700000
2885.218424	6600.900000
2886.514462	6643.600000
2887.811833	6622.100000
2889.107448	6625.900000
2890.402852	6681.800000
2891.698045	6659.000000
2892.989941	6663.300000
2894.284713	6629.000000
2895.576188	6688.000000
2896.868996	6713.500000
2898.161594	6602.200000
2899.450898	6647.400000
2900.741534	6614.100000
2902.030419	6648.300000
2903.320636	6654.100000
2904.607562	6659.900000
2905.895820	6703.500000
2907.182329	6659.100000
2908.468629	6650.800000
2909.754722	6661.400000
2911.039066	6656.100000
2912.326281	6659.800000
2913.608670	6672.000000
2914.892391	6674.200000
2916.174366	6638.900000
2917.456133	6644.800000
2918.736156	6671.500000
2920.019048	6622.500000
2921.300195	6684.900000
2922.578060	6669.200000
2923.858794	6622.300000
2925.136247	6663.800000
2926.413494	6623.100000
2927.688999	6661.200000
2928.967372	6633.900000
2930.240931	6590.900000
2931.517357	6664.000000
2932.792042	6659.200000
2934.064986	6591.500000
2935.339262	6641.200000
2936.611798	6654.400000
2937.884129	6622.500000
2939.153188	6649.700000
2940.425112	6649.200000
2941.695298	6634.900000
2942.965280	6625.700000
2944.235059	6649.600000
2945.503102	6633.000000
2946.769408	6651.200000
2948.035513	6654.400000
2949.302947	6655.600000
2950.568647	6636.900000
2951.834144	6638.900000
2953.099439	6619.300000
2954.361469	6651.400000
2955.624829	6674.100000
2956.887988	6617.600000
2958.149415	6674.000000
2959.412171	6621.500000
2960.673195	6625.700000
2961.932489	6598.100000
2963.191583	6672.200000
2964.450476	6604.900000
2965.709169	6671.800000
2966.967662	6637.600000
2968.224426	6694.400000
2969.480990	6683.700000
2970.735827	6643.600000
2971.991992	6663.300000
2973.244903	6642.500000
2974.499143	6613.600000
2975.753184	6638.400000
2977.005499	6645.500000
2978.257615	6667.700000
2979.508007	6647.000000
2980.761254	6645.500000
2982.009724	6628.200000
2983.261049	6635.200000
2984.509124	6646.200000
2985.757003	6624.600000
2987.004684	6650.900000
2988.252168	6599.500000
2989.497931	6668.600000
2990.743498	6639.500000
2991.990392	6667.900000
2993.234042	6656.500000
2994.479020	6629.100000
2995.720754	6665.900000
2996.965340	6626.600000
2998.208207	6625.800000
2999.447833	6650.800000
3000.690309	6639.600000
3001.929545	6671.500000
3003.170109	6645.100000
3004.408957	6633.100000
3005.647609	6635.500000
3006.884546	6658.700000
3008.122811	6654.600000
3009.359360	6625.000000
3010.595716	6664.200000
3011.831878	6621.600000
3013.066326	6661.000000
3014.300582	6662.600000
3015.534644	6665.300000
3016.766994	6637.300000
3017.997632	6654.000000
3019.231116	6692.500000
3020.462888	6648.900000
3021.692950	6646.500000
3022.922819	6637.400000
3024.150980	6694.200000
3025.380466	6665.700000
3026.608243	6646.200000
3027.835829	6660.000000
3029.064742	6649.400000
3030.288912	6690.500000
3031.515925	6619.200000
3032.739714	6658.600000
3033.964830	6663.300000
3035.188239	6673.300000
3036.411458	6667.200000
3037.632972	6658.700000
3038.857327	6646.300000
3040.076947	6632.000000
3041.297893	6688.300000
3042.518650	6633.900000
3043.737703	6662.600000
3044.958081	6660.800000
3046.175243	6638.700000
3047.393731	6628.200000
3048.610516	6652.400000
3049.827114	6646.500000
3051.043523	6649.000000
3052.256720	6670.400000
3053.472754	6708.100000
3054.685576	6676.800000
3055.901235	6673.800000
3057.112171	6647.100000
3058.324432	6685.900000
3059.536507	6674.400000
3060.748394	6683.900000
3061.958585	6670.700000
3063.168589	6670.300000
3064.378407	6718.200000
3065.586529	6638.900000
3066.794466	6663.000000
3068.000707	6646.100000
3069.208273	6659.000000
3070.414144	6674.150000
3071.619831	6689.300000
3072.825332	6645.700000
3074.029140	6667.800000
3075.234272	6667.700000
3076.437711	6674.800000
3077.639459	6690.500000
3078.841022	6698.400000
3080.042402	6712.300000
3081.243598	6700.400000
3082.443104	6663.100000
3083.642427	6673.000000
3084.843073	6647.600000
3086.042029	6660.400000
3087.237791	6641.700000
3088.436382	6653.800000
3089.631779	6610.400000
3090.828499	6675.500000
3092.022027	6667.900000
3093.218383	6653.900000
3094.413053	6651.000000
3095.604532	6684.500000
3096.800342	6647.400000
3097.991458	6708.400000
3099.183898	6666.600000
3100.373150	6650.300000
3101.565227	6654.900000
3102.755621	6663.300000
3103.942829	6678.200000
3105.131360	6669.100000
3106.321212	6654.400000
3107.507881	6687.300000
3108.694369	6637.800000
3109.880679	6686.300000
3111.068310	6700.700000
3112.252759	6663.900000
3113.435529	6680.400000
3114.621121	6681.400000
3115.805034	6678.700000
3116.987268	6670.000000
3118.169323	6677.800000
3119.351200	6658.500000
3120.532899	6651.000000
3121.712921	6662.000000
3122.891266	6666.400000
3124.072431	6676.600000
3125.250421	6664.400000
3126.428235	6667.100000
3127.605871	6677.000000
3128.781832	6684.300000
3129.957616	6640.000000
3131.134722	6641.800000
3132.310153	6703.600000
3133.483911	6644.900000
3134.655996	6682.000000
3135.829403	6678.100000
3137.002633	6677.700000
3138.174192	6689.100000
3139.347071	6678.000000
3140.516783	6687.300000
3141.687816	6671.900000
3142.857179	6675.000000
3144.024871	6656.900000
3145.195379	6682.800000
3146.361229	6665.500000
3147.531387	6697.000000
3148.696889	6682.400000
3149.862216	6665.400000
3151.027370	6661.100000
3152.192351	6672.900000
3153.358651	6684.700000
3154.520299	6663.500000
3155.683266	6663.000000
3156.846061	6674.000000
3158.008683	6630.800000
3159.169640	6646.100000
3160.330424	6676.500000
3161.491036	6676.300000
3162.649984	6686.500000
3163.808761	6646.500000
3164.967366	6670.200000
3166.125798	6672.600000
3167.284060	6623.300000
3168.440659	6675.600000
3169.595597	6693.100000
3170.751854	6694.100000
3171.906450	6653.200000
3173.060876	6699.100000
3174.213642	6647.900000
3175.366237	6707.100000
3176.518663	6710.000000
3177.670919	6654.300000
3178.823004	6683.000000
3179.971944	6657.000000
3181.123690	6643.000000
3182.273778	6680.700000
3183.422210	6669.600000
3184.570472	6696.300000
3185.718566	6685.800000
3186.866491	6678.700000
3188.012760	6638.300000
3189.158861	6701.600000
3190.303308	6648.400000
3191.447587	6652.900000
3192.591698	6685.900000
3193.737126	6661.600000
3194.879416	6645.600000
3196.021539	6648.800000
3197.163494	6679.700000
3198.305282	6645.600000
3199.446903	6665.500000
3200.585389	6670.100000
3201.725192	6644.600000
3202.866313	6682.800000
3204.004299	6669.000000
3205.140636	6679.000000
3206.276807	6702.000000
3207.414295	6654.300000
3208.550135	6651.500000
3209.687292	6693.100000
3210.819836	6676.000000
3211.956662	6703.900000
3213.088876	6646.500000
3214.222407	6672.800000
3215.355774	6634.400000
3216.486013	6658.000000
3217.619050	6670.600000
3218.748961	6668.200000
3219.880188	6648.000000
3221.008291	6673.100000
3222.139190	6658.000000
3223.268445	6638.800000
3224.396057	6668.000000
3225.520546	6677.400000
3226.649311	6671.300000
3227.774954	6669.300000
3228.900435	6663.200000
3230.024274	6670.400000
3231.150907	6675.700000
3232.272943	6628.500000
3233.396295	6685.200000
3234.519485	6694.100000
3235.642512	6655.000000
3236.763901	6647.200000
3237.885127	6641.300000
3239.004716	6640.800000
3240.124143	6675.400000
3241.241932	6667.100000
3242.362513	6660.100000
3243.479981	6663.200000
3244.597288	6685.700000
3245.714435	6627.100000
3246.829946	6674.900000
3247.946771	6679.600000
3249.060487	6651.200000
3250.176992	6672.400000
3251.291863	6635.800000
3252.403625	6670.300000
3253.515227	6663.300000
3254.628145	6661.100000
3255.740903	6670.300000
3256.850555	6695.700000
3257.961522	6679.900000
3259.072330	6649.200000
3260.181506	6637.600000
3261.289052	6634.800000
3262.397911	6625.900000
3263.506613	6654.600000
3264.612212	6659.100000
3265.719125	6641.600000
3266.824409	6681.200000
3267.931007	6631.600000
3269.034505	6651.700000
3270.139318	6646.800000
3271.243973	6667.600000
3272.345529	6614.300000
3273.446929	6678.400000
3274.549643	6633.900000
3275.652201	6659.900000
3276.751662	6658.300000
3277.853907	6656.600000
3278.953056	6655.300000
3280.050581	6671.700000
3281.147950	6654.400000
3282.248101	6652.100000
3283.345160	6670.700000
3284.442063	6662.400000
3285.538811	6681.100000
3286.631001	6668.000000
3287.727439	6657.600000
3288.822255	6658.200000
3289.916917	6631.300000
3291.009957	6645.300000
3292.102842	6651.900000
3293.194108	6658.000000
3294.286685	6647.400000
3295.377643	6656.500000
3296.466981	6650.800000
3297.556166	6691.300000
3298.646664	6670.900000
3299.734077	6669.900000
3300.821337	6677.100000
3301.909910	6626.200000
3302.998331	6682.000000
3304.082204	6645.500000
3305.170319	6652.600000
3306.255352	6644.100000
3307.338770	6701.800000
3308.423500	6658.100000
3309.506614	6684.200000
3310.591041	6661.000000
3311.672389	6679.200000
3312.755049	6670.800000
3313.836095	6659.300000
3314.916990	6665.000000
3315.996271	6665.900000
3317.075402	6681.600000
3318.155845	6649.700000
3319.233213	6678.100000
3320.311893	6660.200000
3321.388961	6657.000000
3322.465880	6686.400000
3323.541187	6613.600000
3324.616345	6681.400000
3325.692814	6644.200000
3326.766213	6628.500000
3327.839463	6673.700000
3328.914023	6702.400000
3329.986975	6667.200000
3331.058318	6663.300000
3332.130972	6660.600000
3333.200560	6665.900000
3334.271458	6650.900000
3335.340749	6646.100000
3336.411351	6649.900000
3337.480346	6661.500000
3338.547735	6645.700000
3339.613519	6631.900000
3340.683529	6678.400000
3341.750476	6668.100000
3342.814361	6647.700000
3343.881014	6656.600000
3344.946062	6647.800000
3346.009507	6687.500000
3347.072806	6672.900000
3348.135958	6641.200000
3349.198964	6655.500000
3350.261824	6656.700000
3351.323082	6677.400000
3352.381283	6633.400000
3353.443704	6640.800000
3354.503070	6652.000000
3355.562290	6659.700000
3356.622820	6689.700000
3357.678840	6656.700000
3358.737624	6658.900000
3359.791901	6668.500000
3360.848942	6658.400000
3361.904384	6670.100000
3362.961136	6648.000000
3364.016289	6648.800000
3365.069845	6666.800000
3366.121805	6657.500000
3367.176526	6666.000000
3368.228198	6654.800000
3369.279727	6660.600000
3370.332564	6649.800000
3371.382354	6647.200000
3372.433453	6665.500000
3373.481506	6685.600000
3374.532318	6697.100000
3375.580086	6679.700000
3376.627711	6658.800000
3377.675193	6696.600000
3378.721083	6647.000000
3379.768281	6673.300000
3380.812437	6649.400000
3381.859351	6624.200000
3382.904673	6661.900000
3383.946954	6661.300000
3384.989095	6640.700000
3386.032543	6668.300000
3387.075850	6655.700000
3388.117568	6670.300000
3389.159144	6660.000000
3390.200579	6657.000000
3391.240426	6671.100000
3392.278684	6632.700000
3393.318250	6693.900000
3394.357676	6661.800000
3395.395514	6674.600000
3396.431765	6691.000000
3397.467877	6679.200000
3398.505296	6663.000000
3399.539682	6634.100000
3400.575375	6656.900000
3401.610929	6644.800000
3402.643452	6651.100000
3403.678728	6672.900000
3404.710973	6685.400000
3405.743080	6657.500000
3406.773603	6639.300000
3407.805433	6659.200000
3408.837125	6678.800000
3409.865789	6672.500000
3410.894316	6698.200000
3411.924149	6662.000000
3412.953845	6664.500000
3413.980515	6647.300000
3415.008492	6657.100000
3416.033444	6657.800000
3417.061146	6675.500000
3418.085825	6674.000000
3419.111810	6685.500000
3420.136215	6647.300000
3421.160484	6703.200000
3422.183174	6693.200000
3423.205728	6687.500000
3424.229588	6625.900000
3425.250428	6671.400000
3426.271132	6664.100000
3427.293143	6654.000000
3428.312135	6648.700000
3429.330991	6649.200000
3430.351154	6668.500000
3431.368300	6673.700000
