-117.888313	20.300000
-115.218713	13.400000
-112.552048	3.400000
-109.886135	-9.100000
-107.223154	7.300000
-104.558744	11.600000
-101.897264	12.600000
-99.234355	-4.400000
-96.576552	0.800000
-93.917320	-4.400000
-91.258836	2.600000
-88.603276	33.500000
-85.946288	24.800000
-83.294398	-1.500000
-80.641078	15.700000
-77.990677	6.600000
-75.338847	7.200000
-72.692108	3.900000
-70.043940	8.100000
-67.396514	4.700000
-64.752002	9.800000
-62.106062	-0.100000
-59.465203	13.500000
-56.822915	22.800000
-54.183536	18.300000
-51.542727	24.500000
-48.902659	15.300000
-46.267663	26.500000
-43.631239	9.100000
-40.997717	8.400000
-38.362767	20.400000
-35.732882	20.100000
-33.099405	24.400000
-30.470990	32.200000
-27.843309	23.400000
-25.214199	38.000000
-22.590146	31.800000
-19.962504	53.900000
-17.339915	61.100000
-14.718058	91.300000
-12.096931	173.500000
-9.476534	397.200000
-6.859026	1164.300000
-4.240089	4015.100000
-1.624037	8858.600000
0.991286	9302.100000
3.605882	4701.000000
6.217595	525.100000
8.830737	87.900000
11.438845	55.900000
14.050535	30.200000
16.657194	17.200000
19.265281	22.900000
21.872644	30.100000
24.474982	14.600000
27.080898	14.300000
29.681792	34.300000
32.284114	4.100000
34.881419	22.200000
37.482299	19.200000
40.078164	17.300000
42.675458	7.600000
45.272032	14.600000
47.863597	42.200000
50.456590	22.600000
53.046722	28.500000
55.638282	10.400000
58.226982	46.500000
60.817109	19.100000
63.402237	2.400000
65.988793	5.800000
68.574635	8.400000
71.157623	17.500000
73.742037	16.600000
76.319323	13.800000
78.900175	9.800000
81.478178	1.000000
84.055471	16.500000
86.634190	14.400000
89.207927	12.400000
91.783092	19.500000
94.355413	8.400000
96.927026	28.000000
99.495799	38.300000
102.065999	10.200000
104.633361	12.800000
107.202148	34.600000
109.768099	34.000000
112.331215	35.000000
114.897887	60.600000
117.455338	53.200000
120.018474	71.700000
122.576650	111.500000
125.138381	179.800000
127.695155	225.500000
130.253356	351.700000
132.806603	488.200000
135.359153	748.800000
137.915253	1058.800000
140.466405	1364.400000
143.016860	1719.000000
145.566617	1921.900000
148.113555	2212.000000
150.659798	2311.900000
153.207466	2402.200000
155.754438	2407.700000
158.296475	2435.400000
160.837818	2383.300000
163.378468	2387.300000
165.920544	2361.900000
168.459808	2387.000000
170.996264	2388.700000
173.532028	2332.600000
176.069218	2328.600000
178.605717	2316.700000
181.139410	2357.900000
183.670299	2286.600000
186.200501	2304.700000
188.732127	2307.400000
191.260952	2310.400000
193.786978	2315.900000
196.312318	2344.100000
198.839083	2378.200000
201.363052	2402.800000
203.886336	2347.600000
206.408935	2403.200000
208.928741	2364.100000
211.447864	2374.600000
213.966304	2325.700000
216.486168	2366.000000
218.999031	2377.400000
221.515425	2419.800000
224.031137	2394.700000
226.541959	2416.900000
229.054206	2406.500000
231.563671	2401.300000
234.072457	2426.000000
236.580564	2397.800000
239.090096	2491.600000
241.594747	2500.700000
244.098722	2465.500000
246.604121	2503.500000
249.104645	2461.200000
251.608693	2486.800000
254.105769	2489.600000
256.606369	2481.200000
259.104197	2503.100000
261.601352	2461.300000
264.097834	2495.900000
266.589453	2479.100000
269.084592	2449.500000
271.576964	2471.000000
274.068666	2499.000000
276.557605	2457.800000
279.047968	2501.300000
281.535568	2449.400000
284.020409	2522.900000
286.508765	2501.700000
288.990181	2463.500000
291.475111	2528.800000
293.955196	2565.900000
296.438793	2556.000000
298.917547	2601.500000
301.397725	2580.200000
303.875150	2624.100000
306.351912	2630.400000
308.828011	2623.900000
311.301361	2671.100000
313.774049	2736.500000
316.246076	2790.400000
318.717442	2891.900000
321.186063	2969.700000
323.654026	2933.400000
326.123410	2839.000000
328.587972	2760.100000
331.056038	2698.600000
333.519284	2708.500000
335.981872	2690.500000
338.443804	2688.500000
340.905079	2685.500000
343.363620	2721.700000
345.823583	2704.000000
348.280813	2681.600000
350.737389	2632.600000
353.193311	2683.100000
355.646503	2627.600000
358.101118	2650.100000
360.550931	2661.600000
363.004240	2655.900000
365.452751	2641.100000
367.900610	2659.300000
370.349892	2620.000000
372.794380	2659.000000
375.240290	2565.100000
377.685550	2561.200000
380.128092	2619.200000
382.569986	2598.400000
385.011233	2613.100000
387.449764	2626.500000
389.889717	2615.700000
392.326956	2648.300000
394.761483	2621.700000
397.199498	2625.400000
399.632736	2635.200000
402.067395	2586.300000
404.497282	2590.000000
406.930654	2637.300000
409.359256	2615.300000
411.787216	2597.900000
414.216598	2620.600000
416.641214	2625.900000
419.067252	2605.900000
421.492649	2583.900000
423.917406	2622.200000
426.337405	2590.500000
428.758825	2609.700000
431.177548	2616.400000
433.597692	2605.500000
436.015141	2604.500000
438.434010	2625.400000
440.850186	2605.700000
443.261614	2597.200000
445.676520	2608.200000
448.088735	2611.300000
450.500316	2656.100000
452.911263	2613.800000
455.319524	2636.400000
457.727152	2632.900000
460.134148	2629.100000
462.540513	2612.900000
464.944195	2622.700000
467.347247	2619.600000
469.749669	2663.400000
472.151461	2653.100000
474.550576	2591.500000
476.951110	2637.200000
479.351015	2644.600000
481.746197	2655.700000
484.144846	2662.800000
486.538775	2692.900000
488.932078	2623.000000
491.324755	2663.900000
493.716807	2632.000000
496.110277	2607.200000
498.499035	2595.600000
500.885127	2546.100000
503.272639	2499.300000
505.659528	2514.300000
508.043753	2489.300000
510.429396	2493.700000
512.812378	2450.300000
515.192699	2419.800000
517.574439	2444.000000
519.953520	2417.400000
522.334020	2409.900000
524.711862	2445.100000
527.087049	2463.700000
529.461618	2376.100000
531.837605	2372.900000
534.210940	2396.100000
536.585692	2410.000000
538.955759	2393.600000
541.325210	2385.700000
543.696079	2376.800000
546.062268	2337.100000
548.429875	2336.500000
550.794836	2330.300000
553.159184	2338.600000
555.522919	2321.100000
557.888072	2310.200000
560.248553	2330.200000
562.610452	2321.100000
564.969710	2305.600000
567.326331	2305.800000
569.686396	2315.900000
572.039770	2284.000000
574.396589	2349.900000
576.750773	2273.800000
579.104349	2299.900000
581.457316	2296.700000
583.807651	2301.000000
586.159404	2333.100000
588.504480	2333.900000
590.855020	2281.200000
593.198886	2324.200000
595.548214	2301.500000
597.892893	2296.900000
600.234948	2309.900000
602.578420	2288.700000
604.919269	2248.800000
607.259516	2228.600000
609.597142	2263.600000
611.938203	2226.200000
614.274626	2194.100000
616.612466	2137.400000
618.947689	2166.500000
621.280296	2128.000000
623.614319	2137.500000
625.945728	2101.700000
628.276539	2082.800000
630.606753	2098.100000
632.936368	2085.300000
635.261360	2094.400000
637.591794	2052.300000
639.917607	2111.200000
642.240812	2131.900000
644.565434	2156.500000
646.887450	2123.300000
649.208872	2190.300000
651.527692	2191.200000
653.847927	2124.200000
656.167569	2172.800000
658.484610	2160.300000
660.801059	2180.200000
663.114910	2174.400000
665.430177	2201.600000
667.742847	2172.200000
670.056932	2222.400000
672.366417	2221.300000
674.677318	2228.200000
676.985626	2210.400000
679.293346	2236.700000
681.602480	2230.000000
683.907022	2193.700000
686.210978	2218.600000
688.514348	2216.900000
690.819132	2195.900000
693.119330	2171.200000
695.420942	2186.200000
697.721970	2147.000000
700.018415	2157.600000
702.316276	2145.800000
704.613553	2133.900000
706.910247	2078.800000
709.202365	2065.900000
711.497894	2088.700000
713.788849	2087.600000
716.081219	2060.400000
718.371014	2114.800000
720.660228	2118.100000
722.948863	2145.700000
725.234925	2135.900000
727.522402	2158.200000
729.807307	2174.300000
732.091635	2172.800000
734.373394	2211.000000
736.656567	2168.900000
738.939163	2177.800000
741.217203	2208.000000
743.496658	2230.300000
745.775536	2255.300000
748.053840	2221.400000
750.327594	2263.800000
752.602761	2240.900000
754.877355	2235.300000
757.149390	2241.900000
759.422838	2254.100000
761.693728	2240.500000
763.962062	2239.400000
766.231809	2222.000000
768.499002	2208.500000
770.765624	2219.000000
773.031676	2250.100000
775.295177	2230.800000
777.560091	2237.100000
779.824435	2208.500000
782.084250	2252.700000
784.345477	2268.700000
786.606137	2292.600000
788.864251	2265.100000
791.119820	2238.600000
793.378780	2258.100000
795.631241	2245.100000
797.889068	2252.500000
800.142377	2277.500000
802.393146	2238.900000
804.645327	2158.100000
806.894969	2216.400000
809.146024	2248.200000
811.392567	2213.900000
813.640522	2246.500000
815.885943	2247.000000
818.132775	2265.800000
820.379046	2226.500000
822.620812	2209.500000
824.865962	2206.800000
827.104639	2202.300000
829.346698	2188.700000
831.584259	2175.500000
833.823232	2164.700000
836.059678	2150.500000
838.297535	2146.100000
840.532867	2137.100000
842.765676	2145.400000
844.999896	2122.600000
847.231593	2124.000000
849.462736	2117.400000
851.693324	2108.300000
853.923358	2088.800000
856.152838	2046.200000
858.377836	2090.100000
860.606209	2035.500000
862.830102	2064.700000
865.055407	2062.700000
867.276236	2025.700000
869.500437	2035.500000
871.720165	2079.100000
873.941303	2070.700000
876.161891	2119.800000
878.379970	2095.900000
880.599458	2042.100000
882.814480	2055.300000
885.028955	1988.600000
887.242881	1984.300000
889.456261	2014.400000
891.669093	2009.600000
893.881379	1996.900000
896.091162	2013.000000
898.300400	1988.200000
900.509093	1987.200000
902.715287	2006.400000
904.922890	1964.100000
907.127995	2006.200000
909.332557	2035.200000
911.534624	2054.500000
913.738100	2008.100000
915.939082	2069.600000
918.139522	2088.100000
920.341371	2115.600000
922.536829	2074.500000
924.735646	2097.700000
926.930024	2082.100000
929.127760	2111.600000
931.321060	2122.000000
933.515769	2142.300000
935.707992	2139.300000
937.899676	2157.500000
940.090823	2175.100000
942.279487	2194.000000
944.467615	2205.700000
946.653262	2199.000000
948.842261	2233.800000
951.026837	2225.600000
953.210878	2248.000000
955.398269	2236.200000
957.577356	2235.300000
959.759794	2280.200000
961.941698	2253.400000
964.121127	2275.400000
966.298084	2316.900000
968.476449	2325.900000
970.656221	2323.000000
972.829644	2329.800000
975.006413	2315.800000
977.178775	2352.900000
979.352545	2367.200000
981.521911	2382.400000
983.694621	2359.200000
985.864866	2382.900000
988.034582	2367.500000
990.203769	2342.500000
992.368559	2362.700000
994.536690	2349.100000
996.700427	2394.100000
998.865570	2384.300000
1001.028254	2363.700000
1003.190413	2399.800000
1005.350115	2387.400000
1007.509292	2394.600000
1009.669876	2411.500000
1011.828006	2423.300000
1013.985611	2379.000000
1016.142693	2373.100000
1018.299251	2376.500000
1020.451430	2374.700000
1022.605016	2363.200000
1024.758080	2387.500000
1026.908695	2387.700000
1029.060717	2435.600000
1031.208365	2385.800000
1033.359345	2418.700000
1035.505954	2426.400000
1037.652044	2390.900000
1039.797616	2393.500000
1041.944593	2394.800000
1044.085281	2427.500000
1046.229299	2386.800000
1048.370876	2388.500000
1050.511937	2379.500000
1052.654402	2416.400000
1054.790588	2383.500000
1056.930099	2370.000000
1059.065256	2406.700000
1061.203737	2398.700000
1063.337864	2380.600000
1065.471478	2379.900000
1067.606497	2344.500000
1069.737166	2398.000000
1071.869240	2363.800000
1073.998885	2359.500000
1076.128018	2289.200000
1078.256639	2330.200000
1080.384749	2337.400000
1082.510433	2326.100000
1084.635607	2263.500000
1086.762185	2270.700000
1088.884425	2288.000000
1091.008070	2255.500000
1093.127380	2283.300000
1095.251920	2251.400000
1097.370214	2247.600000
1099.489913	2211.500000
1101.607193	2283.800000
1103.723967	2288.200000
1105.840234	2279.100000
1107.954085	2254.900000
1110.069341	2258.800000
1112.180273	2284.300000
1114.294518	2251.400000
1116.404442	2302.700000
1118.515770	2247.900000
1120.626593	2316.300000
1122.733100	2250.800000
1124.842917	2271.700000
1126.948419	2310.500000
1129.055324	2307.600000
1131.156014	2288.900000
1133.261916	2310.400000
1135.363509	2293.700000
1137.466505	2262.900000
1139.569000	2279.400000
1141.665288	2244.300000
1143.766784	2208.900000
1145.863976	2225.700000
1147.960671	2233.000000
1150.056867	2204.300000
1152.152566	2234.800000
1154.247766	2268.200000
1156.340570	2260.200000
1158.434777	2285.300000
1160.522792	2276.300000
1162.616005	2319.400000
1164.703030	2282.200000
1166.793354	2244.200000
1168.879391	2287.300000
1170.968725	2268.500000
1173.051878	2294.200000
1175.136433	2310.300000
1177.222390	2291.400000
1179.304065	2302.800000
1181.387142	2288.300000
1183.467833	2295.700000
1185.548032	2295.200000
1187.627740	2243.100000
1189.706957	2228.000000
1191.783792	2257.400000
1193.858246	2177.500000
1195.935991	2203.100000
1198.009467	2255.100000
1200.084343	2208.300000
1202.154952	2192.900000
1204.226962	2236.600000
1206.296597	2237.700000
1208.367632	2235.300000
1210.438179	2229.100000
1212.504465	2264.000000
1214.572152	2210.500000
1216.637467	2201.800000
1218.704182	2255.000000
1220.766641	2211.500000
1222.832385	2219.500000
1224.893875	2228.100000
1226.956766	2225.400000
1229.017289	2242.600000
1231.077328	2252.200000
1233.136885	2283.500000
1235.194076	2271.300000
1237.250786	2328.500000
1239.305132	2315.200000
1241.362760	2318.400000
1243.418025	2303.900000
1245.469049	2303.700000
1247.521473	2281.400000
1249.573417	2310.400000
1251.623003	2279.600000
1253.672110	2283.100000
1255.720739	2293.900000
1257.768889	2286.200000
1259.816560	2287.200000
1261.860001	2334.200000
1263.906718	2263.400000
1265.951081	2269.900000
1267.994968	2249.700000
1270.036503	2299.200000
1272.075689	2261.100000
1274.118148	2284.800000
1276.156384	2288.500000
1278.196019	2244.400000
1280.235179	2229.100000
1282.270120	2269.400000
1284.306460	2230.300000
1286.340456	2269.200000
1288.375849	2275.400000
1290.407030	2319.400000
1292.439608	2294.400000
1294.471715	2338.400000
1296.501481	2313.500000
1298.532645	2349.400000
1300.559601	2388.100000
1302.587955	2344.700000
1304.612104	2336.900000
1306.639519	2334.200000
1308.662731	2360.400000
1310.687341	2357.400000
1312.709617	2360.300000
1314.733290	2376.900000
1316.754630	2359.000000
1318.775502	2400.000000
1320.795907	2400.100000
1322.812119	2424.000000
1324.829728	2395.700000
1326.845009	2409.600000
1328.863549	2411.100000
1330.877900	2423.400000
1332.889925	2431.400000
1334.905207	2435.600000
1336.916304	2422.200000
1338.928798	2371.300000
1340.937109	2417.900000
1342.948675	2399.900000
1344.954203	2386.300000
1346.962986	2364.500000
1348.967591	2361.700000
1350.975450	2395.400000
1352.982847	2384.100000
1354.984213	2363.400000
1356.986975	2367.700000
1358.989278	2341.600000
1360.991121	2333.000000
1362.992504	2336.800000
1364.991574	2337.400000
1366.990185	2324.300000
1368.988338	2317.300000
1370.986032	2288.600000
1372.979564	2290.300000
1374.974491	2298.600000
1376.968962	2309.600000
1378.962976	2323.800000
1380.954683	2297.000000
1382.945935	2293.400000
1384.934881	2259.300000
1386.925222	2264.600000
1388.915108	2216.400000
1390.902690	2250.300000
1392.889819	2231.000000
1394.874646	2234.800000
1396.860868	2259.000000
1398.844790	2233.200000
1400.828259	2298.900000
1402.811275	2263.800000
1404.791994	2329.200000
1406.774107	2281.400000
1408.753924	2313.600000
1410.733289	2316.200000
1412.708516	2320.100000
1414.686981	2283.500000
1416.663153	2302.600000
1418.638876	2251.800000
1420.614149	2293.200000
1422.587131	2263.600000
1424.559665	2289.800000
1426.531751	2253.300000
1428.503390	2222.100000
1430.470900	2241.300000
1432.443484	2258.200000
1434.408262	2245.100000
1436.378113	2236.200000
1438.343840	2281.100000
1440.310959	2295.100000
1442.275795	2248.500000
1444.236511	2303.900000
1446.202295	2289.700000
1448.162124	2315.400000
1450.123347	2274.800000
1452.085962	2290.000000
1454.044462	2344.100000
1456.002519	2317.500000
1457.960135	2299.800000
1459.917308	2254.200000
1461.872206	2288.800000
1463.828497	2266.900000
1465.782513	2238.100000
1467.736088	2226.000000
1469.687391	2215.000000
1471.640087	2186.900000
1473.590510	2145.200000
1475.540495	2167.900000
1477.490041	2146.100000
1479.437318	2198.900000
1481.382327	2127.400000
1483.328729	2128.200000
1485.274693	2117.400000
1487.220220	2147.000000
1489.163481	2171.900000
1491.106307	2167.500000
1493.046869	2165.000000
1494.988822	2171.500000
1496.928513	2126.200000
1498.867770	2141.900000
1500.806591	2153.900000
1502.743153	2151.700000
1504.681106	2120.200000
1506.616800	2158.500000
1508.552061	2161.600000
1510.485066	2142.200000
1512.417638	2157.200000
1514.349778	2222.200000
1516.281486	2199.100000
1518.210940	2204.100000
1520.141785	2233.500000
1522.072198	2224.100000
1523.998539	2188.000000
1525.926271	2222.500000
1527.851752	2218.600000
1529.776804	2261.800000
1531.701427	2260.600000
1533.625621	2275.700000
1535.547567	2296.300000
1537.470904	2284.000000
1539.391994	2292.200000
1541.310840	2295.100000
1543.231076	2322.300000
1545.149069	2325.900000
1547.066635	2340.600000
1548.981959	2367.000000
1550.898673	2359.400000
1552.811332	2384.000000
1554.727195	2400.000000
1556.640818	2431.800000
1558.552203	2466.600000
1560.464978	2449.300000
1562.373703	2420.800000
1564.283817	2463.000000
1566.193508	2439.600000
1568.102776	2483.600000
1570.009810	2484.800000
1571.914611	2509.200000
1573.820801	2529.400000
1575.724759	2483.900000
1577.628296	2455.000000
1579.531413	2438.200000
1581.432300	2464.200000
1583.334576	2418.600000
1585.234624	2415.400000
1587.136059	2385.700000
1589.033461	2341.800000
1590.930444	2355.100000
1592.827009	2317.000000
1594.724962	2345.000000
1596.617080	2381.500000
1598.512391	2353.000000
1600.407285	2359.900000
1602.299957	2349.100000
1604.192212	2365.300000
1606.082248	2309.200000
1607.971868	2340.400000
1609.861073	2312.600000
1611.749863	2327.500000
1613.636435	2318.600000
1615.524395	2312.300000
1617.408338	2317.900000
1619.293668	2319.300000
1621.178585	2337.000000
1623.061288	2304.400000
1624.945378	2303.000000
1626.825456	2273.100000
1628.706922	2308.700000
1630.586177	2285.700000
1632.466818	2258.900000
1634.341655	2282.000000
1636.221473	2255.400000
1638.097287	2281.300000
1639.972690	2244.600000
1641.849479	2223.200000
1643.720472	2284.400000
1645.594646	2233.200000
1647.464821	2181.100000
1649.338178	2189.000000
1651.209331	2260.300000
1653.078282	2184.400000
1654.948618	2222.200000
1656.814962	2186.600000
1658.682691	2183.600000
1660.548221	2221.600000
1662.415137	2188.100000
1664.278064	2151.200000
1666.142376	2156.700000
1668.004492	2123.200000
1669.866203	2125.300000
1671.729300	2090.000000
1673.590201	2145.200000
1675.448910	2116.600000
1677.307215	2108.500000
1679.166905	2120.500000
1681.020827	2081.200000
1682.877923	2098.900000
1684.734616	2097.100000
1686.587332	2046.500000
1688.443220	2096.700000
1690.295134	2061.700000
1692.146647	2048.700000
1693.997759	2011.600000
1695.848471	1940.600000
1697.698782	2017.400000
1699.546908	2012.400000
1701.396419	1972.500000
1703.240181	1985.900000
1705.088892	1943.500000
1706.931857	1949.300000
1708.777989	1940.200000
1710.620158	1919.900000
1712.465493	1910.600000
1714.305087	1913.400000
1716.146065	1897.600000
1717.988426	1934.100000
1719.826831	1909.800000
1721.666619	1916.000000
1723.504232	1898.100000
1725.341449	1903.600000
1727.176493	1913.800000
1729.012920	1929.400000
1730.847175	1952.100000
1732.681035	1886.400000
1734.514501	1950.400000
1736.344022	1947.500000
1738.176701	1900.800000
1740.005436	1930.200000
1741.837328	1905.200000
1743.665278	1916.500000
1745.492837	1926.600000
1747.320003	1905.600000
1749.146778	1934.000000
1750.973161	1894.400000
1752.795608	1991.200000
1754.621210	1950.200000
1756.442877	1940.000000
1758.265926	1939.100000
1760.086813	1951.900000
1761.907312	1994.400000
1763.729191	2012.100000
1765.545372	2005.000000
1767.364704	2001.100000
1769.180109	2007.500000
1770.998664	2007.800000
1772.813294	2046.600000
1774.627537	2024.900000
1776.441394	1986.000000
1778.254864	2016.100000
1780.066181	2033.600000
1781.878878	2034.400000
1783.691190	2017.100000
1785.499584	2018.900000
1787.309358	2014.400000
1789.115218	1973.200000
1790.924223	2009.600000
1792.729315	1978.700000
1794.535788	1967.000000
1796.341877	1972.500000
1798.144055	1984.500000
1799.949378	1996.400000
1801.750792	1985.800000
1803.553586	1989.500000
1805.352474	1966.900000
1807.152743	2015.600000
1808.952630	1954.000000
1810.750375	2010.900000
1812.547740	2015.900000
1814.344725	1960.900000
1816.141329	1985.800000
1817.935794	2030.000000
1819.731638	1999.300000
1821.521827	2006.500000
1823.316913	2038.400000
1825.106347	1989.400000
1826.898917	2020.600000
1828.689352	2062.800000
1830.477653	2025.500000
1832.269089	2020.200000
1834.054879	2031.200000
1835.842049	2028.400000
1837.627087	2026.800000
1839.415259	2006.900000
1841.199545	2004.500000
1842.981701	1976.700000
1844.765237	2028.900000
1846.546644	2021.500000
1848.329430	2030.500000
1850.108335	1988.100000
1851.888620	2008.100000
1853.666778	2001.000000
1855.446315	1951.500000
1857.223727	1993.600000
1858.999015	1967.000000
1860.775681	1988.000000
1862.550225	1992.200000
1864.326147	1956.800000
1866.096448	1945.500000
1867.869877	1950.900000
1869.641186	1994.900000
1871.412124	1971.300000
1873.184440	1983.200000
1874.951142	1974.200000
1876.720970	1980.600000
1878.486934	1980.800000
1880.256021	1975.900000
1882.021247	2000.000000
1883.786105	1955.000000
1885.552340	1976.300000
1887.314716	1945.400000
1889.076725	1914.900000
1890.838366	1945.600000
1892.599641	1912.000000
1894.360548	1910.800000
1896.121089	1902.400000
1897.879520	1898.400000
1899.637585	1855.400000
1901.393543	1912.600000
1903.150877	1891.700000
1904.907846	1888.100000
1906.662708	1871.400000
1908.415466	1843.300000
1910.167859	1837.100000
1911.921629	1843.500000
1913.673295	1847.800000
1915.422859	1840.900000
1917.173798	1864.100000
1918.924375	1850.300000
1920.671112	1844.900000
1922.419226	1913.800000
1924.165240	1882.700000
1925.912629	1902.000000
1927.657921	1909.400000
1929.401115	1876.900000
1931.145684	1906.900000
1932.888158	1920.700000
1934.630271	1950.100000
1936.372024	1922.600000
1938.113417	1895.300000
1939.852717	1940.000000
1941.591658	1899.000000
1943.330240	1914.900000
1945.066731	1917.300000
1946.802864	1924.800000
1948.540371	1932.300000
1950.274056	1917.500000
1952.009116	1918.200000
1953.742087	1909.600000
1955.474702	1925.700000
1957.206961	1883.900000
1958.938863	1899.300000
1960.668679	1906.500000
1962.396410	1908.700000
1964.125516	1900.100000
1965.854267	1875.100000
1967.580934	1906.000000
1969.307247	1916.400000
1971.034933	1915.500000
1972.757083	1881.700000
1974.482334	1904.700000
1976.203778	1931.900000
1977.928323	1928.300000
1979.650787	1950.500000
1981.369449	1924.000000
1983.091209	1961.400000
1984.809167	1954.000000
1986.528498	1926.900000
1988.244030	2006.800000
1989.964382	1995.300000
1991.680936	1999.700000
1993.393693	2023.900000
1995.109546	2037.500000
1996.823327	1998.400000
1998.536758	2010.400000
2000.248118	2005.300000
2001.960850	2017.200000
2003.669792	1995.500000
2005.381826	2007.700000
2007.088352	1981.800000
2008.797969	1956.000000
2010.505520	1991.000000
2012.212722	1947.900000
2013.917859	1990.100000
2015.622650	1943.400000
2017.328812	1952.700000
2019.031192	1917.700000
2020.734943	1950.000000
2022.436632	1944.900000
2024.137976	1954.200000
2025.838974	1946.000000
2027.537911	1927.200000
2029.238220	1923.200000
2030.934754	1913.400000
2032.632659	1917.800000
2034.328505	1934.000000
2036.027437	1941.100000
2037.720883	1915.700000
2039.415700	1898.200000
2041.110175	1927.200000
2042.800881	1968.800000
2044.494671	1915.900000
2046.184694	1945.500000
2047.876088	1919.600000
2049.565429	1981.100000
2051.256140	1915.400000
2052.943088	1927.400000
2054.629697	1921.500000
2056.317675	1925.000000
2058.001894	1955.500000
2059.687484	1897.400000
2061.372734	1942.200000
2063.055935	1884.400000
2064.740507	1906.000000
2066.419616	1880.200000
2068.103510	1888.100000
2069.781943	1858.200000
2071.463454	1871.100000
2073.141213	1853.700000
2074.818636	1844.400000
2076.497428	1860.000000
2078.174178	1875.600000
2079.848886	1852.900000
2081.524963	1873.800000
2083.199000	1896.300000
2084.872701	1915.300000
2086.546067	1924.400000
2088.217394	1887.800000
2089.888387	1888.600000
2091.559046	1937.100000
2093.229371	1941.000000
2094.899362	1887.600000
2096.567317	1918.300000
2098.234939	1900.100000
2099.900526	1881.900000
2101.567482	1881.500000
2103.232405	1874.600000
2104.896996	1872.200000
2106.559555	1913.200000
2108.223482	1892.800000
2109.885378	1928.200000
2111.546944	1918.700000
2113.208178	1929.100000
2114.867384	1908.800000
2116.526259	1934.500000
2118.184805	1944.100000
2119.843020	1943.500000
2121.497513	1959.700000
2123.155070	1970.200000
2124.812298	1947.000000
2126.465804	1942.300000
2128.120678	1958.000000
2129.771833	1959.400000
2131.426051	1958.300000
2133.076552	1927.800000
2134.728419	1927.800000
2136.374878	1889.900000
2138.026092	1867.300000
2139.673592	1937.500000
2141.322459	1926.800000
2142.969307	1938.700000
2144.615830	1953.300000
2146.262027	1938.400000
2147.904516	1918.600000
2149.550063	1950.500000
2151.191903	1976.700000
2152.836800	1948.600000
2154.477991	1928.100000
2156.118860	1922.100000
2157.759404	1957.500000
2159.397936	1956.100000
2161.037834	1966.400000
2162.674032	1934.800000
2164.311596	1928.700000
2165.948838	1942.600000
2167.584070	1879.500000
2169.218981	1903.600000
2170.853569	1877.100000
2172.487837	1907.800000
2174.118411	1898.600000
2175.752037	1895.100000
2177.381971	1894.400000
2179.013270	1892.200000
2180.642564	1864.700000
2182.271539	1904.000000
2183.900194	1879.800000
2185.528530	1909.600000
2187.154864	1901.000000
2188.780879	1913.400000
2190.404892	1953.500000
2192.030271	1963.600000
2193.653649	1946.000000
2195.278392	1967.000000
2196.899454	1991.000000
2198.520199	1947.500000
2200.142309	1968.100000
2201.762421	1937.400000
2203.380536	1933.600000
2204.998336	1962.700000
2206.615821	1882.000000
2208.232990	1915.100000
2209.849844	1894.300000
2211.466382	1878.400000
2213.080928	1921.300000
2214.693481	1935.200000
2216.307398	1903.300000
2217.919324	1878.600000
2219.532613	1891.300000
2221.143912	1874.300000
2222.753221	1841.900000
2224.363894	1851.600000
2225.972578	1824.200000
2227.580949	1874.000000
2229.187334	1843.300000
2230.795082	1832.100000
2232.400843	1872.900000
2234.006293	1842.100000
2235.609758	1858.200000
2237.214586	1882.000000
2238.817430	1859.000000
2240.418291	1895.400000
2242.020515	1907.300000
2243.620757	1884.100000
2245.222361	1883.300000
2246.820312	1875.000000
2248.419626	1890.900000
2250.016960	1898.500000
2251.613986	1887.600000
2253.212374	1886.500000
2254.807113	1928.600000
2256.399875	1950.800000
2257.994000	1863.800000
2259.589486	1937.500000
2261.181327	1900.800000
2262.772862	1951.300000
2264.365759	1933.400000
2265.953346	1990.700000
2267.545629	1932.400000
2269.132606	1885.600000
2270.722610	1950.800000
2272.307310	1938.100000
2273.896704	1915.200000
2275.480796	1892.800000
2277.066248	1889.600000
2278.649732	1882.900000
2280.236241	1843.400000
2281.819117	1827.500000
2283.401690	1814.700000
2284.983959	1868.000000
2286.562598	1830.900000
2288.144262	1822.200000
2289.722297	1841.200000
2291.303355	1807.200000
2292.880786	1794.550000
2294.456254	1781.900000
2296.034744	1760.100000
2297.609610	1774.100000
2299.184175	1751.000000
2300.758440	1786.500000
2302.332404	1752.400000
2303.906067	1755.200000
2305.479431	1738.000000
2307.049176	1742.900000
2308.618622	1781.700000
2310.191086	1746.400000
2311.758276	1745.000000
2313.328484	1736.700000
2314.895077	1744.500000
2316.463030	1741.700000
2318.029027	1766.100000
2319.594727	1767.400000
2321.160129	1815.900000
2322.723578	1772.700000
2324.288386	1792.300000
2325.849586	1833.300000
2327.413800	1860.100000
2328.972752	1897.300000
2330.534719	1856.800000
2332.094734	1873.300000
2333.654455	1836.400000
2335.212226	1846.600000
2336.769702	1845.000000
2338.326884	1850.800000
2339.882118	1855.200000
2341.437059	1847.700000
2342.991705	1833.600000
2344.546058	1847.800000
2346.100118	1844.200000
2347.653883	1808.200000
2349.205704	1800.600000
2350.755583	1790.100000
2352.308469	1795.300000
2353.856112	1773.300000
2355.406764	1832.700000
2356.953824	1774.800000
2358.502242	1813.400000
2360.050369	1825.600000
2361.594907	1825.100000
2363.140803	1819.800000
2364.684761	1838.000000
2366.230076	1815.000000
2367.771806	1810.800000
2369.314893	1833.600000
2370.856044	1814.800000
2372.396906	1799.200000
2373.937479	1842.700000
2375.477763	1766.100000
2377.017758	1830.700000
2378.554175	1795.600000
2380.093593	1825.600000
2381.629433	1810.600000
2383.166631	1781.300000
2384.700253	1803.500000
2386.236875	1784.200000
2387.771567	1829.100000
2389.304329	1808.900000
2390.836804	1788.700000
2392.367351	1787.800000
2393.900896	1812.900000
2395.429230	1826.600000
2396.958921	1800.200000
2398.488325	1804.700000
2400.017445	1842.500000
2401.546280	1842.500000
2403.069909	1858.200000
2404.598174	1868.700000
2406.121237	1867.000000
2407.648933	1873.800000
2409.169790	1890.300000
2410.695280	1913.000000
2412.217209	1892.700000
2413.740494	1882.800000
2415.261857	1889.900000
2416.781301	1848.000000
2418.302100	1863.900000
2419.820981	1860.100000
2421.339579	1848.800000
2422.856260	1813.100000
2424.374295	1814.500000
2425.892049	1798.600000
2427.406252	1788.400000
2428.920174	1767.400000
2430.433816	1835.600000
2431.948813	1808.900000
2433.460261	1799.500000
2434.973064	1777.400000
2436.483953	1786.500000
2437.994564	1767.700000
2439.503263	1795.300000
2441.014948	1777.300000
2442.523090	1771.000000
2444.030954	1797.100000
2445.538540	1784.100000
2447.042585	1798.400000
2448.549615	1807.300000
2450.054737	1816.800000
2451.559582	1833.700000
2453.062520	1802.500000
2454.565182	1849.000000
2456.067567	1865.300000
2457.568047	1830.600000
2459.069880	1842.700000
2460.569808	1826.100000
2462.069461	1811.600000
2463.568839	1849.400000
2465.066314	1866.200000
2466.561887	1835.300000
2468.060440	1834.100000
2469.555465	1846.400000
2471.051842	1847.100000
2472.544693	1843.500000
2474.038897	1849.700000
2475.532827	1831.500000
2477.023233	1808.300000
2478.516617	1831.400000
2480.008103	1861.900000
2481.497692	1829.200000
2482.987009	1849.200000
2484.474430	1838.300000
2485.964827	1870.300000
2487.451706	1825.400000
2488.939936	1779.500000
2490.424649	1810.100000
2491.909093	1739.200000
2493.394887	1778.400000
2494.878790	1732.300000
2496.364043	1725.700000
2497.844163	1731.400000
2499.327256	1758.100000
2500.808458	1765.800000
2502.289391	1745.200000
2503.768435	1743.300000
2505.247210	1816.200000
2506.725717	1786.800000
2508.203956	1782.200000
2509.681926	1785.100000
2511.156391	1758.700000
2512.633826	1771.500000
2514.107757	1757.300000
2515.583038	1786.100000
2517.058052	1758.800000
2518.529565	1785.000000
2520.002429	1749.000000
2521.473410	1746.500000
2522.945741	1794.000000
2524.412958	1762.500000
2525.883142	1748.500000
2527.351445	1750.900000
2528.819483	1780.500000
2530.287256	1796.100000
2531.754764	1742.200000
2533.222007	1792.400000
2534.685758	1772.000000
2536.150859	1755.100000
2537.614083	1814.200000
2539.078656	1766.900000
2540.539741	1756.100000
2542.002175	1801.200000
2543.464346	1826.700000
2544.923031	1783.600000
2546.386287	1783.400000
2547.844448	1805.500000
2549.303957	1804.900000
2550.758372	1800.200000
2552.217358	1785.700000
2553.674472	1773.800000
2555.129715	1749.600000
2556.584696	1768.400000
2558.037809	1766.200000
2559.492270	1765.000000
2560.944861	1773.800000
2562.397193	1725.100000
2563.847658	1777.700000
2565.301078	1751.800000
2566.749416	1756.100000
2568.200709	1775.000000
2569.650137	1785.200000
2571.096092	1819.800000
2572.545002	1775.400000
2573.990442	1817.300000
2575.437229	1828.600000
2576.882154	1812.200000
2578.326820	1838.800000
2579.772834	1788.500000
2581.215382	1802.300000
2582.659277	1848.300000
2584.099707	1837.600000
2585.541484	1823.000000
2586.981402	1799.400000
2588.422667	1804.000000
2589.860470	1787.000000
2591.301223	1813.900000
2592.736914	1816.200000
2594.175554	1787.800000
2595.612336	1801.700000
2597.047263	1815.500000
2598.485137	1778.200000
2599.917954	1808.000000
2601.352118	1768.800000
2602.784428	1815.600000
2604.218084	1762.400000
2605.649887	1774.400000
2607.081436	1786.200000
2608.512733	1812.100000
2609.942177	1837.900000
2611.371369	1809.600000
2612.798711	1803.500000
2614.227398	1826.600000
2615.655834	1803.900000
2617.080822	1831.000000
2618.507157	1812.700000
2619.931643	1848.900000
2621.357475	1843.600000
2622.779863	1835.600000
2624.203597	1868.600000
2625.625484	1831.900000
2627.047122	1857.200000
2628.466914	1811.000000
2629.888052	1843.800000
2631.308940	1819.800000
2632.726390	1816.300000
2634.146779	1859.900000
2635.563731	1804.200000
2636.980434	1873.100000
2638.396889	1832.200000
2639.813096	1871.600000
2641.229055	1845.900000
2642.643173	1846.300000
2644.057043	1862.200000
2645.469075	1831.000000
2646.882450	1831.500000
2648.292396	1851.000000
2649.705278	1808.900000
2651.114731	1839.300000
2652.523938	1856.000000
2653.931309	1853.400000
2655.341614	1819.300000
2656.750084	1825.400000
2658.156718	1832.000000
2659.563107	1829.700000
2660.967662	1822.100000
2662.373561	1869.900000
2663.777627	1873.900000
2665.181448	1866.000000
2666.585025	1840.800000
2667.986771	1867.300000
2669.389860	1911.300000
2670.789531	1885.500000
2672.190546	1856.400000
2673.588145	1859.800000
2674.988674	1878.200000
2676.385787	1914.000000
2677.784244	1878.400000
2679.180874	1868.500000
2680.577261	1922.300000
2681.973406	1865.100000
2683.367725	1867.200000
2684.763387	1867.400000
2686.155640	1850.400000
2687.549235	1873.100000
2688.941006	1886.600000
2690.334120	1816.900000
2691.725410	1834.900000
2693.114877	1828.200000
2694.504104	1743.400000
2695.893092	1789.200000
2697.283421	1799.100000
2698.668767	1767.700000
2700.057036	1785.300000
2701.443485	1756.800000
2702.829695	1762.100000
2704.215666	1733.400000
2705.598239	1742.500000
2706.982154	1753.900000
2708.365831	1758.800000
2709.749269	1799.600000
2711.129313	1757.300000
2712.510697	1768.200000
2713.890267	1771.900000
2715.271177	1760.000000
2716.650273	1759.500000
2718.027555	1787.600000
2719.406178	1772.600000
2720.782988	1790.000000
2722.159561	1766.800000
2723.535899	1774.500000
2724.910426	1784.100000
2726.286293	1801.200000
2727.658773	1763.100000
2729.034169	1778.800000
2730.404605	1768.900000
2731.776382	1752.600000
2733.147924	1762.200000
2734.517658	1724.200000
2735.888733	1734.500000
2737.257999	1715.500000
2738.627032	1715.400000
2739.994259	1704.600000
2741.361252	1679.400000
2742.728013	1680.100000
2744.094542	1674.100000
2745.459265	1677.000000
2746.823756	1707.700000
2748.188016	1641.600000
2749.552043	1681.600000
2750.915839	1664.400000
2752.276261	1641.200000
2753.639593	1630.800000
2754.997983	1680.700000
2756.359283	1678.500000
2757.717213	1662.600000
2759.078051	1675.400000
2760.437090	1627.300000
2761.792760	1669.800000
2763.151338	1640.200000
2764.506549	1657.400000
2765.861531	1631.300000
2767.214717	1686.400000
2768.570809	1671.000000
2769.923536	1670.800000
2771.276036	1686.100000
2772.628307	1676.800000
2773.981916	1672.100000
2775.332165	1654.700000
2776.680619	1688.200000
2778.031979	1648.600000
2779.379979	1660.800000
2780.729317	1656.400000
2782.076863	1672.200000
2783.424183	1664.500000
2784.771276	1665.100000
2786.116578	1647.200000
2787.461653	1645.000000
2788.806503	1673.000000
2790.151127	1639.400000
2791.492399	1617.300000
2792.835009	1668.400000
2794.177393	1633.400000
2795.519552	1662.500000
2796.858362	1628.100000
2798.200072	1635.400000
2799.538434	1640.600000
2800.878132	1658.100000
2802.216046	1652.700000
2803.552175	1658.900000
2804.888080	1637.300000
2806.225323	1698.200000
2807.560782	1665.200000
2808.896018	1689.700000
2810.229471	1682.700000
2811.564261	1663.600000
2812.895711	1690.800000
2814.230056	1683.100000
2815.559503	1645.700000
2816.890287	1643.300000
2818.220849	1615.600000
2819.549632	1622.800000
2820.879751	1596.800000
2822.208092	1595.800000
2823.536212	1609.900000
2824.862554	1630.000000
2826.190233	1595.000000
2827.514578	1588.000000
2828.840260	1583.600000
2830.164166	1603.000000
2831.487853	1597.600000
2832.812875	1599.100000
2834.134567	1609.300000
2835.456041	1585.300000
2836.777296	1574.600000
2838.098332	1585.200000
2839.417595	1609.000000
2840.738194	1640.400000
2842.057022	1613.400000
2843.375631	1617.200000
2844.692469	1599.400000
2846.009090	1603.900000
2847.325494	1644.400000
2848.640128	1599.700000
2849.956098	1644.600000
2851.268747	1652.800000
2852.582731	1652.800000
2853.896499	1627.400000
2855.210050	1640.100000
2856.521835	1632.500000
2857.831853	1612.500000
2859.143206	1633.600000
2860.451244	1598.100000
2861.760616	1626.900000
2863.069774	1626.800000
2864.378716	1657.900000
2865.685894	1644.400000
2866.991310	1659.700000
2868.298060	1655.800000
2869.603047	1670.800000
2870.907821	1627.300000
2872.210833	1617.600000
2873.516726	1662.300000
2874.817765	1614.900000
2876.120138	1649.500000
2877.420751	1622.700000
2878.722698	1675.000000
2880.024431	1643.200000
2881.322861	1630.000000
2882.622624	1599.600000
2883.920630	1622.200000
2885.218424	1629.700000
2886.514462	1644.000000
2887.811833	1647.900000
2889.107448	1624.900000
2890.402852	1620.000000
2891.698045	1612.700000
2892.989941	1641.600000
2894.284713	1625.400000
2895.576188	1639.100000
2896.868996	1602.000000
2898.161594	1624.000000
2899.450898	1616.100000
2900.741534	1602.400000
2902.030419	1619.200000
2903.320636	1595.600000
2904.607562	1587.000000
2905.895820	1631.600000
2907.182329	1630.600000
2908.468629	1619.300000
2909.754722	1674.000000
2911.039066	1610.600000
2912.326281	1645.900000
2913.608670	1647.700000
2914.892391	1657.300000
2916.174366	1639.100000
2917.456133	1727.900000
2918.736156	1686.600000
2920.019048	1671.900000
2921.300195	1638.300000
2922.578060	1668.100000
2923.858794	1639.600000
2925.136247	1634.900000
2926.413494	1644.400000
2927.688999	1652.100000
2928.967372	1651.400000
2930.240931	1623.500000
2931.517357	1642.500000
2932.792042	1670.500000
2934.064986	1661.000000
2935.339262	1655.500000
2936.611798	1658.100000
2937.884129	1650.700000
2939.153188	1638.800000
2940.425112	1614.900000
2941.695298	1621.300000
2942.965280	1608.400000
2944.235059	1561.400000
2945.503102	1539.300000
2946.769408	1553.900000
2948.035513	1554.100000
2949.302947	1552.600000
2950.568647	1562.400000
2951.834144	1524.100000
2953.099439	1510.100000
2954.361469	1494.300000
2955.624829	1529.800000
2956.887988	1511.100000
2958.149415	1515.400000
2959.412171	1547.200000
2960.673195	1535.600000
2961.932489	1496.500000
2963.191583	1503.500000
2964.450476	1519.400000
2965.709169	1485.000000
2966.967662	1520.100000
2968.224426	1533.900000
2969.480990	1522.800000
2970.735827	1510.500000
2971.991992	1536.700000
2973.244903	1541.500000
2974.499143	1523.300000
2975.753184	1564.600000
2977.005499	1555.700000
2978.257615	1547.000000
2979.508007	1529.600000
2980.761254	1542.600000
2982.009724	1548.700000
2983.261049	1554.800000
2984.509124	1527.800000
2985.757003	1535.600000
2987.004684	1514.400000
2988.252168	1538.200000
2989.497931	1527.900000
2990.743498	1530.600000
2991.990392	1546.000000
2993.234042	1518.600000
2994.479020	1530.000000
2995.720754	1518.200000
2996.965340	1564.000000
2998.208207	1532.300000
2999.447833	1572.000000
3000.690309	1567.200000
3001.929545	1560.400000
3003.170109	1553.800000
3004.408957	1593.600000
3005.647609	1508.400000
3006.884546	1546.800000
3008.122811	1512.600000
3009.359360	1593.900000
3010.595716	1567.300000
3011.831878	1554.000000
3013.066326	1565.400000
3014.300582	1575.800000
3015.534644	1560.500000
3016.766994	1569.900000
3017.997632	1558.900000
3019.231116	1574.200000
3020.462888	1542.200000
3021.692950	1552.400000
3022.922819	1538.100000
3024.150980	1558.000000
3025.380466	1524.000000
3026.608243	1564.800000
3027.835829	1503.100000
3029.064742	1543.500000
3030.288912	1546.100000
3031.515925	1528.800000
3032.739714	1522.500000
3033.964830	1551.400000
3035.188239	1502.300000
3036.411458	1488.300000
3037.632972	1517.800000
3038.857327	1483.400000
3040.076947	1497.400000
3041.297893	1503.100000
3042.518650	1470.600000
3043.737703	1478.100000
3044.958081	1451.000000
3046.175243	1444.700000
3047.393731	1446.400000
3048.610516	1449.300000
3049.827114	1502.600000
3051.043523	1458.000000
3052.256720	1461.700000
3053.472754	1462.100000
3054.685576	1449.600000
3055.901235	1446.100000
3057.112171	1443.800000
3058.324432	1430.700000
3059.536507	1412.700000
3060.748394	1421.300000
3061.958585	1410.400000
3063.168589	1410.000000
3064.378407	1435.300000
3065.586529	1428.700000
3066.794466	1369.800000
3068.000707	1408.300000
3069.208273	1381.700000
3070.414144	1397.950000
3071.619831	1414.200000
3072.825332	1402.900000
3074.029140	1393.400000
3075.234272	1370.300000
3076.437711	1412.400000
3077.639459	1400.600000
3078.841022	1405.700000
3080.042402	1370.900000
3081.243598	1402.300000
3082.443104	1411.400000
3083.642427	1379.600000
3084.843073	1408.500000
3086.042029	1404.900000
3087.237791	1389.500000
3088.436382	1411.600000
3089.631779	1446.300000
3090.828499	1418.500000
3092.022027	1407.700000
3093.218383	1444.300000
3094.413053	1459.200000
3095.604532	1439.900000
3096.800342	1440.900000
3097.991458	1424.200000
3099.183898	1401.000000
3100.373150	1464.200000
3101.565227	1441.300000
3102.755621	1407.800000
3103.942829	1422.800000
3105.131360	1431.500000
3106.321212	1430.700000
3107.507881	1400.400000
3108.694369	1406.100000
3109.880679	1421.800000
3111.068310	1394.400000
3112.252759	1423.600000
3113.435529	1380.500000
3114.621121	1416.000000
3115.805034	1385.600000
3116.987268	1414.700000
3118.169323	1389.700000
3119.351200	1418.700000
3120.532899	1440.300000
3121.712921	1415.700000
3122.891266	1419.200000
3124.072431	1433.300000
3125.250421	1389.500000
3126.428235	1402.200000
3127.605871	1386.100000
3128.781832	1394.700000
3129.957616	1403.800000
3131.134722	1393.500000
3132.310153	1423.700000
3133.483911	1400.300000
3134.655996	1410.000000
3135.829403	1400.000000
3137.002633	1438.200000
3138.174192	1398.400000
3139.347071	1404.100000
3140.516783	1428.500000
3141.687816	1408.800000
3142.857179	1444.900000
3144.024871	1431.300000
3145.195379	1449.000000
3146.361229	1422.800000
3147.531387	1431.500000
3148.696889	1443.300000
3149.862216	1395.700000
3151.027370	1429.800000
3152.192351	1406.900000
3153.358651	1376.000000
3154.520299	1397.300000
3155.683266	1383.200000
3156.846061	1394.300000
3158.008683	1347.600000
3159.169640	1342.400000
3160.330424	1364.500000
3161.491036	1336.800000
3162.649984	1313.900000
3163.808761	1340.100000
3164.967366	1319.900000
3166.125798	1305.200000
3167.284060	1340.000000
3168.440659	1321.900000
3169.595597	1294.200000
3170.751854	1273.300000
3171.906450	1279.900000
3173.060876	1284.900000
3174.213642	1313.500000
3175.366237	1282.600000
3176.518663	1247.700000
3177.670919	1275.500000
3178.823004	1257.500000
3179.971944	1252.800000
3181.123690	1283.700000
3182.273778	1245.600000
3183.422210	1262.500000
3184.570472	1258.100000
3185.718566	1265.800000
3186.866491	1292.900000
3188.012760	1258.500000
3189.158861	1272.900000
3190.303308	1270.300000
3191.447587	1282.800000
3192.591698	1275.900000
3193.737126	1251.300000
3194.879416	1243.600000
3196.021539	1260.800000
3197.163494	1277.600000
3198.305282	1228.400000
3199.446903	1238.800000
3200.585389	1231.400000
3201.725192	1245.400000
3202.866313	1261.100000
3204.004299	1245.100000
3205.140636	1235.800000
3206.276807	1243.200000
3207.414295	1254.800000
3208.550135	1256.500000
3209.687292	1245.500000
3210.819836	1269.400000
3211.956662	1244.500000
3213.088876	1257.000000
3214.222407	1291.000000
3215.355774	1274.400000
3216.486013	1253.000000
3217.619050	1253.800000
3218.748961	1221.500000
3219.880188	1242.600000
3221.008291	1268.800000
3222.139190	1253.700000
3223.268445	1286.700000
3224.396057	1246.800000
3225.520546	1293.700000
3226.649311	1290.000000
3227.774954	1273.400000
3228.900435	1281.900000
3230.024274	1278.300000
3231.150907	1281.300000
3232.272943	1311.200000
3233.396295	1273.900000
3234.519485	1269.000000
3235.642512	1277.800000
3236.763901	1242.700000
3237.885127	1243.100000
3239.004716	1268.100000
3240.124143	1251.700000
3241.241932	1257.900000
3242.362513	1280.800000
3243.479981	1250.400000
3244.597288	1255.600000
3245.714435	1251.900000
3246.829946	1273.800000
3247.946771	1247.000000
3249.060487	1231.200000
3250.176992	1265.100000
3251.291863	1270.500000
3252.403625	1254.300000
3253.515227	1248.400000
3254.628145	1254.200000
3255.740903	1239.500000
3256.850555	1246.400000
3257.961522	1232.000000
3259.072330	1275.400000
3260.181506	1245.800000
3261.289052	1278.700000
3262.397911	1217.700000
3263.506613	1251.400000
3264.612212	1197.200000
3265.719125	1238.300000
3266.824409	1255.900000
3267.931007	1249.800000
3269.034505	1230.900000
3270.139318	1208.600000
3271.243973	1215.800000
3272.345529	1206.100000
3273.446929	1220.300000
3274.549643	1212.400000
3275.652201	1198.900000
3276.751662	1206.800000
3277.853907	1206.900000
3278.953056	1191.600000
3280.050581	1200.600000
3281.147950	1226.900000
3282.248101	1187.800000
3283.345160	1197.000000
3284.442063	1185.200000
3285.538811	1147.000000
3286.631001	1190.100000
3287.727439	1184.500000
3288.822255	1150.500000
3289.916917	1161.100000
3291.009957	1137.500000
3292.102842	1156.700000
3293.194108	1142.600000
3294.286685	1111.800000
3295.377643	1171.200000
3296.466981	1160.700000
3297.556166	1160.900000
3298.646664	1133.900000
3299.734077	1160.600000
3300.821337	1174.800000
3301.909910	1144.900000
3302.998331	1156.600000
3304.082204	1164.800000
3305.170319	1179.900000
3306.255352	1189.800000
3307.338770	1167.500000
3308.423500	1148.900000
3309.506614	1177.100000
3310.591041	1184.100000
3311.672389	1185.400000
3312.755049	1195.300000
3313.836095	1162.500000
3314.916990	1147.000000
3315.996271	1169.700000
3317.075402	1171.500000
3318.155845	1173.000000
3319.233213	1179.900000
3320.311893	1176.400000
3321.388961	1161.700000
3322.465880	1205.400000
3323.541187	1216.900000
3324.616345	1186.600000
3325.692814	1192.400000
3326.766213	1186.700000
3327.839463	1192.600000
3328.914023	1187.100000
3329.986975	1178.600000
3331.058318	1177.600000
3332.130972	1160.400000
3333.200560	1142.600000
3334.271458	1182.800000
3335.340749	1125.600000
3336.411351	1168.400000
3337.480346	1174.700000
3338.547735	1165.000000
3339.613519	1154.300000
3340.683529	1145.400000
3341.750476	1124.300000
3342.814361	1124.000000
3343.881014	1123.400000
3344.946062	1125.100000
3346.009507	1165.600000
3347.072806	1129.900000
3348.135958	1151.600000
3349.198964	1139.200000
3350.261824	1146.100000
3351.323082	1153.400000
3352.381283	1143.600000
3353.443704	1121.900000
3354.503070	1132.700000
3355.562290	1135.100000
3356.622820	1099.700000
3357.678840	1130.600000
3358.737624	1156.300000
3359.791901	1162.600000
3360.848942	1132.600000
3361.904384	1166.000000
3362.961136	1148.600000
3364.016289	1156.900000
3365.069845	1127.200000
3366.121805	1147.700000
3367.176526	1134.700000
3368.228198	1131.200000
3369.279727	1157.100000
3370.332564	1152.300000
3371.382354	1134.600000
3372.433453	1122.800000
3373.481506	1151.900000
3374.532318	1121.000000
3375.580086	1117.500000
3376.627711	1125.200000
3377.675193	1141.800000
3378.721083	1133.700000
3379.768281	1099.500000
3380.812437	1116.100000
3381.859351	1104.300000
3382.904673	1129.900000
3383.946954	1116.700000
3384.989095	1138.500000
3386.032543	1155.100000
3387.075850	1123.100000
3388.117568	1120.900000
3389.159144	1118.300000
3390.200579	1142.100000
3391.240426	1148.400000
3392.278684	1106.500000
3393.318250	1142.400000
3394.357676	1146.700000
3395.395514	1147.900000
3396.431765	1130.900000
3397.467877	1140.600000
3398.505296	1121.400000
3399.539682	1139.100000
3400.575375	1110.700000
3401.610929	1148.600000
3402.643452	1128.000000
3403.678728	1132.100000
3404.710973	1118.900000
3405.743080	1101.000000
3406.773603	1135.500000
3407.805433	1137.000000
3408.837125	1096.900000
3409.865789	1116.000000
3410.894316	1081.500000
3411.924149	1075.200000
3412.953845	1086.300000
3413.980515	1094.300000
3415.008492	1082.300000
3416.033444	1101.100000
3417.061146	1078.200000
3418.085825	1072.600000
3419.111810	1077.000000
3420.136215	1066.100000
3421.160484	1047.200000
3422.183174	1062.200000
3423.205728	1076.800000
3424.229588	1058.400000
3425.250428	1033.200000
3426.271132	1045.200000
3427.293143	1062.600000
3428.312135	1021.000000
3429.330991	1017.500000
3430.351154	1048.100000
3431.368300	1034.000000
