-117.888313	-2.100000
-115.218713	-0.600000
-112.552048	0.000000
-109.886135	6.500000
-107.223154	28.200000
-104.558744	1.500000
-101.897264	5.000000
-99.234355	-24.100000
-96.576552	14.600000
-93.917320	18.000000
-91.258836	-8.100000
-88.603276	-3.900000
-85.946288	26.600000
-83.294398	-8.900000
-80.641078	8.100000
-77.990677	13.600000
-75.338847	31.300000
-72.692108	4.400000
-70.043940	15.800000
-67.396514	21.500000
-64.752002	13.200000
-62.106062	15.900000
-59.465203	14.700000
-56.822915	-2.400000
-54.183536	22.200000
-51.542727	-7.200000
-48.902659	21.000000
-46.267663	3.700000
-43.631239	15.300000
-40.997717	14.100000
-38.362767	4.500000
-35.732882	3.400000
-33.099405	-3.200000
-30.470990	27.900000
-27.843309	17.000000
-25.214199	24.600000
-22.590146	30.400000
-19.962504	43.200000
-17.339915	54.000000
-14.718058	85.900000
-12.096931	143.000000
-9.476534	386.600000
-6.859026	1273.000000
-4.240089	4025.300000
-1.624037	9115.600000
0.991286	10431.600000
3.605882	4956.500000
6.217595	578.900000
8.830737	102.800000
11.438845	62.300000
14.050535	36.300000
16.657194	9.100000
19.265281	29.600000
21.872644	27.300000
24.474982	14.700000
27.080898	-5.600000
29.681792	10.000000
32.284114	15.400000
34.881419	21.100000
37.482299	-2.600000
40.078164	9.000000
42.675458	-7.700000
45.272032	17.400000
47.863597	32.400000
50.456590	20.500000
53.046722	18.100000
55.638282	9.800000
58.226982	33.600000
60.817109	17.400000
63.402237	13.700000
65.988793	12.200000
68.574635	8.200000
71.157623	5.000000
73.742037	2.900000
76.319323	16.700000
78.900175	-8.200000
81.478178	12.000000
84.055471	15.000000
86.634190	9.300000
89.207927	4.700000
91.783092	24.700000
94.355413	9.400000
96.927026	7.400000
99.495799	14.600000
102.065999	32.400000
104.633361	7.200000
107.202148	-14.200000
109.768099	15.700000
112.331215	-0.800000
114.897887	8.900000
117.455338	39.300000
120.018474	15.900000
122.576650	57.800000
125.138381	54.400000
127.695155	100.500000
130.253356	140.900000
132.806603	221.500000
135.359153	271.400000
137.915253	407.300000
140.466405	502.900000
143.016860	594.300000
145.566617	673.900000
148.113555	719.500000
150.659798	740.500000
153.207466	805.100000
155.754438	797.500000
158.296475	755.200000
160.837818	763.400000
163.378468	793.200000
165.920544	765.500000
168.459808	796.400000
170.996264	740.500000
173.532028	761.200000
176.069218	724.500000
178.605717	774.300000
181.139410	736.300000
183.670299	736.000000
186.200501	750.900000
188.732127	749.100000
191.260952	733.100000
193.786978	739.600000
196.312318	740.400000
198.839083	746.500000
201.363052	744.200000
203.886336	732.400000
206.408935	722.800000
208.928741	715.400000
211.447864	737.000000
213.966304	744.700000
216.486168	721.300000
218.999031	753.500000
221.515425	729.300000
224.031137	719.000000
226.541959	714.900000
229.054206	744.500000
231.563671	727.100000
234.072457	759.600000
236.580564	740.500000
239.090096	722.100000
241.594747	757.600000
244.098722	760.200000
246.604121	742.700000
249.104645	768.700000
251.608693	747.100000
254.105769	786.600000
256.606369	783.800000
259.104197	787.400000
261.601352	752.300000
264.097834	749.800000
266.589453	777.800000
269.084592	785.300000
271.576964	780.700000
274.068666	797.100000
276.557605	793.600000
279.047968	807.300000
281.535568	804.400000
284.020409	792.200000
286.508765	796.100000
288.990181	817.900000
291.475111	804.600000
293.955196	797.200000
296.438793	787.400000
298.917547	830.700000
301.397725	823.400000
303.875150	848.900000
306.351912	841.700000
308.828011	887.100000
311.301361	886.700000
313.774049	925.900000
316.246076	951.500000
318.717442	1090.400000
321.186063	1158.200000
323.654026	1151.200000
326.123410	1074.500000
328.587972	967.700000
331.056038	946.300000
333.519284	907.600000
335.981872	881.300000
338.443804	908.400000
340.905079	874.800000
343.363620	923.300000
345.823583	878.800000
348.280813	883.100000
350.737389	865.300000
353.193311	925.500000
355.646503	903.000000
358.101118	897.900000
360.550931	897.000000
363.004240	898.500000
365.452751	874.400000
367.900610	868.000000
370.349892	856.000000
372.794380	874.300000
375.240290	855.900000
377.685550	879.500000
380.128092	853.500000
382.569986	892.900000
385.011233	870.900000
387.449764	887.100000
389.889717	870.200000
392.326956	903.900000
394.761483	862.600000
397.199498	889.600000
399.632736	850.800000
402.067395	868.300000
404.497282	876.000000
406.930654	891.700000
409.359256	875.100000
411.787216	907.400000
414.216598	891.700000
416.641214	906.900000
419.067252	889.300000
421.492649	893.000000
423.917406	897.700000
426.337405	895.300000
428.758825	891.700000
431.177548	903.700000
433.597692	884.000000
436.015141	930.200000
438.434010	885.000000
440.850186	894.600000
443.261614	875.100000
445.676520	888.200000
448.088735	900.900000
450.500316	888.200000
452.911263	882.900000
455.319524	905.300000
457.727152	880.200000
460.134148	860.100000
462.540513	868.400000
464.944195	880.000000
467.347247	850.600000
469.749669	845.600000
472.151461	822.500000
474.550576	837.300000
476.951110	855.400000
479.351015	848.400000
481.746197	844.300000
484.144846	859.000000
486.538775	847.700000
488.932078	854.900000
491.324755	847.700000
493.716807	818.600000
496.110277	800.300000
498.499035	741.400000
500.885127	736.700000
503.272639	702.500000
505.659528	649.900000
508.043753	618.000000
510.429396	606.400000
512.812378	605.000000
515.192699	591.100000
517.574439	576.200000
519.953520	546.500000
522.334020	524.000000
524.711862	525.500000
527.087049	510.700000
529.461618	503.000000
531.837605	486.700000
534.210940	470.800000
536.585692	485.400000
538.955759	491.900000
541.325210	526.400000
543.696079	465.300000
546.062268	481.500000
548.429875	484.000000
550.794836	467.100000
553.159184	471.700000
555.522919	448.800000
557.888072	452.900000
560.248553	489.500000
562.610452	473.100000
564.969710	438.500000
567.326331	438.900000
569.686396	429.800000
572.039770	440.500000
574.396589	440.500000
576.750773	410.300000
579.104349	445.400000
581.457316	440.000000
583.807651	441.600000
586.159404	434.100000
588.504480	441.800000
590.855020	420.600000
593.198886	440.800000
595.548214	422.700000
597.892893	439.000000
600.234948	416.400000
602.578420	433.200000
604.919269	432.600000
607.259516	410.000000
609.597142	403.200000
611.938203	435.000000
614.274626	385.700000
616.612466	397.200000
618.947689	400.600000
621.280296	384.900000
623.614319	388.200000
625.945728	381.400000
628.276539	352.900000
630.606753	418.700000
632.936368	362.700000
635.261360	365.900000
637.591794	386.500000
639.917607	374.600000
642.240812	356.800000
644.565434	372.100000
646.887450	395.500000
649.208872	368.200000
651.527692	353.000000
653.847927	343.500000
656.167569	352.600000
658.484610	369.400000
660.801059	356.400000
663.114910	362.200000
665.430177	337.300000
667.742847	346.200000
670.056932	335.000000
672.366417	354.800000
674.677318	350.800000
676.985626	356.800000
679.293346	358.800000
681.602480	335.100000
683.907022	322.100000
686.210978	333.400000
688.514348	338.000000
690.819132	324.900000
693.119330	327.900000
695.420942	318.400000
697.721970	323.500000
700.018415	321.800000
702.316276	329.500000
704.613553	313.000000
706.910247	324.400000
709.202365	321.000000
711.497894	324.700000
713.788849	287.800000
716.081219	302.300000
718.371014	308.600000
720.660228	310.200000
722.948863	305.500000
725.234925	322.000000
727.522402	320.200000
729.807307	332.800000
732.091635	333.900000
734.373394	335.100000
736.656567	318.600000
738.939163	302.500000
741.217203	320.400000
743.496658	340.300000
745.775536	343.200000
748.053840	312.600000
750.327594	344.900000
752.602761	341.900000
754.877355	339.300000
757.149390	341.600000
759.422838	359.100000
761.693728	340.300000
763.962062	330.200000
766.231809	330.100000
768.499002	343.100000
770.765624	342.000000
773.031676	353.600000
775.295177	343.400000
777.560091	362.400000
779.824435	358.500000
782.084250	376.500000
784.345477	367.700000
786.606137	384.200000
788.864251	357.600000
791.119820	372.500000
793.378780	370.100000
795.631241	378.100000
797.889068	356.600000
800.142377	346.600000
802.393146	359.100000
804.645327	358.900000
806.894969	342.900000
809.146024	350.400000
811.392567	349.000000
813.640522	339.200000
815.885943	352.200000
818.132775	329.800000
820.379046	321.800000
822.620812	325.300000
824.865962	310.300000
827.104639	313.000000
829.346698	311.900000
831.584259	334.700000
833.823232	314.100000
836.059678	351.700000
838.297535	317.100000
840.532867	316.200000
842.765676	311.100000
844.999896	315.900000
847.231593	313.500000
849.462736	301.700000
851.693324	305.600000
853.923358	298.700000
856.152838	293.700000
858.377836	301.300000
860.606209	304.300000
862.830102	333.900000
865.055407	268.800000
867.276236	297.000000
869.500437	282.800000
871.720165	312.300000
873.941303	312.500000
876.161891	287.800000
878.379970	316.800000
880.599458	317.200000
882.814480	287.500000
885.028955	320.200000
887.242881	305.000000
889.456261	330.700000
891.669093	303.000000
893.881379	318.800000
896.091162	324.900000
898.300400	318.600000
900.509093	316.700000
902.715287	321.600000
904.922890	322.200000
907.127995	311.100000
909.332557	315.200000
911.534624	292.800000
913.738100	279.500000
915.939082	316.100000
918.139522	306.300000
920.341371	304.100000
922.536829	278.500000
924.735646	319.400000
926.930024	285.500000
929.127760	298.500000
931.321060	300.500000
933.515769	337.000000
935.707992	301.600000
937.899676	310.200000
940.090823	309.200000
942.279487	329.600000
944.467615	309.200000
946.653262	319.400000
948.842261	324.700000
951.026837	349.100000
953.210878	344.600000
955.398269	324.000000
957.577356	333.600000
959.759794	343.800000
961.941698	369.600000
964.121127	392.100000
966.298084	384.500000
968.476449	374.800000
970.656221	371.800000
972.829644	381.700000
975.006413	377.400000
977.178775	392.400000
979.352545	384.700000
981.521911	408.500000
983.694621	414.100000
985.864866	430.700000
988.034582	395.600000
990.203769	425.200000
992.368559	435.000000
994.536690	440.400000
996.700427	430.300000
998.865570	469.100000
1001.028254	453.200000
1003.190413	449.500000
1005.350115	467.700000
1007.509292	453.000000
1009.669876	454.000000
1011.828006	462.500000
1013.985611	467.100000
1016.142693	486.400000
1018.299251	465.100000
1020.451430	485.600000
1022.605016	487.000000
1024.758080	486.200000
1026.908695	493.800000
1029.060717	526.100000
1031.208365	493.700000
1033.359345	525.400000
1035.505954	513.700000
1037.652044	501.900000
1039.797616	528.100000
1041.944593	544.600000
1044.085281	552.100000
1046.229299	521.700000
1048.370876	528.800000
1050.511937	527.200000
1052.654402	544.600000
1054.790588	542.800000
1056.930099	541.300000
1059.065256	537.800000
1061.203737	556.700000
1063.337864	564.200000
1065.471478	540.800000
1067.606497	535.100000
1069.737166	531.600000
1071.869240	533.500000
1073.998885	525.200000
1076.128018	543.100000
1078.256639	503.100000
1080.384749	525.000000
1082.510433	504.000000
1084.635607	511.400000
1086.762185	494.700000
1088.884425	502.700000
1091.008070	484.800000
1093.127380	466.200000
1095.251920	458.000000
1097.370214	469.700000
1099.489913	461.500000
1101.607193	474.200000
1103.723967	445.100000
1105.840234	450.600000
1107.954085	446.900000
1110.069341	461.300000
1112.180273	431.600000
1114.294518	434.600000
1116.404442	443.200000
1118.515770	407.300000
1120.626593	403.300000
1122.733100	410.700000
1124.842917	436.000000
1126.948419	422.800000
1129.055324	413.700000
1131.156014	416.900000
1133.261916	416.900000
1135.363509	407.900000
1137.466505	406.200000
1139.569000	405.300000
1141.665288	402.100000
1143.766784	398.700000
1145.863976	388.500000
1147.960671	406.000000
1150.056867	382.000000
1152.152566	386.100000
1154.247766	397.900000
1156.340570	392.800000
1158.434777	398.800000
1160.522792	385.500000
1162.616005	410.900000
1164.703030	389.700000
1166.793354	391.100000
1168.879391	389.900000
1170.968725	398.100000
1173.051878	402.500000
1175.136433	377.200000
1177.222390	395.500000
1179.304065	364.500000
1181.387142	384.400000
1183.467833	381.500000
1185.548032	385.600000
1187.627740	368.200000
1189.706957	387.300000
1191.783792	370.200000
1193.858246	371.500000
1195.935991	368.100000
1198.009467	379.800000
1200.084343	380.300000
1202.154952	403.600000
1204.226962	376.100000
1206.296597	393.200000
1208.367632	353.900000
1210.438179	365.100000
1212.504465	373.200000
1214.572152	388.000000
1216.637467	372.600000
1218.704182	370.000000
1220.766641	348.100000
1222.832385	402.600000
1224.893875	373.400000
1226.956766	368.600000
1229.017289	365.600000
1231.077328	360.500000
1233.136885	370.400000
1235.194076	369.600000
1237.250786	375.800000
1239.305132	386.100000
1241.362760	388.000000
1243.418025	400.400000
1245.469049	360.000000
1247.521473	374.300000
1249.573417	365.900000
1251.623003	380.100000
1253.672110	393.300000
1255.720739	376.800000
1257.768889	373.000000
1259.816560	386.100000
1261.860001	408.100000
1263.906718	403.000000
1265.951081	385.500000
1267.994968	419.200000
1270.036503	390.400000
1272.075689	383.100000
1274.118148	405.400000
1276.156384	398.100000
1278.196019	408.400000
1280.235179	416.000000
1282.270120	408.700000
1284.306460	429.700000
1286.340456	433.000000
1288.375849	437.800000
1290.407030	414.700000
1292.439608	463.300000
1294.471715	459.100000
1296.501481	476.100000
1298.532645	495.600000
1300.559601	490.300000
1302.587955	503.300000
1304.612104	540.600000
1306.639519	523.900000
1308.662731	531.800000
1310.687341	574.600000
1312.709617	598.900000
1314.733290	590.400000
1316.754630	628.200000
1318.775502	639.600000
1320.795907	683.100000
1322.812119	672.500000
1324.829728	737.600000
1326.845009	763.000000
1328.863549	775.700000
1330.877900	763.200000
1332.889925	820.300000
1334.905207	813.800000
1336.916304	833.900000
1338.928798	831.500000
1340.937109	833.400000
1342.948675	833.500000
1344.954203	810.600000
1346.962986	797.000000
1348.967591	782.400000
1350.975450	752.000000
1352.982847	717.100000
1354.984213	697.800000
1356.986975	680.000000
1358.989278	662.000000
1360.991121	629.000000
1362.992504	612.500000
1364.991574	609.300000
1366.990185	546.300000
1368.988338	538.600000
1370.986032	534.700000
1372.979564	522.400000
1374.974491	503.400000
1376.968962	495.900000
1378.962976	472.300000
1380.954683	463.900000
1382.945935	447.400000
1384.934881	446.800000
1386.925222	444.800000
1388.915108	450.900000
1390.902690	445.200000
1392.889819	439.700000
1394.874646	395.000000
1396.860868	405.900000
1398.844790	405.000000
1400.828259	418.400000
1402.811275	400.900000
1404.791994	376.200000
1406.774107	388.900000
1408.753924	400.500000
1410.733289	385.300000
1412.708516	410.700000
1414.686981	355.000000
1416.663153	405.500000
1418.638876	379.400000
1420.614149	388.000000
1422.587131	376.300000
1424.559665	405.300000
1426.531751	389.100000
1428.503390	371.300000
1430.470900	377.500000
1432.443484	385.900000
1434.408262	387.000000
1436.378113	407.900000
1438.343840	352.300000
1440.310959	368.300000
1442.275795	378.500000
1444.236511	368.000000
1446.202295	349.800000
1448.162124	368.800000
1450.123347	378.700000
1452.085962	356.600000
1454.044462	350.300000
1456.002519	357.200000
1457.960135	364.500000
1459.917308	389.600000
1461.872206	367.500000
1463.828497	353.800000
1465.782513	346.600000
1467.736088	363.300000
1469.687391	374.700000
1471.640087	353.800000
1473.590510	358.800000
1475.540495	370.800000
1477.490041	362.300000
1479.437318	367.800000
1481.382327	372.000000
1483.328729	384.900000
1485.274693	341.400000
1487.220220	375.500000
1489.163481	354.700000
1491.106307	380.100000
1493.046869	354.500000
1494.988822	383.800000
1496.928513	367.500000
1498.867770	372.700000
1500.806591	365.100000
1502.743153	387.900000
1504.681106	365.700000
1506.616800	391.500000
1508.552061	377.200000
1510.485066	396.800000
1512.417638	388.100000
1514.349778	418.000000
1516.281486	382.900000
1518.210940	404.900000
1520.141785	396.700000
1522.072198	417.200000
1523.998539	425.600000
1525.926271	400.400000
1527.851752	420.200000
1529.776804	442.500000
1531.701427	447.200000
1533.625621	447.300000
1535.547567	453.400000
1537.470904	460.900000
1539.391994	491.200000
1541.310840	507.800000
1543.231076	500.100000
1545.149069	516.200000
1547.066635	529.400000
1548.981959	549.600000
1550.898673	547.300000
1552.811332	580.300000
1554.727195	609.000000
1556.640818	641.200000
1558.552203	642.900000
1560.464978	668.000000
1562.373703	659.100000
1564.283817	685.900000
1566.193508	683.500000
1568.102776	729.500000
1570.009810	718.000000
1571.914611	721.100000
1573.820801	703.200000
1575.724759	728.100000
1577.628296	703.700000
1579.531413	704.700000
1581.432300	681.300000
1583.334576	653.400000
1585.234624	628.400000
1587.136059	643.000000
1589.033461	605.400000
1590.930444	597.100000
1592.827009	590.100000
1594.724962	582.700000
1596.617080	552.400000
1598.512391	573.700000
1600.407285	577.800000
1602.299957	592.800000
1604.192212	573.300000
1606.082248	544.800000
1607.971868	544.700000
1609.861073	514.200000
1611.749863	486.500000
1613.636435	484.600000
1615.524395	473.700000
1617.408338	456.300000
1619.293668	441.000000
1621.178585	446.500000
1623.061288	406.000000
1624.945378	412.500000
1626.825456	369.100000
1628.706922	395.100000
1630.586177	378.200000
1632.466818	368.500000
1634.341655	362.700000
1636.221473	364.700000
1638.097287	347.700000
1639.972690	338.600000
1641.849479	327.100000
1643.720472	352.800000
1645.594646	331.600000
1647.464821	345.200000
1649.338178	315.500000
1651.209331	316.900000
1653.078282	339.100000
1654.948618	323.900000
1656.814962	297.100000
1658.682691	307.000000
1660.548221	314.800000
1662.415137	289.400000
1664.278064	305.700000
1666.142376	298.500000
1668.004492	301.200000
1669.866203	310.500000
1671.729300	283.500000
1673.590201	297.400000
1675.448910	280.200000
1677.307215	303.500000
1679.166905	278.400000
1681.020827	286.900000
1682.877923	282.000000
1684.734616	280.700000
1686.587332	278.000000
1688.443220	285.100000
1690.295134	280.300000
1692.146647	285.700000
1693.997759	282.700000
1695.848471	262.200000
1697.698782	293.200000
1699.546908	293.900000
1701.396419	268.300000
1703.240181	281.900000
1705.088892	268.900000
1706.931857	298.900000
1708.777989	273.200000
1710.620158	287.400000
1712.465493	269.400000
1714.305087	269.600000
1716.146065	261.700000
1717.988426	291.800000
1719.826831	289.600000
1721.666619	280.700000
1723.504232	271.300000
1725.341449	272.900000
1727.176493	276.700000
1729.012920	292.100000
1730.847175	273.800000
1732.681035	291.100000
1734.514501	256.200000
1736.344022	288.700000
1738.176701	264.300000
1740.005436	268.400000
1741.837328	284.100000
1743.665278	264.300000
1745.492837	268.400000
1747.320003	297.200000
1749.146778	257.100000
1750.973161	292.100000
1752.795608	275.700000
1754.621210	273.200000
1756.442877	261.500000
1758.265926	261.600000
1760.086813	277.800000
1761.907312	316.400000
1763.729191	240.500000
1765.545372	267.700000
1767.364704	258.400000
1769.180109	257.000000
1770.998664	262.500000
1772.813294	283.600000
1774.627537	262.900000
1776.441394	264.500000
1778.254864	249.200000
1780.066181	261.400000
1781.878878	261.000000
1783.691190	274.800000
1785.499584	260.400000
1787.309358	259.700000
1789.115218	257.800000
1790.924223	269.100000
1792.729315	244.300000
1794.535788	256.100000
1796.341877	272.600000
1798.144055	276.300000
1799.949378	250.200000
1801.750792	243.700000
1803.553586	257.900000
1805.352474	239.900000
1807.152743	250.400000
1808.952630	263.300000
1810.750375	242.000000
1812.547740	258.400000
1814.344725	247.700000
1816.141329	280.800000
1817.935794	264.400000
1819.731638	263.300000
1821.521827	240.700000
1823.316913	275.000000
1825.106347	264.000000
1826.898917	247.700000
1828.689352	250.800000
1830.477653	260.500000
1832.269089	260.600000
1834.054879	261.300000
1835.842049	269.900000
1837.627087	271.200000
1839.415259	267.900000
1841.199545	259.700000
1842.981701	261.000000
1844.765237	265.900000
1846.546644	241.700000
1848.329430	269.000000
1850.108335	251.700000
1851.888620	265.600000
1853.666778	247.000000
1855.446315	258.800000
1857.223727	266.000000
1858.999015	258.000000
1860.775681	250.100000
1862.550225	274.000000
1864.326147	273.100000
1866.096448	281.400000
1867.869877	275.400000
1869.641186	269.900000
1871.412124	241.900000
1873.184440	255.700000
1874.951142	249.200000
1876.720970	260.800000
1878.486934	252.400000
1880.256021	269.600000
1882.021247	261.200000
1883.786105	273.400000
1885.552340	264.200000
1887.314716	241.400000
1889.076725	245.400000
1890.838366	263.700000
1892.599641	246.200000
1894.360548	260.300000
1896.121089	258.200000
1897.879520	234.200000
1899.637585	247.700000
1901.393543	254.600000
1903.150877	246.900000
1904.907846	259.500000
1906.662708	255.800000
1908.415466	248.200000
1910.167859	238.500000
1911.921629	270.100000
1913.673295	244.700000
1915.422859	262.500000
1917.173798	234.500000
1918.924375	260.400000
1920.671112	256.200000
1922.419226	263.400000
1924.165240	254.600000
1925.912629	277.400000
1927.657921	252.000000
1929.401115	263.900000
1931.145684	239.800000
1932.888158	251.300000
1934.630271	250.100000
1936.372024	238.200000
1938.113417	239.800000
1939.852717	252.800000
1941.591658	256.100000
1943.330240	252.600000
1945.066731	267.800000
1946.802864	256.700000
1948.540371	245.600000
1950.274056	287.500000
1952.009116	255.500000
1953.742087	270.000000
1955.474702	272.000000
1957.206961	276.700000
1958.938863	253.900000
1960.668679	254.300000
1962.396410	242.400000
1964.125516	283.800000
1965.854267	258.200000
1967.580934	249.500000
1969.307247	283.400000
1971.034933	266.900000
1972.757083	252.800000
1974.482334	257.400000
1976.203778	263.700000
1977.928323	269.500000
1979.650787	257.500000
1981.369449	261.600000
1983.091209	272.200000
1984.809167	257.000000
1986.528498	253.600000
1988.244030	254.100000
1989.964382	259.600000
1991.680936	272.600000
1993.393693	271.100000
1995.109546	258.800000
1996.823327	269.500000
1998.536758	280.900000
2000.248118	264.700000
2001.960850	283.300000
2003.669792	270.700000
2005.381826	269.300000
2007.088352	276.400000
2008.797969	278.100000
2010.505520	254.300000
2012.212722	286.200000
2013.917859	277.400000
2015.622650	275.700000
2017.328812	250.700000
2019.031192	273.100000
2020.734943	250.500000
2022.436632	266.300000
2024.137976	260.200000
2025.838974	272.100000
2027.537911	269.800000
2029.238220	279.000000
2030.934754	257.800000
2032.632659	268.800000
2034.328505	267.900000
2036.027437	287.400000
2037.720883	267.100000
2039.415700	266.800000
2041.110175	269.200000
2042.800881	274.200000
2044.494671	263.100000
2046.184694	275.400000
2047.876088	270.200000
2049.565429	267.800000
2051.256140	255.700000
2052.943088	264.000000
2054.629697	258.100000
2056.317675	275.700000
2058.001894	229.800000
2059.687484	271.200000
2061.372734	254.100000
2063.055935	268.200000
2064.740507	265.300000
2066.419616	261.600000
2068.103510	283.100000
2069.781943	268.800000
2071.463454	261.900000
2073.141213	250.800000
2074.818636	261.500000
2076.497428	269.700000
2078.174178	256.000000
2079.848886	283.500000
2081.524963	266.100000
2083.199000	264.800000
2084.872701	269.800000
2086.546067	278.700000
2088.217394	265.300000
2089.888387	256.000000
2091.559046	248.700000
2093.229371	242.800000
2094.899362	241.600000
2096.567317	246.700000
2098.234939	250.600000
2099.900526	279.200000
2101.567482	254.300000
2103.232405	277.700000
2104.896996	257.700000
2106.559555	253.500000
2108.223482	256.500000
2109.885378	269.100000
2111.546944	279.900000
2113.208178	267.200000
2114.867384	250.600000
2116.526259	266.000000
2118.184805	253.600000
2119.843020	287.800000
2121.497513	255.700000
2123.155070	269.600000
2124.812298	267.500000
2126.465804	252.400000
2128.120678	263.000000
2129.771833	273.500000
2131.426051	268.800000
2133.076552	300.400000
2134.728419	251.800000
2136.374878	287.600000
2138.026092	268.400000
2139.673592	286.700000
2141.322459	239.900000
2142.969307	268.600000
2144.615830	250.800000
2146.262027	275.000000
2147.904516	269.400000
2149.550063	278.900000
2151.191903	266.300000
2152.836800	285.300000
2154.477991	253.800000
2156.118860	258.000000
2157.759404	254.700000
2159.397936	272.800000
2161.037834	266.700000
2162.674032	286.700000
2164.311596	256.200000
2165.948838	267.200000
2167.584070	272.200000
2169.218981	261.200000
2170.853569	270.500000
2172.487837	294.800000
2174.118411	261.000000
2175.752037	268.500000
2177.381971	261.100000
2179.013270	259.400000
2180.642564	245.300000
2182.271539	278.700000
2183.900194	257.200000
2185.528530	264.900000
2187.154864	257.700000
2188.780879	270.300000
2190.404892	244.100000
2192.030271	270.700000
2193.653649	256.400000
2195.278392	281.200000
2196.899454	241.900000
2198.520199	258.600000
2200.142309	256.600000
2201.762421	270.100000
2203.380536	280.100000
2204.998336	264.000000
2206.615821	266.900000
2208.232990	276.400000
2209.849844	274.000000
2211.466382	257.000000
2213.080928	260.100000
2214.693481	279.600000
2216.307398	283.400000
2217.919324	270.600000
2219.532613	251.800000
2221.143912	251.600000
2222.753221	259.200000
2224.363894	242.700000
2225.972578	255.200000
2227.580949	271.400000
2229.187334	252.700000
2230.795082	287.300000
2232.400843	253.200000
2234.006293	271.400000
2235.609758	249.000000
2237.214586	255.800000
2238.817430	260.500000
2240.418291	250.800000
2242.020515	246.000000
2243.620757	300.100000
2245.222361	245.800000
2246.820312	259.500000
2248.419626	268.700000
2250.016960	274.200000
2251.613986	253.600000
2253.212374	261.700000
2254.807113	253.600000
2256.399875	266.600000
2257.994000	274.800000
2259.589486	271.700000
2261.181327	267.000000
2262.772862	267.000000
2264.365759	257.400000
2265.953346	266.900000
2267.545629	266.400000
2269.132606	287.300000
2270.722610	274.300000
2272.307310	263.200000
2273.896704	252.500000
2275.480796	234.400000
2277.066248	256.800000
2278.649732	251.200000
2280.236241	243.000000
2281.819117	277.300000
2283.401690	265.400000
2284.983959	289.800000
2286.562598	240.700000
2288.144262	244.600000
2289.722297	257.200000
2291.303355	269.400000
2292.880786	268.250000
2294.456254	267.100000
2296.034744	269.600000
2297.609610	248.400000
2299.184175	273.700000
2300.758440	245.100000
2302.332404	252.000000
2303.906067	251.100000
2305.479431	244.800000
2307.049176	245.000000
2308.618622	249.600000
2310.191086	261.500000
2311.758276	253.400000
2313.328484	263.700000
2314.895077	259.000000
2316.463030	254.900000
2318.029027	252.600000
2319.594727	239.400000
2321.160129	263.000000
2322.723578	268.200000
2324.288386	271.800000
2325.849586	298.100000
2327.413800	337.100000
2328.972752	319.500000
2330.534719	323.600000
2332.094734	267.900000
2333.654455	275.400000
2335.212226	243.300000
2336.769702	267.400000
2338.326884	290.000000
2339.882118	240.100000
2341.437059	270.200000
2342.991705	263.900000
2344.546058	273.900000
2346.100118	252.400000
2347.653883	268.900000
2349.205704	256.100000
2350.755583	269.100000
2352.308469	255.100000
2353.856112	260.200000
2355.406764	257.300000
2356.953824	255.200000
2358.502242	278.400000
2360.050369	273.100000
2361.594907	251.300000
2363.140803	268.100000
2364.684761	267.300000
2366.230076	254.400000
2367.771806	245.500000
2369.314893	263.300000
2370.856044	250.300000
2372.396906	269.800000
2373.937479	255.400000
2375.477763	259.200000
2377.017758	247.900000
2378.554175	271.000000
2380.093593	254.400000
2381.629433	279.200000
2383.166631	242.400000
2384.700253	280.100000
2386.236875	256.600000
2387.771567	254.300000
2389.304329	257.400000
2390.836804	270.300000
2392.367351	258.800000
2393.900896	273.400000
2395.429230	264.700000
2396.958921	279.900000
2398.488325	259.000000
2400.017445	247.100000
2401.546280	260.200000
2403.069909	250.200000
2404.598174	257.700000
2406.121237	284.500000
2407.648933	268.500000
2409.169790	270.300000
2410.695280	284.300000
2412.217209	277.000000
2413.740494	278.000000
2415.261857	258.300000
2416.781301	275.800000
2418.302100	270.700000
2419.820981	288.200000
2421.339579	269.100000
2422.856260	284.300000
2424.374295	293.300000
2425.892049	276.700000
2427.406252	279.200000
2428.920174	248.600000
2430.433816	289.500000
2431.948813	276.000000
2433.460261	281.600000
2434.973064	290.500000
2436.483953	275.600000
2437.994564	288.800000
2439.503263	289.300000
2441.014948	273.900000
2442.523090	272.800000
2444.030954	263.200000
2445.538540	266.300000
2447.042585	254.100000
2448.549615	267.800000
2450.054737	259.400000
2451.559582	297.300000
2453.062520	259.100000
2454.565182	273.300000
2456.067567	256.200000
2457.568047	281.500000
2459.069880	266.000000
2460.569808	269.900000
2462.069461	279.300000
2463.568839	273.400000
2465.066314	272.000000
2466.561887	266.200000
2468.060440	261.400000
2469.555465	278.400000
2471.051842	293.400000
2472.544693	254.600000
2474.038897	271.700000
2475.532827	297.000000
2477.023233	263.100000
2478.516617	262.200000
2480.008103	269.500000
2481.497692	288.400000
2482.987009	244.100000
2484.474430	264.000000
2485.964827	265.500000
2487.451706	255.300000
2488.939936	274.900000
2490.424649	266.600000
2491.909093	265.500000
2493.394887	275.300000
2494.878790	261.600000
2496.364043	273.400000
2497.844163	276.300000
2499.327256	263.100000
2500.808458	255.200000
2502.289391	272.000000
2503.768435	266.400000
2505.247210	258.000000
2506.725717	251.700000
2508.203956	274.200000
2509.681926	256.100000
2511.156391	254.500000
2512.633826	269.900000
2514.107757	277.100000
2515.583038	269.500000
2517.058052	259.300000
2518.529565	252.500000
2520.002429	274.400000
2521.473410	260.300000
2522.945741	259.100000
2524.412958	278.200000
2525.883142	278.600000
2527.351445	269.200000
2528.819483	288.900000
2530.287256	246.200000
2531.754764	260.700000
2533.222007	256.600000
2534.685758	283.700000
2536.150859	270.300000
2537.614083	287.200000
2539.078656	265.100000
2540.539741	290.200000
2542.002175	275.500000
2543.464346	271.800000
2544.923031	274.300000
2546.386287	288.600000
2547.844448	277.400000
2549.303957	268.000000
2550.758372	281.800000
2552.217358	284.500000
2553.674472	288.800000
2555.129715	272.800000
2556.584696	272.200000
2558.037809	259.100000
2559.492270	253.100000
2560.944861	281.300000
2562.397193	268.400000
2563.847658	269.700000
2565.301078	266.700000
2566.749416	284.100000
2568.200709	285.600000
2569.650137	299.400000
2571.096092	277.200000
2572.545002	283.300000
2573.990442	284.100000
2575.437229	283.100000
2576.882154	275.700000
2578.326820	270.700000
2579.772834	278.600000
2581.215382	290.100000
2582.659277	281.000000
2584.099707	266.900000
2585.541484	280.600000
2586.981402	288.800000
2588.422667	274.300000
2589.860470	271.900000
2591.301223	261.300000
2592.736914	284.700000
2594.175554	284.500000
2595.612336	291.800000
2597.047263	266.800000
2598.485137	298.500000
2599.917954	257.900000
2601.352118	279.100000
2602.784428	303.100000
2604.218084	316.100000
2605.649887	286.300000
2607.081436	288.700000
2608.512733	275.800000
2609.942177	287.800000
2611.371369	298.100000
2612.798711	292.600000
2614.227398	283.100000
2615.655834	281.700000
2617.080822	283.300000
2618.507157	308.400000
2619.931643	264.200000
2621.357475	329.900000
2622.779863	301.500000
2624.203597	311.400000
2625.625484	298.200000
2627.047122	307.100000
2628.466914	300.100000
2629.888052	314.600000
2631.308940	304.500000
2632.726390	311.100000
2634.146779	302.800000
2635.563731	330.400000
2636.980434	330.200000
2638.396889	318.000000
2639.813096	311.900000
2641.229055	330.300000
2642.643173	316.200000
2644.057043	325.200000
2645.469075	325.500000
2646.882450	336.200000
2648.292396	323.100000
2649.705278	338.100000
2651.114731	326.300000
2652.523938	355.000000
2653.931309	330.100000
2655.341614	331.200000
2656.750084	333.700000
2658.156718	362.000000
2659.563107	345.300000
2660.967662	346.800000
2662.373561	325.200000
2663.777627	335.600000
2665.181448	355.800000
2666.585025	357.500000
2667.986771	366.900000
2669.389860	394.400000
2670.789531	360.700000
2672.190546	361.100000
2673.588145	357.600000
2674.988674	343.700000
2676.385787	367.200000
2677.784244	355.000000
2679.180874	366.100000
2680.577261	342.000000
2681.973406	350.700000
2683.367725	346.100000
2684.763387	369.000000
2686.155640	357.700000
2687.549235	340.700000
2688.941006	354.300000
2690.334120	333.700000
2691.725410	346.300000
2693.114877	370.200000
2694.504104	331.300000
2695.893092	330.600000
2697.283421	332.500000
2698.668767	339.500000
2700.057036	338.800000
2701.443485	321.800000
2702.829695	321.400000
2704.215666	310.600000
2705.598239	329.000000
2706.982154	325.900000
2708.365831	306.000000
2709.749269	324.000000
2711.129313	290.600000
2712.510697	300.500000
2713.890267	300.800000
2715.271177	297.200000
2716.650273	306.000000
2718.027555	296.400000
2719.406178	318.500000
2720.782988	288.200000
2722.159561	297.200000
2723.535899	297.900000
2724.910426	295.200000
2726.286293	290.100000
2727.658773	308.500000
2729.034169	284.600000
2730.404605	285.200000
2731.776382	284.700000
2733.147924	287.700000
2734.517658	274.200000
2735.888733	287.600000
2737.257999	250.900000
2738.627032	285.600000
2739.994259	254.400000
2741.361252	278.100000
2742.728013	264.300000
2744.094542	273.200000
2745.459265	275.800000
2746.823756	287.700000
2748.188016	279.200000
2749.552043	273.900000
2750.915839	268.400000
2752.276261	281.800000
2753.639593	265.600000
2754.997983	280.200000
2756.359283	255.700000
2757.717213	279.000000
2759.078051	256.400000
2760.437090	270.900000
2761.792760	264.800000
2763.151338	255.700000
2764.506549	230.800000
2765.861531	263.900000
2767.214717	246.200000
2768.570809	240.600000
2769.923536	232.000000
2771.276036	252.600000
2772.628307	264.300000
2773.981916	240.400000
2775.332165	242.500000
2776.680619	255.800000
2778.031979	253.600000
2779.379979	251.100000
2780.729317	260.300000
2782.076863	285.800000
2783.424183	240.300000
2784.771276	251.000000
2786.116578	230.500000
2787.461653	251.800000
2788.806503	239.800000
2790.151127	250.600000
2791.492399	244.400000
2792.835009	245.900000
2794.177393	257.500000
2795.519552	242.500000
2796.858362	248.300000
2798.200072	254.000000
2799.538434	253.300000
2800.878132	265.200000
2802.216046	228.700000
2803.552175	244.600000
2804.888080	246.100000
2806.225323	267.500000
2807.560782	248.600000
2808.896018	248.600000
2810.229471	264.500000
2811.564261	239.200000
2812.895711	244.800000
2814.230056	247.300000
2815.559503	270.300000
2816.890287	248.300000
2818.220849	241.200000
2819.549632	235.900000
2820.879751	261.000000
2822.208092	248.100000
2823.536212	250.100000
2824.862554	244.900000
2826.190233	237.200000
2827.514578	249.100000
2828.840260	247.200000
2830.164166	252.700000
2831.487853	233.500000
2832.812875	261.300000
2834.134567	254.100000
2835.456041	243.000000
2836.777296	244.400000
2838.098332	253.100000
2839.417595	240.400000
2840.738194	263.400000
2842.057022	253.400000
2843.375631	234.600000
2844.692469	248.500000
2846.009090	274.900000
2847.325494	233.500000
2848.640128	246.200000
2849.956098	269.100000
2851.268747	260.100000
2852.582731	246.200000
2853.896499	237.100000
2855.210050	227.100000
2856.521835	272.000000
2857.831853	245.100000
2859.143206	255.500000
2860.451244	247.200000
2861.760616	253.300000
2863.069774	246.200000
2864.378716	264.500000
2865.685894	247.900000
2866.991310	254.200000
2868.298060	244.800000
2869.603047	251.000000
2870.907821	267.500000
2872.210833	236.000000
2873.516726	229.100000
2874.817765	261.300000
2876.120138	241.500000
2877.420751	267.900000
2878.722698	241.400000
2880.024431	242.000000
2881.322861	245.200000
2882.622624	271.800000
2883.920630	229.800000
2885.218424	279.200000
2886.514462	277.400000
2887.811833	251.200000
2889.107448	242.000000
2890.402852	254.800000
2891.698045	253.700000
2892.989941	244.300000
2894.284713	245.200000
2895.576188	249.600000
2896.868996	246.100000
2898.161594	263.500000
2899.450898	246.700000
2900.741534	261.200000
2902.030419	249.700000
2903.320636	254.200000
2904.607562	237.100000
2905.895820	253.800000
2907.182329	247.300000
2908.468629	250.900000
2909.754722	240.100000
2911.039066	269.000000
2912.326281	242.600000
2913.608670	267.200000
2914.892391	239.000000
2916.174366	257.000000
2917.456133	229.600000
2918.736156	265.400000
2920.019048	247.300000
2921.300195	260.300000
2922.578060	236.200000
2923.858794	246.900000
2925.136247	240.200000
2926.413494	256.300000
2927.688999	247.100000
2928.967372	246.100000
2930.240931	252.800000
2931.517357	243.900000
2932.792042	239.300000
2934.064986	251.900000
2935.339262	230.500000
2936.611798	230.000000
2937.884129	245.900000
2939.153188	266.500000
2940.425112	248.100000
2941.695298	243.100000
2942.965280	229.800000
2944.235059	230.000000
2945.503102	244.200000
2946.769408	249.000000
2948.035513	231.500000
2949.302947	244.300000
2950.568647	239.200000
2951.834144	235.000000
2953.099439	243.500000
2954.361469	212.100000
2955.624829	207.600000
2956.887988	234.700000
2958.149415	221.900000
2959.412171	231.600000
2960.673195	209.400000
2961.932489	228.100000
2963.191583	227.800000
2964.450476	236.700000
2965.709169	225.800000
2966.967662	228.600000
2968.224426	207.100000
2969.480990	208.400000
2970.735827	237.100000
2971.991992	232.900000
2973.244903	211.300000
2974.499143	233.000000
2975.753184	228.300000
2977.005499	213.700000
2978.257615	230.200000
2979.508007	253.500000
2980.761254	233.000000
2982.009724	224.100000
2983.261049	212.800000
2984.509124	218.600000
2985.757003	211.400000
2987.004684	240.400000
2988.252168	182.300000
2989.497931	223.800000
2990.743498	218.600000
2991.990392	227.700000
2993.234042	217.700000
2994.479020	189.000000
2995.720754	210.000000
2996.965340	221.600000
2998.208207	209.900000
2999.447833	215.200000
3000.690309	207.100000
3001.929545	226.100000
3003.170109	238.800000
3004.408957	231.000000
3005.647609	220.400000
3006.884546	232.600000
3008.122811	211.900000
3009.359360	221.500000
3010.595716	218.100000
3011.831878	237.600000
3013.066326	215.300000
3014.300582	218.800000
3015.534644	226.700000
3016.766994	192.000000
3017.997632	220.200000
3019.231116	229.600000
3020.462888	213.900000
3021.692950	215.200000
3022.922819	219.100000
3024.150980	222.100000
3025.380466	202.100000
3026.608243	225.400000
3027.835829	231.300000
3029.064742	219.600000
3030.288912	192.600000
3031.515925	219.900000
3032.739714	201.500000
3033.964830	207.600000
3035.188239	201.300000
3036.411458	219.700000
3037.632972	201.700000
3038.857327	209.100000
3040.076947	235.600000
3041.297893	202.700000
3042.518650	220.500000
3043.737703	191.500000
3044.958081	190.200000
3046.175243	235.900000
3047.393731	223.300000
3048.610516	209.400000
3049.827114	219.300000
3051.043523	222.800000
3052.256720	195.700000
3053.472754	219.900000
3054.685576	201.400000
3055.901235	217.700000
3057.112171	205.600000
3058.324432	215.200000
3059.536507	203.100000
3060.748394	218.000000
3061.958585	210.200000
3063.168589	210.400000
3064.378407	211.500000
3065.586529	227.600000
3066.794466	217.100000
3068.000707	209.800000
3069.208273	205.800000
3070.414144	199.250000
3071.619831	192.700000
3072.825332	209.000000
3074.029140	190.200000
3075.234272	222.800000
3076.437711	212.600000
3077.639459	217.100000
3078.841022	207.500000
3080.042402	194.600000
3081.243598	172.800000
3082.443104	224.600000
3083.642427	208.100000
3084.843073	219.800000
3086.042029	210.600000
3087.237791	234.000000
3088.436382	199.000000
3089.631779	204.500000
3090.828499	199.700000
3092.022027	210.600000
3093.218383	188.700000
3094.413053	185.100000
3095.604532	187.400000
3096.800342	194.200000
3097.991458	210.300000
3099.183898	202.200000
3100.373150	212.100000
3101.565227	221.300000
3102.755621	204.600000
3103.942829	223.500000
3105.131360	201.500000
3106.321212	215.200000
3107.507881	209.500000
3108.694369	216.700000
3109.880679	194.100000
3111.068310	211.400000
3112.252759	218.600000
3113.435529	211.500000
3114.621121	197.800000
3115.805034	221.900000
3116.987268	184.100000
3118.169323	211.800000
3119.351200	196.800000
3120.532899	210.800000
3121.712921	181.000000
3122.891266	221.500000
3124.072431	203.400000
3125.250421	192.000000
3126.428235	205.900000
3127.605871	203.600000
3128.781832	198.200000
3129.957616	220.000000
3131.134722	192.600000
3132.310153	191.000000
3133.483911	196.000000
3134.655996	199.800000
3135.829403	208.100000
3137.002633	196.900000
3138.174192	179.300000
3139.347071	209.000000
3140.516783	174.200000
3141.687816	212.100000
3142.857179	197.000000
3144.024871	207.000000
3145.195379	208.500000
3146.361229	199.100000
3147.531387	178.400000
3148.696889	212.900000
3149.862216	174.800000
3151.027370	206.800000
3152.192351	198.800000
3153.358651	178.600000
3154.520299	177.800000
3155.683266	207.300000
3156.846061	186.800000
3158.008683	181.600000
3159.169640	188.800000
3160.330424	205.600000
3161.491036	175.100000
3162.649984	189.500000
3163.808761	187.500000
3164.967366	203.900000
3166.125798	190.300000
3167.284060	200.600000
3168.440659	182.200000
3169.595597	206.400000
3170.751854	175.800000
3171.906450	189.900000
3173.060876	176.000000
3174.213642	209.600000
3175.366237	187.900000
3176.518663	187.400000
3177.670919	190.700000
3178.823004	177.600000
3179.971944	179.400000
3181.123690	181.300000
3182.273778	190.800000
3183.422210	210.800000
3184.570472	191.700000
3185.718566	196.400000
3186.866491	176.700000
3188.012760	183.300000
3189.158861	197.300000
3190.303308	199.800000
3191.447587	194.200000
3192.591698	185.900000
3193.737126	178.500000
3194.879416	204.100000
3196.021539	200.600000
3197.163494	187.100000
3198.305282	169.000000
3199.446903	206.200000
3200.585389	193.400000
3201.725192	176.000000
3202.866313	172.100000
3204.004299	196.100000
3205.140636	187.000000
3206.276807	179.400000
3207.414295	185.200000
3208.550135	202.000000
3209.687292	175.800000
3210.819836	199.000000
3211.956662	184.100000
3213.088876	184.000000
3214.222407	180.900000
3215.355774	184.300000
3216.486013	188.500000
3217.619050	172.800000
3218.748961	200.300000
3219.880188	199.900000
3221.008291	167.700000
3222.139190	193.200000
3223.268445	165.500000
3224.396057	190.600000
3225.520546	175.100000
3226.649311	170.200000
3227.774954	174.100000
3228.900435	189.700000
3230.024274	192.000000
3231.150907	175.100000
3232.272943	190.900000
3233.396295	166.000000
3234.519485	180.800000
3235.642512	185.600000
3236.763901	176.700000
3237.885127	180.200000
3239.004716	198.500000
3240.124143	185.400000
3241.241932	173.700000
3242.362513	179.300000
3243.479981	185.200000
3244.597288	167.200000
3245.714435	178.100000
3246.829946	183.300000
3247.946771	168.200000
3249.060487	177.500000
3250.176992	167.300000
3251.291863	183.100000
3252.403625	159.100000
3253.515227	182.000000
3254.628145	192.800000
3255.740903	182.000000
3256.850555	192.400000
3257.961522	171.400000
3259.072330	204.700000
3260.181506	182.100000
3261.289052	169.100000
3262.397911	168.600000
3263.506613	173.500000
3264.612212	165.900000
3265.719125	184.300000
3266.824409	191.600000
3267.931007	151.800000
3269.034505	181.300000
3270.139318	152.600000
3271.243973	189.700000
3272.345529	174.000000
3273.446929	183.000000
3274.549643	167.000000
3275.652201	185.300000
3276.751662	200.800000
3277.853907	182.300000
3278.953056	172.900000
3280.050581	167.300000
3281.147950	170.800000
3282.248101	182.000000
3283.345160	158.500000
3284.442063	190.900000
3285.538811	186.500000
3286.631001	183.700000
3287.727439	161.600000
3288.822255	175.000000
3289.916917	181.900000
3291.009957	190.300000
3292.102842	161.500000
3293.194108	180.000000
3294.286685	170.000000
3295.377643	191.300000
3296.466981	166.300000
3297.556166	180.600000
3298.646664	165.500000
3299.734077	177.300000
3300.821337	197.000000
3301.909910	168.500000
3302.998331	180.200000
3304.082204	191.500000
3305.170319	160.700000
3306.255352	172.700000
3307.338770	169.800000
3308.423500	191.100000
3309.506614	167.900000
3310.591041	169.200000
3311.672389	153.700000
3312.755049	179.500000
3313.836095	154.600000
3314.916990	172.500000
3315.996271	151.300000
3317.075402	194.900000
3318.155845	192.500000
3319.233213	184.600000
3320.311893	175.100000
3321.388961	160.400000
3322.465880	169.800000
3323.541187	185.600000
3324.616345	166.000000
3325.692814	171.200000
3326.766213	154.100000
3327.839463	184.700000
3328.914023	172.400000
3329.986975	178.700000
3331.058318	167.300000
3332.130972	177.200000
3333.200560	174.000000
3334.271458	170.600000
3335.340749	147.000000
3336.411351	169.000000
3337.480346	161.600000
3338.547735	172.400000
3339.613519	167.600000
3340.683529	176.700000
3341.750476	165.200000
3342.814361	176.700000
3343.881014	167.000000
3344.946062	156.300000
3346.009507	168.400000
3347.072806	163.300000
3348.135958	166.800000
3349.198964	192.600000
3350.261824	165.300000
3351.323082	158.700000
3352.381283	149.200000
3353.443704	180.000000
3354.503070	170.800000
3355.562290	165.200000
3356.622820	164.100000
3357.678840	173.700000
3358.737624	166.800000
3359.791901	180.600000
3360.848942	164.600000
3361.904384	164.200000
3362.961136	152.600000
3364.016289	171.700000
3365.069845	161.600000
3366.121805	174.100000
3367.176526	157.700000
3368.228198	168.900000
3369.279727	167.300000
3370.332564	161.100000
3371.382354	160.700000
3372.433453	190.400000
3373.481506	164.600000
3374.532318	144.300000
3375.580086	155.400000
3376.627711	169.700000
3377.675193	161.100000
3378.721083	166.800000
3379.768281	151.900000
3380.812437	155.700000
3381.859351	177.400000
3382.904673	177.300000
3383.946954	153.900000
3384.989095	167.800000
3386.032543	165.000000
3387.075850	148.100000
3388.117568	161.000000
3389.159144	173.500000
3390.200579	152.600000
3391.240426	156.100000
3392.278684	160.400000
3393.318250	174.200000
3394.357676	173.800000
3395.395514	148.300000
3396.431765	167.700000
3397.467877	160.800000
3398.505296	145.600000
3399.539682	163.100000
3400.575375	165.000000
3401.610929	174.400000
3402.643452	172.600000
3403.678728	146.400000
3404.710973	161.000000
3405.743080	162.400000
3406.773603	171.600000
3407.805433	169.200000
3408.837125	164.300000
3409.865789	186.600000
3410.894316	162.800000
3411.924149	186.100000
3412.953845	170.500000
3413.980515	160.900000
3415.008492	163.100000
3416.033444	175.800000
3417.061146	177.300000
3418.085825	177.100000
3419.111810	162.500000
3420.136215	159.800000
3421.160484	142.300000
3422.183174	163.000000
3423.205728	139.600000
3424.229588	158.000000
3425.250428	159.700000
3426.271132	141.800000
3427.293143	163.200000
3428.312135	151.800000
3429.330991	153.800000
3430.351154	173.800000
3431.368300	149.700000
