-117.888313	502.000000
-115.218713	546.900000
-112.552048	499.700000
-109.886135	536.800000
-107.223154	546.300000
-104.558744	517.200000
-101.897264	543.000000
-99.234355	528.300000
-96.576552	529.000000
-93.917320	544.500000
-91.258836	519.100000
-88.603276	538.300000
-85.946288	533.700000
-83.294398	538.200000
-80.641078	540.500000
-77.990677	557.700000
-75.338847	529.800000
-72.692108	568.400000
-70.043940	541.300000
-67.396514	545.800000
-64.752002	566.100000
-62.106062	565.800000
-59.465203	566.000000
-56.822915	567.800000
-54.183536	562.400000
-51.542727	583.800000
-48.902659	559.500000
-46.267663	553.700000
-43.631239	592.700000
-40.997717	585.200000
-38.362767	582.300000
-35.732882	583.900000
-33.099405	615.100000
-30.470990	610.700000
-27.843309	611.700000
-25.214199	605.500000
-22.590146	617.700000
-19.962504	680.400000
-17.339915	675.300000
-14.718058	738.300000
-12.096931	799.700000
-9.476534	1027.400000
-6.859026	1917.200000
-4.240089	4582.500000
-1.624037	10475.700000
0.991286	10970.300000
3.605882	5055.500000
6.217595	1168.000000
8.830737	770.000000
11.438845	728.700000
14.050535	706.200000
16.657194	709.300000
19.265281	746.700000
21.872644	749.200000
24.474982	772.200000
27.080898	721.400000
29.681792	762.100000
32.284114	760.400000
34.881419	758.300000
37.482299	789.100000
40.078164	789.100000
42.675458	795.600000
45.272032	804.800000
47.863597	829.300000
50.456590	834.600000
53.046722	868.000000
55.638282	844.600000
58.226982	862.700000
60.817109	911.900000
63.402237	934.700000
65.988793	937.000000
68.574635	922.400000
71.157623	984.300000
73.742037	984.900000
76.319323	979.100000
78.900175	1021.000000
81.478178	1040.800000
84.055471	1034.700000
86.634190	1068.600000
89.207927	1152.400000
91.783092	1119.400000
94.355413	1175.000000
96.927026	1264.200000
99.495799	1331.700000
102.065999	1399.000000
104.633361	1447.600000
107.202148	1645.100000
109.768099	1861.200000
112.331215	2143.600000
114.897887	2524.500000
117.455338	3111.600000
120.018474	4049.100000
122.576650	5511.600000
125.138381	7708.500000
127.695155	10509.300000
130.253356	12517.600000
132.806603	13025.000000
135.359153	13119.800000
137.915253	13191.200000
140.466405	13340.100000
143.016860	13406.900000
145.566617	13437.700000
148.113555	13477.600000
150.659798	13496.000000
153.207466	13559.000000
155.754438	13557.400000
158.296475	13490.700000
160.837818	13472.600000
163.378468	13529.500000
165.920544	13505.900000
168.459808	13504.800000
170.996264	13519.900000
173.532028	13512.100000
176.069218	13490.900000
178.605717	13502.100000
181.139410	13513.500000
183.670299	13475.900000
186.200501	13496.300000
188.732127	13474.100000
191.260952	13487.100000
193.786978	13465.700000
196.312318	13484.900000
198.839083	13466.000000
201.363052	13486.500000
203.886336	13477.000000
206.408935	13472.700000
208.928741	13475.800000
211.447864	13463.400000
213.966304	13488.400000
216.486168	13489.400000
218.999031	13479.000000
221.515425	13491.400000
224.031137	13476.300000
226.541959	13480.600000
229.054206	13491.700000
231.563671	13493.900000
234.072457	13502.300000
236.580564	13522.600000
239.090096	13521.700000
241.594747	13512.800000
244.098722	13497.500000
246.604121	13517.000000
249.104645	13502.700000
251.608693	13516.800000
254.105769	13517.600000
256.606369	13525.000000
259.104197	13506.600000
261.601352	13546.100000
264.097834	13557.600000
266.589453	13551.600000
269.084592	13563.600000
271.576964	13543.800000
274.068666	13542.900000
276.557605	13534.400000
279.047968	13555.800000
281.535568	13530.000000
284.020409	13562.400000
286.508765	13554.800000
288.990181	13538.400000
291.475111	13570.900000
293.955196	13539.700000
296.438793	13573.100000
298.917547	13552.000000
301.397725	13563.700000
303.875150	13566.000000
306.351912	13580.100000
308.828011	13619.900000
311.301361	13605.900000
313.774049	13640.100000
316.246076	13701.900000
318.717442	13794.500000
321.186063	13836.600000
323.654026	13818.600000
326.123410	13728.200000
328.587972	13703.600000
331.056038	13655.200000
333.519284	13625.900000
335.981872	13624.300000
338.443804	13616.100000
340.905079	13605.200000
343.363620	13590.300000
345.823583	13629.900000
348.280813	13620.800000
350.737389	13641.900000
353.193311	13605.200000
355.646503	13589.000000
358.101118	13630.200000
360.550931	13587.500000
363.004240	13600.500000
365.452751	13631.300000
367.900610	13617.500000
370.349892	13610.600000
372.794380	13612.700000
375.240290	13620.100000
377.685550	13607.600000
380.128092	13606.300000
382.569986	13574.500000
385.011233	13592.600000
387.449764	13617.200000
389.889717	13607.900000
392.326956	13610.400000
394.761483	13612.300000
397.199498	13627.300000
399.632736	13608.400000
402.067395	13588.500000
404.497282	13596.400000
406.930654	13603.000000
409.359256	13635.400000
411.787216	13624.600000
414.216598	13598.700000
416.641214	13627.400000
419.067252	13591.100000
421.492649	13633.500000
423.917406	13639.500000
426.337405	13625.900000
428.758825	13633.800000
431.177548	13621.700000
433.597692	13625.400000
436.015141	13627.500000
438.434010	13607.600000
440.850186	13624.600000
443.261614	13646.000000
445.676520	13610.900000
448.088735	13613.500000
450.500316	13634.900000
452.911263	13620.000000
455.319524	13618.900000
457.727152	13609.300000
460.134148	13606.900000
462.540513	13586.700000
464.944195	13568.900000
467.347247	13586.900000
469.749669	13563.900000
472.151461	13598.900000
474.550576	13566.300000
476.951110	13566.100000
479.351015	13580.500000
481.746197	13558.900000
484.144846	13584.700000
486.538775	13588.100000
488.932078	13578.400000
491.324755	13575.100000
493.716807	13563.100000
496.110277	13536.500000
498.499035	13500.600000
500.885127	13484.100000
503.272639	13451.000000
505.659528	13448.700000
508.043753	13419.500000
510.429396	13399.400000
512.812378	13390.200000
515.192699	13368.400000
517.574439	13323.700000
519.953520	13368.400000
522.334020	13359.300000
524.711862	13334.200000
527.087049	13329.300000
529.461618	13317.400000
531.837605	13315.900000
534.210940	13307.200000
536.585692	13318.300000
538.955759	13297.800000
541.325210	13291.600000
543.696079	13310.800000
546.062268	13307.300000
548.429875	13286.700000
550.794836	13287.400000
553.159184	13279.200000
555.522919	13273.600000
557.888072	13281.300000
560.248553	13279.500000
562.610452	13287.600000
564.969710	13275.400000
567.326331	13272.500000
569.686396	13251.000000
572.039770	13259.600000
574.396589	13264.800000
576.750773	13246.300000
579.104349	13280.000000
581.457316	13251.300000
583.807651	13245.800000
586.159404	13244.900000
588.504480	13259.200000
590.855020	13249.700000
593.198886	13265.900000
595.548214	13268.900000
597.892893	13253.000000
600.234948	13226.700000
602.578420	13275.700000
604.919269	13260.500000
607.259516	13238.400000
609.597142	13239.900000
611.938203	13229.200000
614.274626	13264.600000
616.612466	13229.200000
618.947689	13217.000000
621.280296	13221.700000
623.614319	13237.000000
625.945728	13225.600000
628.276539	13217.700000
630.606753	13217.700000
632.936368	13204.700000
635.261360	13189.400000
637.591794	13221.300000
639.917607	13199.800000
642.240812	13205.500000
644.565434	13221.100000
646.887450	13197.500000
649.208872	13196.400000
651.527692	13200.800000
653.847927	13181.300000
656.167569	13210.300000
658.484610	13195.000000
660.801059	13169.400000
663.114910	13197.200000
665.430177	13173.200000
667.742847	13191.400000
670.056932	13181.000000
672.366417	13191.800000
674.677318	13198.200000
676.985626	13194.100000
679.293346	13175.200000
681.602480	13175.600000
683.907022	13168.500000
686.210978	13165.400000
688.514348	13182.000000
690.819132	13180.600000
693.119330	13186.100000
695.420942	13184.900000
697.721970	13161.100000
700.018415	13147.600000
702.316276	13181.700000
704.613553	13150.300000
706.910247	13154.900000
709.202365	13168.500000
711.497894	13164.500000
713.788849	13172.600000
716.081219	13170.400000
718.371014	13185.100000
720.660228	13190.600000
722.948863	13174.100000
725.234925	13175.800000
727.522402	13155.800000
729.807307	13192.200000
732.091635	13177.100000
734.373394	13199.600000
736.656567	13191.500000
738.939163	13184.800000
741.217203	13189.600000
743.496658	13179.300000
745.775536	13175.000000
748.053840	13199.300000
750.327594	13185.000000
752.602761	13184.200000
754.877355	13184.500000
757.149390	13194.500000
759.422838	13194.500000
761.693728	13199.000000
763.962062	13202.000000
766.231809	13194.700000
768.499002	13178.900000
770.765624	13187.400000
773.031676	13201.000000
775.295177	13237.900000
777.560091	13216.500000
779.824435	13214.100000
782.084250	13195.400000
784.345477	13219.000000
786.606137	13215.000000
788.864251	13213.700000
791.119820	13199.900000
793.378780	13217.800000
795.631241	13205.300000
797.889068	13207.100000
800.142377	13202.400000
802.393146	13202.800000
804.645327	13208.700000
806.894969	13215.100000
809.146024	13216.000000
811.392567	13208.900000
813.640522	13199.200000
815.885943	13184.000000
818.132775	13168.800000
820.379046	13170.800000
822.620812	13181.200000
824.865962	13181.000000
827.104639	13190.600000
829.346698	13176.900000
831.584259	13176.800000
833.823232	13178.500000
836.059678	13185.400000
838.297535	13174.500000
840.532867	13179.200000
842.765676	13193.800000
844.999896	13160.500000
847.231593	13177.200000
849.462736	13163.500000
851.693324	13154.900000
853.923358	13162.100000
856.152838	13148.300000
858.377836	13143.500000
860.606209	13150.400000
862.830102	13165.400000
865.055407	13150.400000
867.276236	13154.200000
869.500437	13167.400000
871.720165	13169.900000
873.941303	13176.000000
876.161891	13175.700000
878.379970	13152.100000
880.599458	13157.900000
882.814480	13171.900000
885.028955	13172.800000
887.242881	13184.500000
889.456261	13175.600000
891.669093	13171.200000
893.881379	13171.300000
896.091162	13176.400000
898.300400	13157.600000
900.509093	13172.400000
902.715287	13157.800000
904.922890	13174.600000
907.127995	13150.900000
909.332557	13174.300000
911.534624	13171.800000
913.738100	13125.100000
915.939082	13174.300000
918.139522	13169.400000
920.341371	13152.000000
922.536829	13158.200000
924.735646	13171.200000
926.930024	13162.000000
929.127760	13159.000000
931.321060	13196.000000
933.515769	13161.200000
935.707992	13167.000000
937.899676	13154.600000
940.090823	13170.200000
942.279487	13169.500000
944.467615	13185.400000
946.653262	13181.500000
948.842261	13196.500000
951.026837	13172.700000
953.210878	13179.000000
955.398269	13206.400000
957.577356	13226.900000
959.759794	13224.100000
961.941698	13217.400000
964.121127	13229.300000
966.298084	13218.200000
968.476449	13248.000000
970.656221	13237.700000
972.829644	13227.700000
975.006413	13234.600000
977.178775	13257.900000
979.352545	13238.600000
981.521911	13261.700000
983.694621	13250.000000
985.864866	13281.700000
988.034582	13267.400000
990.203769	13262.000000
992.368559	13267.000000
994.536690	13261.000000
996.700427	13285.400000
998.865570	13291.400000
1001.028254	13294.100000
1003.190413	13271.800000
1005.350115	13308.600000
1007.509292	13297.400000
1009.669876	13304.800000
1011.828006	13300.100000
1013.985611	13309.500000
1016.142693	13309.300000
1018.299251	13301.800000
1020.451430	13322.200000
1022.605016	13300.000000
1024.758080	13315.700000
1026.908695	13336.700000
1029.060717	13334.200000
1031.208365	13336.900000
1033.359345	13348.000000
1035.505954	13359.500000
1037.652044	13350.500000
1039.797616	13357.500000
1041.944593	13353.300000
1044.085281	13372.400000
1046.229299	13363.100000
1048.370876	13357.300000
1050.511937	13380.700000
1052.654402	13377.400000
1054.790588	13357.000000
1056.930099	13371.600000
1059.065256	13395.000000
1061.203737	13371.500000
1063.337864	13389.800000
1065.471478	13376.700000
1067.606497	13380.000000
1069.737166	13369.300000
1071.869240	13351.000000
1073.998885	13353.900000
1076.128018	13343.100000
1078.256639	13353.600000
1080.384749	13350.200000
1082.510433	13337.900000
1084.635607	13354.700000
1086.762185	13333.900000
1088.884425	13313.100000
1091.008070	13332.500000
1093.127380	13320.100000
1095.251920	13329.200000
1097.370214	13304.000000
1099.489913	13295.500000
1101.607193	13308.800000
1103.723967	13307.300000
1105.840234	13301.700000
1107.954085	13281.300000
1110.069341	13310.300000
1112.180273	13274.100000
1114.294518	13274.800000
1116.404442	13270.500000
1118.515770	13249.800000
1120.626593	13283.300000
1122.733100	13280.100000
1124.842917	13290.200000
1126.948419	13285.000000
1129.055324	13275.200000
1131.156014	13267.600000
1133.261916	13271.900000
1135.363509	13271.100000
1137.466505	13267.400000
1139.569000	13274.700000
1141.665288	13276.300000
1143.766784	13247.800000
1145.863976	13270.400000
1147.960671	13239.700000
1150.056867	13250.500000
1152.152566	13260.100000
1154.247766	13281.500000
1156.340570	13280.300000
1158.434777	13234.600000
1160.522792	13244.200000
1162.616005	13242.600000
1164.703030	13246.600000
1166.793354	13249.500000
1168.879391	13237.100000
1170.968725	13254.000000
1173.051878	13248.000000
1175.136433	13262.900000
1177.222390	13261.700000
1179.304065	13244.500000
1181.387142	13247.000000
1183.467833	13268.200000
1185.548032	13256.900000
1187.627740	13238.600000
1189.706957	13243.500000
1191.783792	13241.100000
1193.858246	13244.500000
1195.935991	13249.700000
1198.009467	13235.200000
1200.084343	13235.400000
1202.154952	13241.900000
1204.226962	13257.500000
1206.296597	13251.400000
1208.367632	13245.900000
1210.438179	13243.900000
1212.504465	13255.700000
1214.572152	13254.600000
1216.637467	13241.000000
1218.704182	13237.800000
1220.766641	13252.200000
1222.832385	13226.200000
1224.893875	13237.500000
1226.956766	13267.200000
1229.017289	13240.900000
1231.077328	13254.700000
1233.136885	13247.800000
1235.194076	13227.400000
1237.250786	13248.000000
1239.305132	13262.000000
1241.362760	13260.000000
1243.418025	13238.200000
1245.469049	13255.100000
1247.521473	13247.900000
1249.573417	13248.100000
1251.623003	13260.300000
1253.672110	13261.800000
1255.720739	13243.300000
1257.768889	13258.300000
1259.816560	13274.800000
1261.860001	13261.300000
1263.906718	13261.800000
1265.951081	13275.600000
1267.994968	13246.100000
1270.036503	13270.300000
1272.075689	13247.500000
1274.118148	13283.700000
1276.156384	13279.300000
1278.196019	13290.600000
1280.235179	13305.600000
1282.270120	13323.100000
1284.306460	13293.700000
1286.340456	13320.600000
1288.375849	13320.300000
1290.407030	13316.900000
1292.439608	13345.400000
1294.471715	13339.100000
1296.501481	13358.500000
1298.532645	13369.500000
1300.559601	13392.100000
1302.587955	13393.000000
1304.612104	13417.100000
1306.639519	13432.000000
1308.662731	13472.600000
1310.687341	13460.200000
1312.709617	13504.900000
1314.733290	13517.500000
1316.754630	13523.600000
1318.775502	13529.000000
1320.795907	13565.900000
1322.812119	13589.900000
1324.829728	13600.000000
1326.845009	13601.200000
1328.863549	13642.800000
1330.877900	13654.200000
1332.889925	13638.100000
1334.905207	13654.600000
1336.916304	13641.700000
1338.928798	13663.800000
1340.937109	13652.900000
1342.948675	13615.500000
1344.954203	13628.700000
1346.962986	13603.900000
1348.967591	13581.700000
1350.975450	13568.300000
1352.982847	13542.300000
1354.984213	13534.700000
1356.986975	13490.600000
1358.989278	13483.700000
1360.991121	13453.100000
1362.992504	13439.900000
1364.991574	13420.500000
1366.990185	13388.100000
1368.988338	13411.300000
1370.986032	13368.500000
1372.979564	13368.600000
1374.974491	13347.200000
1376.968962	13338.800000
1378.962976	13332.000000
1380.954683	13318.200000
1382.945935	13322.300000
1384.934881	13316.800000
1386.925222	13297.400000
1388.915108	13300.000000
1390.902690	13278.200000
1392.889819	13292.100000
1394.874646	13265.400000
1396.860868	13266.300000
1398.844790	13268.600000
1400.828259	13279.000000
1402.811275	13289.200000
1404.791994	13251.100000
1406.774107	13244.900000
1408.753924	13252.700000
1410.733289	13269.600000
1412.708516	13273.100000
1414.686981	13280.000000
1416.663153	13267.200000
1418.638876	13276.500000
1420.614149	13244.600000
1422.587131	13262.400000
1424.559665	13268.900000
1426.531751	13260.500000
1428.503390	13244.700000
1430.470900	13255.000000
1432.443484	13244.600000
1434.408262	13255.200000
1436.378113	13237.400000
1438.343840	13243.000000
1440.310959	13268.800000
1442.275795	13237.500000
1444.236511	13256.100000
1446.202295	13245.500000
1448.162124	13252.200000
1450.123347	13250.700000
1452.085962	13253.400000
1454.044462	13261.700000
1456.002519	13234.100000
1457.960135	13253.900000
1459.917308	13241.500000
1461.872206	13266.400000
1463.828497	13241.900000
1465.782513	13238.000000
1467.736088	13232.300000
1469.687391	13261.500000
1471.640087	13247.400000
1473.590510	13244.500000
1475.540495	13244.000000
1477.490041	13246.300000
1479.437318	13235.300000
1481.382327	13248.800000
1483.328729	13253.300000
1485.274693	13255.700000
1487.220220	13231.800000
1489.163481	13249.100000
1491.106307	13259.200000
1493.046869	13253.400000
1494.988822	13265.200000
1496.928513	13246.500000
1498.867770	13250.100000
1500.806591	13260.900000
1502.743153	13270.900000
1504.681106	13254.500000
1506.616800	13267.900000
1508.552061	13248.300000
1510.485066	13243.000000
1512.417638	13237.800000
1514.349778	13253.700000
1516.281486	13256.400000
1518.210940	13276.400000
1520.141785	13276.900000
1522.072198	13277.900000
1523.998539	13306.600000
1525.926271	13288.900000
1527.851752	13303.600000
1529.776804	13308.900000
1531.701427	13313.000000
1533.625621	13332.400000
1535.547567	13320.400000
1537.470904	13327.600000
1539.391994	13346.100000
1541.310840	13372.400000
1543.231076	13380.300000
1545.149069	13377.300000
1547.066635	13403.800000
1548.981959	13423.900000
1550.898673	13466.200000
1552.811332	13487.200000
1554.727195	13491.500000
1556.640818	13518.100000
1558.552203	13530.200000
1560.464978	13531.500000
1562.373703	13542.200000
1564.283817	13553.600000
1566.193508	13561.000000
1568.102776	13583.500000
1570.009810	13569.100000
1571.914611	13568.200000
1573.820801	13543.500000
1575.724759	13539.700000
1577.628296	13521.900000
1579.531413	13519.900000
1581.432300	13514.300000
1583.334576	13515.300000
1585.234624	13490.900000
1587.136059	13498.500000
1589.033461	13455.600000
1590.930444	13423.700000
1592.827009	13458.700000
1594.724962	13437.700000
1596.617080	13444.400000
1598.512391	13437.000000
1600.407285	13459.600000
1602.299957	13387.300000
1604.192212	13399.100000
1606.082248	13391.300000
1607.971868	13387.700000
1609.861073	13355.600000
1611.749863	13346.300000
1613.636435	13354.300000
1615.524395	13310.800000
1617.408338	13324.100000
1619.293668	13282.700000
1621.178585	13296.900000
1623.061288	13282.400000
1624.945378	13284.900000
1626.825456	13271.800000
1628.706922	13265.300000
1630.586177	13247.900000
1632.466818	13236.100000
1634.341655	13260.200000
1636.221473	13228.400000
1638.097287	13239.900000
1639.972690	13229.400000
1641.849479	13221.300000
1643.720472	13235.000000
1645.594646	13231.300000
1647.464821	13205.800000
1649.338178	13198.400000
1651.209331	13180.600000
1653.078282	13197.200000
1654.948618	13217.700000
1656.814962	13192.600000
1658.682691	13201.100000
1660.548221	13207.800000
1662.415137	13208.200000
1664.278064	13185.100000
1666.142376	13208.700000
1668.004492	13164.900000
1669.866203	13185.800000
1671.729300	13186.600000
1673.590201	13186.000000
1675.448910	13179.700000
1677.307215	13200.800000
1679.166905	13217.400000
1681.020827	13187.300000
1682.877923	13176.300000
1684.734616	13199.000000
1686.587332	13196.500000
1688.443220	13188.600000
1690.295134	13174.000000
1692.146647	13183.400000
1693.997759	13172.400000
1695.848471	13192.400000
1697.698782	13181.800000
1699.546908	13166.600000
1701.396419	13193.700000
1703.240181	13168.100000
1705.088892	13175.400000
1706.931857	13173.000000
1708.777989	13176.500000
1710.620158	13165.800000
1712.465493	13197.700000
1714.305087	13176.800000
1716.146065	13174.500000
1717.988426	13155.700000
1719.826831	13170.800000
1721.666619	13171.700000
1723.504232	13175.300000
1725.341449	13157.100000
1727.176493	13186.400000
1729.012920	13170.800000
1730.847175	13170.200000
1732.681035	13162.000000
1734.514501	13168.200000
1736.344022	13171.300000
1738.176701	13153.800000
1740.005436	13170.300000
1741.837328	13178.700000
1743.665278	13159.600000
1745.492837	13179.400000
1747.320003	13172.400000
1749.146778	13170.000000
1750.973161	13187.700000
1752.795608	13172.900000
1754.621210	13174.000000
1756.442877	13163.900000
1758.265926	13178.500000
1760.086813	13170.400000
1761.907312	13167.100000
1763.729191	13165.600000
1765.545372	13182.800000
1767.364704	13171.500000
1769.180109	13158.000000
1770.998664	13188.900000
1772.813294	13163.300000
1774.627537	13151.000000
1776.441394	13174.800000
1778.254864	13163.000000
1780.066181	13161.800000
1781.878878	13167.400000
1783.691190	13161.700000
1785.499584	13153.300000
1787.309358	13175.400000
1789.115218	13167.600000
1790.924223	13154.200000
1792.729315	13178.500000
1794.535788	13163.900000
1796.341877	13165.600000
1798.144055	13166.500000
1799.949378	13170.600000
1801.750792	13170.300000
1803.553586	13189.900000
1805.352474	13165.900000
1807.152743	13120.800000
1808.952630	13167.500000
1810.750375	13149.100000
1812.547740	13154.500000
1814.344725	13171.800000
1816.141329	13161.800000
1817.935794	13164.700000
1819.731638	13160.900000
1821.521827	13155.400000
1823.316913	13171.800000
1825.106347	13169.300000
1826.898917	13160.900000
1828.689352	13174.300000
1830.477653	13159.200000
1832.269089	13161.100000
1834.054879	13170.000000
1835.842049	13177.600000
1837.627087	13149.500000
1839.415259	13174.500000
1841.199545	13174.800000
1842.981701	13166.000000
1844.765237	13152.400000
1846.546644	13172.100000
1848.329430	13160.300000
1850.108335	13182.400000
1851.888620	13160.600000
1853.666778	13190.700000
1855.446315	13151.200000
1857.223727	13181.400000
1858.999015	13179.800000
1860.775681	13159.800000
1862.550225	13169.600000
1864.326147	13149.400000
1866.096448	13166.000000
1867.869877	13171.300000
1869.641186	13177.600000
1871.412124	13173.200000
1873.184440	13178.200000
1874.951142	13175.200000
1876.720970	13169.300000
1878.486934	13158.300000
1880.256021	13163.100000
1882.021247	13162.300000
1883.786105	13153.000000
1885.552340	13189.300000
1887.314716	13156.000000
1889.076725	13163.400000
1890.838366	13169.200000
1892.599641	13153.200000
1894.360548	13140.100000
1896.121089	13167.800000
1897.879520	13173.000000
1899.637585	13158.800000
1901.393543	13165.900000
1903.150877	13157.200000
1904.907846	13174.100000
1906.662708	13141.300000
1908.415466	13168.100000
1910.167859	13171.800000
1911.921629	13168.000000
1913.673295	13184.400000
1915.422859	13167.200000
1917.173798	13163.700000
1918.924375	13174.000000
1920.671112	13172.200000
1922.419226	13152.400000
1924.165240	13160.400000
1925.912629	13172.000000
1927.657921	13174.800000
1929.401115	13173.000000
1931.145684	13165.400000
1932.888158	13160.400000
1934.630271	13127.000000
1936.372024	13152.300000
1938.113417	13184.500000
1939.852717	13177.400000
1941.591658	13177.200000
1943.330240	13173.000000
1945.066731	13148.200000
1946.802864	13162.250000
1948.540371	13176.300000
1950.274056	13183.200000
1952.009116	13164.700000
1953.742087	13179.900000
1955.474702	13176.100000
1957.206961	13178.100000
1958.938863	13186.000000
1960.668679	13175.400000
1962.396410	13187.400000
1964.125516	13153.300000
1965.854267	13166.600000
1967.580934	13172.700000
1969.307247	13166.400000
1971.034933	13186.700000
1972.757083	13175.800000
1974.482334	13168.000000
1976.203778	13168.700000
1977.928323	13162.100000
1979.650787	13182.300000
1981.369449	13172.600000
1983.091209	13156.600000
1984.809167	13165.500000
1986.528498	13175.300000
1988.244030	13182.300000
1989.964382	13184.700000
1991.680936	13184.900000
1993.393693	13177.700000
1995.109546	13171.900000
1996.823327	13174.900000
1998.536758	13180.200000
2000.248118	13182.500000
2001.960850	13164.600000
2003.669792	13161.200000
2005.381826	13175.600000
2007.088352	13182.100000
2008.797969	13175.200000
2010.505520	13174.900000
2012.212722	13161.300000
2013.917859	13207.600000
2015.622650	13173.600000
2017.328812	13143.100000
2019.031192	13187.600000
2020.734943	13211.100000
2022.436632	13189.100000
2024.137976	13178.500000
2025.838974	13196.200000
2027.537911	13182.600000
2029.238220	13181.500000
2030.934754	13152.200000
2032.632659	13171.100000
2034.328505	13195.400000
2036.027437	13188.400000
2037.720883	13190.000000
2039.415700	13172.000000
2041.110175	13171.000000
2042.800881	13166.200000
2044.494671	13170.100000
2046.184694	13181.100000
2047.876088	13191.300000
2049.565429	13183.100000
2051.256140	13182.400000
2052.943088	13184.800000
2054.629697	13188.600000
2056.317675	13187.700000
2058.001894	13167.500000
2059.687484	13178.500000
2061.372734	13178.500000
2063.055935	13167.800000
2064.740507	13181.100000
2066.419616	13184.100000
2068.103510	13172.800000
2069.781943	13186.600000
2071.463454	13175.900000
2073.141213	13161.500000
2074.818636	13149.700000
2076.497428	13181.100000
2078.174178	13165.000000
2079.848886	13179.100000
2081.524963	13160.500000
2083.199000	13190.800000
2084.872701	13164.700000
2086.546067	13146.500000
2088.217394	13177.500000
2089.888387	13172.400000
2091.559046	13170.500000
2093.229371	13173.400000
2094.899362	13179.300000
2096.567317	13182.400000
2098.234939	13184.200000
2099.900526	13207.000000
2101.567482	13172.400000
2103.232405	13171.700000
2104.896996	13148.200000
2106.559555	13189.800000
2108.223482	13185.800000
2109.885378	13177.600000
2111.546944	13173.900000
2113.208178	13198.700000
2114.867384	13179.900000
2116.526259	13172.100000
2118.184805	13188.200000
2119.843020	13197.900000
2121.497513	13171.800000
2123.155070	13184.700000
2124.812298	13186.900000
2126.465804	13164.800000
2128.120678	13181.800000
2129.771833	13167.400000
2131.426051	13194.100000
2133.076552	13190.400000
2134.728419	13161.000000
2136.374878	13194.000000
2138.026092	13200.400000
2139.673592	13184.000000
2141.322459	13185.800000
2142.969307	13195.300000
2144.615830	13184.100000
2146.262027	13191.100000
2147.904516	13181.700000
2149.550063	13203.200000
2151.191903	13199.300000
2152.836800	13196.500000
2154.477991	13203.900000
2156.118860	13181.300000
2157.759404	13190.300000
2159.397936	13196.400000
2161.037834	13194.000000
2162.674032	13171.500000
2164.311596	13212.300000
2165.948838	13183.600000
2167.584070	13174.900000
2169.218981	13184.500000
2170.853569	13183.800000
2172.487837	13178.400000
2174.118411	13168.400000
2175.752037	13188.500000
2177.381971	13182.600000
2179.013270	13171.200000
2180.642564	13197.700000
2182.271539	13190.800000
2183.900194	13190.600000
2185.528530	13194.200000
2187.154864	13210.000000
2188.780879	13172.100000
2190.404892	13177.500000
2192.030271	13196.500000
2193.653649	13190.200000
2195.278392	13175.200000
2196.899454	13188.900000
2198.520199	13187.300000
2200.142309	13196.300000
2201.762421	13180.900000
2203.380536	13196.200000
2204.998336	13195.500000
2206.615821	13183.200000
2208.232990	13175.200000
2209.849844	13182.900000
2211.466382	13199.800000
2213.080928	13172.600000
2214.693481	13180.700000
2216.307398	13200.400000
2217.919324	13192.500000
2219.532613	13193.400000
2221.143912	13190.600000
2222.753221	13178.600000
2224.363894	13189.400000
2225.972578	13192.700000
2227.580949	13192.200000
2229.187334	13181.300000
2230.795082	13185.400000
2232.400843	13188.400000
2234.006293	13190.800000
2235.609758	13197.500000
2237.214586	13184.500000
2238.817430	13173.300000
2240.418291	13197.900000
2242.020515	13180.300000
2243.620757	13176.900000
2245.222361	13183.400000
2246.820312	13200.100000
2248.419626	13189.400000
2250.016960	13208.700000
2251.613986	13191.400000
2253.212374	13200.200000
2254.807113	13186.500000
2256.399875	13193.300000
2257.994000	13180.900000
2259.589486	13181.500000
2261.181327	13198.500000
2262.772862	13193.900000
2264.365759	13189.900000
2265.953346	13175.000000
2267.545629	13192.800000
2269.132606	13188.400000
2270.722610	13186.300000
2272.307310	13173.000000
2273.896704	13198.100000
2275.480796	13197.100000
2277.066248	13197.600000
2278.649732	13178.700000
2280.236241	13187.700000
2281.819117	13172.300000
2283.401690	13185.300000
2284.983959	13183.400000
2286.562598	13171.700000
2288.144262	13191.100000
2289.722297	13166.200000
2291.303355	13180.400000
2292.880786	13183.650000
2294.456254	13186.900000
2296.034744	13157.000000
2297.609610	13169.300000
2299.184175	13175.800000
2300.758440	13178.000000
2302.332404	13175.100000
2303.906067	13171.200000
2305.479431	13179.900000
2307.049176	13185.700000
2308.618622	13175.500000
2310.191086	13192.700000
2311.758276	13183.200000
2313.328484	13175.700000
2314.895077	13167.000000
2316.463030	13177.200000
2318.029027	13167.800000
2319.594727	13190.400000
2321.160129	13202.600000
2322.723578	13188.700000
2324.288386	13200.000000
2325.849586	13203.000000
2327.413800	13240.400000
2328.972752	13238.800000
2330.534719	13207.200000
2332.094734	13223.100000
2333.654455	13181.500000
2335.212226	13159.500000
2336.769702	13190.400000
2338.326884	13198.700000
2339.882118	13203.500000
2341.437059	13184.300000
2342.991705	13184.900000
2344.546058	13179.300000
2346.100118	13159.900000
2347.653883	13201.500000
2349.205704	13188.100000
2350.755583	13187.900000
2352.308469	13180.100000
2353.856112	13201.500000
2355.406764	13176.800000
2356.953824	13193.600000
2358.502242	13183.400000
2360.050369	13193.500000
2361.594907	13182.900000
2363.140803	13176.100000
2364.684761	13181.000000
2366.230076	13190.400000
2367.771806	13176.900000
2369.314893	13176.000000
2370.856044	13191.500000
2372.396906	13178.100000
2373.937479	13206.800000
2375.477763	13170.000000
2377.017758	13190.200000
2378.554175	13189.500000
2380.093593	13199.000000
2381.629433	13192.100000
2383.166631	13194.800000
2384.700253	13171.500000
2386.236875	13221.800000
2387.771567	13174.900000
2389.304329	13199.700000
2390.836804	13181.600000
2392.367351	13189.900000
2393.900896	13204.200000
2395.429230	13213.100000
2396.958921	13187.000000
2398.488325	13183.100000
2400.017445	13186.600000
2401.546280	13187.200000
2403.069909	13190.500000
2404.598174	13218.100000
2406.121237	13192.300000
2407.648933	13199.200000
2409.169790	13172.400000
2410.695280	13191.300000
2412.217209	13205.600000
2413.740494	13196.600000
2415.261857	13218.400000
2416.781301	13193.900000
2418.302100	13215.200000
2419.820981	13221.700000
2421.339579	13212.400000
2422.856260	13189.400000
2424.374295	13232.100000
2425.892049	13193.000000
2427.406252	13211.600000
2428.920174	13212.900000
2430.433816	13203.200000
2431.948813	13202.900000
2433.460261	13195.800000
2434.973064	13201.200000
2436.483953	13218.700000
2437.994564	13205.300000
2439.503263	13218.800000
2441.014948	13221.900000
2442.523090	13198.600000
2444.030954	13199.000000
2445.538540	13190.500000
2447.042585	13202.400000
2448.549615	13220.800000
2450.054737	13212.900000
2451.559582	13205.700000
2453.062520	13197.300000
2454.565182	13213.800000
2456.067567	13209.000000
2457.568047	13207.500000
2459.069880	13222.800000
2460.569808	13194.300000
2462.069461	13201.200000
2463.568839	13207.700000
2465.066314	13187.700000
2466.561887	13209.400000
2468.060440	13214.400000
2469.555465	13194.100000
2471.051842	13207.300000
2472.544693	13211.500000
2474.038897	13179.600000
2475.532827	13207.600000
2477.023233	13172.000000
2478.516617	13185.900000
2480.008103	13193.600000
2481.497692	13168.700000
2482.987009	13190.800000
2484.474430	13194.400000
2485.964827	13214.300000
2487.451706	13190.800000
2488.939936	13199.300000
2490.424649	13190.300000
2491.909093	13210.000000
2493.394887	13192.000000
2494.878790	13199.300000
2496.364043	13192.200000
2497.844163	13205.200000
2499.327256	13222.900000
2500.808458	13199.100000
2502.289391	13198.500000
2503.768435	13205.100000
2505.247210	13187.200000
2506.725717	13196.900000
2508.203956	13204.000000
2509.681926	13182.900000
2511.156391	13203.400000
2512.633826	13198.600000
2514.107757	13198.200000
2515.583038	13182.100000
2517.058052	13183.900000
2518.529565	13229.600000
2520.002429	13230.700000
2521.473410	13195.900000
2522.945741	13199.100000
2524.412958	13206.800000
2525.883142	13188.600000
2527.351445	13201.000000
2528.819483	13199.900000
2530.287256	13214.800000
2531.754764	13214.700000
2533.222007	13194.900000
2534.685758	13217.800000
2536.150859	13211.400000
2537.614083	13201.200000
2539.078656	13192.400000
2540.539741	13203.400000
2542.002175	13184.500000
2543.464346	13196.800000
2544.923031	13220.600000
2546.386287	13217.600000
2547.844448	13222.100000
2549.303957	13223.600000
2550.758372	13198.200000
2552.217358	13200.900000
2553.674472	13209.200000
2555.129715	13234.400000
2556.584696	13212.700000
2558.037809	13226.200000
2559.492270	13206.100000
2560.944861	13212.000000
2562.397193	13196.800000
2563.847658	13199.800000
2565.301078	13218.000000
2566.749416	13225.300000
2568.200709	13213.100000
2569.650137	13191.600000
2571.096092	13218.800000
2572.545002	13217.500000
2573.990442	13215.500000
2575.437229	13217.100000
2576.882154	13219.600000
2578.326820	13228.800000
2579.772834	13221.100000
2581.215382	13230.500000
2582.659277	13189.600000
2584.099707	13216.900000
2585.541484	13225.400000
2586.981402	13235.100000
2588.422667	13214.600000
2589.860470	13209.500000
2591.301223	13228.300000
2592.736914	13212.400000
2594.175554	13238.800000
2595.612336	13225.800000
2597.047263	13229.000000
2598.485137	13226.000000
2599.917954	13245.500000
2601.352118	13224.100000
2602.784428	13235.300000
2604.218084	13236.500000
2605.649887	13246.900000
2607.081436	13235.600000
2608.512733	13241.500000
2609.942177	13224.800000
2611.371369	13237.600000
2612.798711	13255.800000
2614.227398	13263.800000
2615.655834	13241.100000
2617.080822	13229.700000
2618.507157	13222.400000
2619.931643	13260.700000
2621.357475	13256.400000
2622.779863	13266.000000
2624.203597	13255.100000
2625.625484	13274.300000
2627.047122	13254.200000
2628.466914	13267.800000
2629.888052	13252.300000
2631.308940	13266.500000
2632.726390	13265.800000
2634.146779	13254.100000
2635.563731	13265.300000
2636.980434	13279.000000
2638.396889	13248.400000
2639.813096	13278.200000
2641.229055	13269.000000
2642.643173	13269.600000
2644.057043	13282.400000
2645.469075	13275.600000
2646.882450	13281.200000
2648.292396	13262.300000
2649.705278	13307.900000
2651.114731	13284.400000
2652.523938	13301.200000
2653.931309	13297.200000
2655.341614	13277.700000
2656.750084	13297.700000
2658.156718	13323.500000
2659.563107	13288.100000
2660.967662	13322.700000
2662.373561	13292.100000
2663.777627	13300.100000
2665.181448	13325.000000
2666.585025	13262.300000
2667.986771	13294.400000
2669.389860	13293.600000
2670.789531	13277.100000
2672.190546	13300.900000
2673.588145	13296.800000
2674.988674	13271.100000
2676.385787	13299.800000
2677.784244	13287.500000
2679.180874	13284.100000
2680.577261	13277.000000
2681.973406	13285.000000
2683.367725	13298.600000
2684.763387	13282.700000
2686.155640	13278.400000
2687.549235	13281.500000
2688.941006	13302.800000
2690.334120	13270.400000
2691.725410	13260.300000
2693.114877	13271.800000
2694.504104	13264.300000
2695.893092	13279.100000
2697.283421	13265.300000
2698.668767	13283.700000
2700.057036	13257.100000
2701.443485	13279.400000
2702.829695	13257.000000
2704.215666	13263.400000
2705.598239	13259.300000
2706.982154	13246.500000
2708.365831	13249.600000
2709.749269	13265.400000
2711.129313	13246.500000
2712.510697	13255.900000
2713.890267	13251.600000
2715.271177	13258.100000
2716.650273	13260.500000
2718.027555	13232.900000
2719.406178	13240.000000
2720.782988	13248.400000
2722.159561	13236.700000
2723.535899	13250.400000
2724.910426	13249.000000
2726.286293	13232.400000
2727.658773	13218.600000
2729.034169	13248.600000
2730.404605	13231.900000
2731.776382	13233.300000
2733.147924	13240.400000
2734.517658	13217.100000
2735.888733	13238.600000
2737.257999	13241.900000
2738.627032	13242.100000
2739.994259	13208.700000
2741.361252	13221.700000
2742.728013	13234.900000
2744.094542	13232.700000
2745.459265	13231.200000
2746.823756	13230.700000
2748.188016	13205.700000
2749.552043	13217.800000
2750.915839	13194.300000
2752.276261	13184.500000
2753.639593	13206.200000
2754.997983	13224.700000
2756.359283	13217.500000
2757.717213	13217.300000
2759.078051	13205.600000
2760.437090	13204.400000
2761.792760	13222.900000
2763.151338	13210.900000
2764.506549	13207.600000
2765.861531	13205.400000
2767.214717	13208.900000
2768.570809	13217.300000
2769.923536	13128.700000
2771.276036	13218.500000
2772.628307	13203.600000
2773.981916	13181.500000
2775.332165	13213.100000
2776.680619	13207.900000
2778.031979	13209.800000
2779.379979	13211.100000
2780.729317	13196.000000
2782.076863	13191.100000
2783.424183	13208.600000
2784.771276	13213.900000
2786.116578	13213.800000
2787.461653	13203.800000
2788.806503	13211.500000
2790.151127	13194.600000
2791.492399	13203.200000
2792.835009	13187.000000
2794.177393	13203.400000
2795.519552	13183.200000
2796.858362	13201.200000
2798.200072	13201.400000
2799.538434	13205.700000
2800.878132	13190.300000
2802.216046	13221.700000
2803.552175	13211.700000
2804.888080	13196.800000
2806.225323	13201.000000
2807.560782	13200.700000
2808.896018	13198.500000
2810.229471	13200.700000
2811.564261	13202.200000
2812.895711	13201.100000
2814.230056	13205.200000
2815.559503	13206.100000
2816.890287	13191.900000
2818.220849	13217.400000
2819.549632	13217.500000
2820.879751	13197.400000
2822.208092	13202.600000
2823.536212	13218.000000
2824.862554	13174.700000
2826.190233	13214.800000
2827.514578	13188.500000
2828.840260	13199.300000
2830.164166	13206.200000
2831.487853	13211.100000
2832.812875	13198.900000
2834.134567	13217.300000
2835.456041	13188.200000
2836.777296	13190.800000
2838.098332	13191.200000
2839.417595	13220.900000
2840.738194	13206.200000
2842.057022	13202.200000
2843.375631	13204.000000
2844.692469	13210.500000
2846.009090	13190.300000
2847.325494	13202.000000
2848.640128	13200.900000
2849.956098	13205.500000
2851.268747	13199.500000
2852.582731	13199.500000
2853.896499	13167.200000
2855.210050	13207.200000
2856.521835	13204.800000
2857.831853	13206.200000
2859.143206	13189.900000
2860.451244	13194.800000
2861.760616	13194.900000
2863.069774	13205.300000
2864.378716	13217.600000
2865.685894	13220.100000
2866.991310	13189.600000
2868.298060	13196.900000
2869.603047	13195.700000
2870.907821	13197.400000
2872.210833	13217.000000
2873.516726	13214.100000
2874.817765	13191.200000
2876.120138	13204.200000
2877.420751	13191.100000
2878.722698	13199.000000
2880.024431	13198.400000
2881.322861	13206.400000
2882.622624	13181.800000
2883.920630	13215.100000
2885.218424	13185.800000
2886.514462	13176.600000
2887.811833	13203.000000
2889.107448	13186.800000
2890.402852	13218.800000
2891.698045	13220.000000
2892.989941	13205.700000
2894.284713	13202.600000
2895.576188	13189.400000
2896.868996	13207.500000
2898.161594	13209.700000
2899.450898	13216.800000
2900.741534	13196.600000
2902.030419	13219.400000
2903.320636	13210.500000
2904.607562	13198.600000
2905.895820	13184.300000
2907.182329	13197.200000
2908.468629	13196.700000
2909.754722	13201.100000
2911.039066	13199.900000
2912.326281	13217.700000
2913.608670	13182.500000
2914.892391	13204.600000
2916.174366	13189.800000
2917.456133	13211.600000
2918.736156	13197.300000
2920.019048	13199.000000
2921.300195	13200.200000
2922.578060	13216.000000
2923.858794	13223.100000
2925.136247	13197.200000
2926.413494	13212.000000
2927.688999	13202.200000
2928.967372	13178.600000
2930.240931	13192.500000
2931.517357	13196.400000
2932.792042	13210.000000
2934.064986	13201.000000
2935.339262	13211.700000
2936.611798	13187.600000
2937.884129	13193.600000
2939.153188	13195.200000
2940.425112	13202.000000
2941.695298	13192.900000
2942.965280	13197.700000
2944.235059	13179.800000
2945.503102	13187.100000
2946.769408	13178.400000
2948.035513	13170.200000
2949.302947	13170.100000
2950.568647	13195.700000
2951.834144	13173.400000
2953.099439	13166.000000
2954.361469	13195.700000
2955.624829	13180.300000
2956.887988	13180.100000
2958.149415	13201.100000
2959.412171	13176.500000
2960.673195	13183.000000
2961.932489	13201.800000
2963.191583	13180.700000
2964.450476	13202.300000
2965.709169	13200.000000
2966.967662	13186.400000
2968.224426	13187.600000
2969.480990	13170.200000
2970.735827	13202.100000
2971.991992	13185.500000
2973.244903	13185.400000
2974.499143	13189.200000
2975.753184	13176.800000
2977.005499	13185.100000
2978.257615	13189.100000
2979.508007	13191.300000
2980.761254	13165.100000
2982.009724	13179.100000
2983.261049	13171.500000
2984.509124	13179.600000
2985.757003	13181.800000
2987.004684	13163.900000
2988.252168	13155.500000
2989.497931	13166.400000
2990.743498	13208.400000
2991.990392	13186.800000
2993.234042	13178.000000
2994.479020	13159.400000
2995.720754	13200.100000
2996.965340	13211.900000
2998.208207	13198.100000
2999.447833	13198.000000
3000.690309	13187.400000
3001.929545	13188.800000
3003.170109	13177.100000
3004.408957	13162.000000
3005.647609	13178.500000
3006.884546	13190.200000
3008.122811	13174.000000
3009.359360	13208.700000
3010.595716	13166.800000
3011.831878	13195.400000
3013.066326	13184.700000
3014.300582	13166.100000
3015.534644	13188.700000
3016.766994	13161.700000
3017.997632	13207.900000
3019.231116	13183.800000
3020.462888	13189.400000
3021.692950	13179.300000
3022.922819	13194.900000
3024.150980	13180.800000
3025.380466	13179.900000
3026.608243	13176.200000
3027.835829	13187.500000
3029.064742	13172.800000
3030.288912	13200.100000
3031.515925	13156.900000
3032.739714	13167.700000
3033.964830	13154.400000
3035.188239	13166.400000
3036.411458	13177.500000
3037.632972	13185.600000
3038.857327	13179.700000
3040.076947	13178.200000
3041.297893	13183.600000
3042.518650	13175.700000
3043.737703	13177.700000
3044.958081	13179.400000
3046.175243	13170.000000
3047.393731	13156.500000
3048.610516	13181.700000
3049.827114	13178.500000
3051.043523	13168.900000
3052.256720	13197.800000
3053.472754	13174.200000
3054.685576	13177.100000
3055.901235	13178.000000
3057.112171	13187.500000
3058.324432	13182.100000
3059.536507	13192.100000
3060.748394	13193.000000
3061.958585	13177.300000
3063.168589	13168.100000
3064.378407	13161.600000
3065.586529	13180.400000
3066.794466	13183.300000
3068.000707	13169.100000
3069.208273	13180.800000
3070.414144	13179.300000
3071.619831	13177.800000
3072.825332	13186.800000
3074.029140	13186.800000
3075.234272	13173.600000
3076.437711	13170.900000
3077.639459	13168.700000
3078.841022	13162.700000
3080.042402	13173.000000
3081.243598	13163.400000
3082.443104	13164.700000
3083.642427	13183.300000
3084.843073	13159.900000
3086.042029	13170.100000
3087.237791	13178.200000
3088.436382	13187.800000
3089.631779	13139.900000
3090.828499	13159.800000
3092.022027	13167.400000
3093.218383	13185.400000
3094.413053	13171.000000
3095.604532	13165.400000
3096.800342	13186.200000
3097.991458	13183.500000
3099.183898	13177.100000
3100.373150	13183.400000
3101.565227	13156.900000
3102.755621	13162.300000
3103.942829	13179.400000
3105.131360	13178.300000
3106.321212	13170.600000
3107.507881	13175.300000
3108.694369	13164.300000
3109.880679	13164.500000
3111.068310	13160.800000
3112.252759	13162.200000
3113.435529	13170.000000
3114.621121	13148.500000
3115.805034	13155.500000
3116.987268	13165.200000
3118.169323	13184.900000
3119.351200	13167.100000
3120.532899	13154.700000
3121.712921	13160.800000
3122.891266	13175.500000
3124.072431	13161.900000
3125.250421	13163.000000
3126.428235	13161.800000
3127.605871	13160.700000
3128.781832	13162.200000
3129.957616	13153.300000
3131.134722	13159.200000
3132.310153	13156.400000
3133.483911	13166.100000
3134.655996	13149.700000
3135.829403	13150.100000
3137.002633	13173.400000
3138.174192	13169.300000
3139.347071	13158.800000
3140.516783	13187.300000
3141.687816	13151.800000
3142.857179	13179.600000
3144.024871	13195.100000
3145.195379	13158.000000
3146.361229	13152.400000
3147.531387	13165.700000
3148.696889	13146.900000
3149.862216	13155.800000
3151.027370	13181.500000
3152.192351	13161.900000
3153.358651	13167.900000
3154.520299	13158.000000
3155.683266	13159.800000
3156.846061	13155.100000
3158.008683	13151.700000
3159.169640	13147.800000
3160.330424	13167.600000
3161.491036	13156.900000
3162.649984	13148.400000
3163.808761	13157.200000
3164.967366	13148.000000
3166.125798	13157.300000
3167.284060	13138.600000
3168.440659	13143.600000
3169.595597	13143.100000
3170.751854	13132.000000
3171.906450	13128.500000
3173.060876	13151.000000
3174.213642	13141.800000
3175.366237	13154.600000
3176.518663	13153.900000
3177.670919	13125.600000
3178.823004	13156.200000
3179.971944	13131.500000
3181.123690	13156.000000
3182.273778	13157.400000
3183.422210	13138.200000
3184.570472	13172.400000
3185.718566	13166.000000
3186.866491	13155.000000
3188.012760	13138.500000
3189.158861	13172.000000
3190.303308	13171.200000
3191.447587	13170.300000
3192.591698	13147.700000
3193.737126	13163.200000
3194.879416	13148.900000
3196.021539	13166.600000
3197.163494	13152.800000
3198.305282	13147.700000
3199.446903	13153.500000
3200.585389	13131.900000
3201.725192	13150.000000
3202.866313	13171.400000
3204.004299	13152.500000
3205.140636	13159.600000
3206.276807	13141.900000
3207.414295	13147.600000
3208.550135	13161.200000
3209.687292	13152.400000
3210.819836	13139.700000
3211.956662	13184.400000
3213.088876	13156.000000
3214.222407	13163.800000
3215.355774	13137.900000
3216.486013	13165.400000
3217.619050	13163.000000
3218.748961	13143.600000
3219.880188	13099.300000
3221.008291	13148.900000
3222.139190	13125.500000
3223.268445	13159.800000
3224.396057	13151.400000
3225.520546	13137.700000
3226.649311	13133.600000
3227.774954	13123.300000
3228.900435	13132.700000
3230.024274	13147.400000
3231.150907	13143.000000
3232.272943	13136.900000
3233.396295	13138.700000
3234.519485	13123.300000
3235.642512	13131.800000
3236.763901	13162.800000
3237.885127	13146.900000
3239.004716	13128.900000
3240.124143	13149.200000
3241.241932	13161.000000
3242.362513	13133.300000
3243.479981	13129.500000
3244.597288	13126.600000
3245.714435	13123.900000
3246.829946	13138.400000
3247.946771	13171.900000
3249.060487	13145.000000
3250.176992	13149.600000
3251.291863	13152.100000
3252.403625	13128.500000
3253.515227	13149.900000
3254.628145	13153.800000
3255.740903	13150.400000
3256.850555	13129.400000
3257.961522	13148.200000
3259.072330	13144.300000
3260.181506	13146.000000
3261.289052	13138.900000
3262.397911	13139.900000
3263.506613	13136.500000
3264.612212	13119.700000
3265.719125	13153.100000
3266.824409	13094.900000
3267.931007	13136.500000
3269.034505	13156.300000
3270.139318	13128.200000
3271.243973	13147.800000
3272.345529	13114.500000
3273.446929	13141.400000
3274.549643	13126.600000
3275.652201	13148.100000
3276.751662	13141.900000
3277.853907	13151.800000
3278.953056	13140.900000
3280.050581	13149.200000
3281.147950	13142.100000
3282.248101	13138.500000
3283.345160	13128.100000
3284.442063	13133.500000
3285.538811	13114.500000
3286.631001	13149.900000
3287.727439	13146.100000
3288.822255	13146.700000
3289.916917	13143.600000
3291.009957	13130.900000
3292.102842	13126.400000
3293.194108	13151.100000
3294.286685	13134.100000
3295.377643	13135.600000
3296.466981	13120.400000
3297.556166	13134.100000
3298.646664	13149.800000
3299.734077	13099.700000
3300.821337	13152.700000
3301.909910	13144.300000
3302.998331	13143.400000
3304.082204	13146.400000
3305.170319	13155.900000
3306.255352	13149.100000
3307.338770	13165.100000
3308.423500	13124.500000
3309.506614	13141.400000
3310.591041	13136.700000
3311.672389	13123.200000
3312.755049	13150.900000
3313.836095	13147.700000
3314.916990	13144.900000
3315.996271	13154.700000
3317.075402	13141.600000
3318.155845	13140.600000
3319.233213	13120.100000
3320.311893	13141.900000
3321.388961	13123.900000
3322.465880	13137.200000
3323.541187	13133.800000
3324.616345	13125.600000
3325.692814	13139.200000
3326.766213	13143.300000
3327.839463	13131.800000
3328.914023	13142.600000
3329.986975	13141.800000
3331.058318	13142.700000
3332.130972	13141.900000
3333.200560	13123.500000
3334.271458	13155.700000
3335.340749	13119.300000
3336.411351	13124.200000
3337.480346	13135.400000
3338.547735	13140.200000
3339.613519	13131.600000
3340.683529	13151.600000
3341.750476	13107.100000
3342.814361	13111.700000
3343.881014	13128.500000
3344.946062	13143.000000
3346.009507	13106.900000
3347.072806	13140.400000
3348.135958	13149.300000
3349.198964	13123.900000
3350.261824	13120.100000
3351.323082	13137.300000
3352.381283	13153.600000
3353.443704	13126.400000
3354.503070	13139.900000
3355.562290	13144.800000
3356.622820	13137.100000
3357.678840	13118.100000
3358.737624	13136.200000
3359.791901	13156.000000
3360.848942	13127.700000
3361.904384	13143.400000
3362.961136	13119.200000
3364.016289	13126.900000
3365.069845	13126.500000
3366.121805	13136.000000
3367.176526	13131.300000
3368.228198	13155.200000
3369.279727	13117.800000
3370.332564	13136.600000
3371.382354	13143.100000
3372.433453	13147.500000
3373.481506	13131.300000
3374.532318	13138.100000
3375.580086	13137.900000
3376.627711	13136.600000
3377.675193	13135.000000
3378.721083	13114.300000
3379.768281	13140.700000
3380.812437	13118.700000
3381.859351	13153.400000
3382.904673	13136.200000
3383.946954	13124.800000
3384.989095	13130.300000
3386.032543	13134.200000
3387.075850	13142.300000
3388.117568	13129.700000
3389.159144	13118.100000
3390.200579	13151.600000
3391.240426	13163.200000
3392.278684	13144.000000
3393.318250	13158.600000
3394.357676	13134.300000
3395.395514	13126.200000
3396.431765	13151.100000
3397.467877	13120.700000
3398.505296	13150.600000
3399.539682	13145.400000
3400.575375	13138.500000
3401.610929	13162.700000
3402.643452	13148.300000
3403.678728	13146.400000
3404.710973	13153.900000
3405.743080	13133.400000
3406.773603	13135.700000
3407.805433	13154.000000
3408.837125	13129.600000
3409.865789	13123.000000
3410.894316	13159.600000
3411.924149	13123.800000
3412.953845	13131.100000
3413.980515	13127.400000
3415.008492	13122.900000
3416.033444	13137.900000
3417.061146	13121.500000
3418.085825	13127.100000
3419.111810	13140.700000
3420.136215	13128.500000
3421.160484	13130.800000
3422.183174	13135.800000
3423.205728	13138.800000
3424.229588	13107.600000
3425.250428	13146.500000
3426.271132	13129.000000
3427.293143	13120.800000
3428.312135	13134.200000
3429.330991	13127.700000
3430.351154	13118.600000
3431.368300	13151.000000
