-117.888313	57.100000
-115.218713	77.200000
-112.552048	87.600000
-109.886135	50.000000
-107.223154	75.100000
-104.558744	59.900000
-101.897264	70.900000
-99.234355	64.700000
-96.576552	70.700000
-93.917320	62.700000
-91.258836	81.500000
-88.603276	76.000000
-85.946288	87.800000
-83.294398	78.200000
-80.641078	79.200000
-77.990677	92.300000
-75.338847	79.600000
-72.692108	69.500000
-70.043940	56.700000
-67.396514	78.800000
-64.752002	66.100000
-62.106062	62.500000
-59.465203	81.500000
-56.822915	83.400000
-54.183536	79.600000
-51.542727	92.800000
-48.902659	73.500000
-46.267663	82.600000
-43.631239	88.100000
-40.997717	91.100000
-38.362767	85.800000
-35.732882	77.700000
-33.099405	96.800000
-30.470990	105.000000
-27.843309	84.900000
-25.214199	108.200000
-22.590146	107.400000
-19.962504	106.000000
-17.339915	132.800000
-14.718058	162.800000
-12.096931	222.000000
-9.476534	501.700000
-6.859026	1376.200000
-4.240089	4468.100000
-1.624037	9077.500000
0.991286	9858.200000
3.605882	5216.500000
6.217595	614.000000
8.830737	186.300000
11.438845	124.100000
14.050535	117.300000
16.657194	110.700000
19.265281	107.800000
21.872644	101.500000
24.474982	99.900000
27.080898	114.700000
29.681792	101.600000
32.284114	117.900000
34.881419	102.400000
37.482299	83.200000
40.078164	104.200000
42.675458	96.700000
45.272032	113.800000
47.863597	115.600000
50.456590	105.400000
53.046722	102.200000
55.638282	119.000000
58.226982	116.700000
60.817109	106.800000
63.402237	108.600000
65.988793	125.500000
68.574635	128.500000
71.157623	124.700000
73.742037	132.700000
76.319323	109.300000
78.900175	129.300000
81.478178	136.600000
84.055471	122.400000
86.634190	140.500000
89.207927	150.100000
91.783092	140.700000
94.355413	159.700000
96.927026	141.300000
99.495799	174.000000
102.065999	154.000000
104.633361	183.500000
107.202148	194.100000
109.768099	218.900000
112.331215	259.600000
114.897887	297.200000
117.455338	356.400000
120.018474	504.700000
122.576650	650.200000
125.138381	895.800000
127.695155	1307.900000
130.253356	1935.300000
132.806603	2885.200000
135.359153	4248.500000
137.915253	5824.900000
140.466405	6915.800000
143.016860	6994.000000
145.566617	7061.300000
148.113555	7124.600000
150.659798	7155.000000
153.207466	7154.800000
155.754438	7198.300000
158.296475	7153.400000
160.837818	7121.700000
163.378468	7164.700000
165.920544	7149.400000
168.459808	7125.100000
170.996264	7147.900000
173.532028	7163.000000
176.069218	7111.300000
178.605717	7144.800000
181.139410	7113.300000
183.670299	7128.500000
186.200501	7146.500000
188.732127	7139.600000
191.260952	7124.300000
193.786978	7134.900000
196.312318	7117.300000
198.839083	7099.100000
201.363052	7116.700000
203.886336	7117.000000
206.408935	7134.500000
208.928741	7092.900000
211.447864	7117.200000
213.966304	7103.400000
216.486168	7129.400000
218.999031	7121.600000
221.515425	7121.100000
224.031137	7129.400000
226.541959	7096.700000
229.054206	7107.200000
231.563671	7131.900000
234.072457	7132.100000
236.580564	7106.000000
239.090096	7133.000000
241.594747	7124.200000
244.098722	7153.700000
246.604121	7124.500000
249.104645	7137.200000
251.608693	7160.800000
254.105769	7149.400000
256.606369	7179.300000
259.104197	7172.500000
261.601352	7163.300000
264.097834	7146.000000
266.589453	7178.500000
269.084592	7169.300000
271.576964	7190.800000
274.068666	7187.600000
276.557605	7203.000000
279.047968	7198.200000
281.535568	7167.200000
284.020409	7181.900000
286.508765	7202.000000
288.990181	7197.800000
291.475111	7192.900000
293.955196	7182.100000
296.438793	7214.000000
298.917547	7203.100000
301.397725	7226.000000
303.875150	7204.200000
306.351912	7212.000000
308.828011	7257.900000
311.301361	7250.600000
313.774049	7284.500000
316.246076	7352.600000
318.717442	7455.500000
321.186063	7511.500000
323.654026	7499.800000
326.123410	7397.100000
328.587972	7372.900000
331.056038	7277.800000
333.519284	7285.200000
335.981872	7248.700000
338.443804	7271.900000
340.905079	7271.500000
343.363620	7255.800000
345.823583	7267.900000
348.280813	7251.100000
350.737389	7262.900000
353.193311	7274.800000
355.646503	7235.400000
358.101118	7265.600000
360.550931	7272.000000
363.004240	7274.300000
365.452751	7233.500000
367.900610	7262.500000
370.349892	7246.200000
372.794380	7264.100000
375.240290	7249.300000
377.685550	7268.800000
380.128092	7251.300000
382.569986	7238.600000
385.011233	7288.900000
387.449764	7285.500000
389.889717	7287.900000
392.326956	7263.300000
394.761483	7237.600000
397.199498	7250.500000
399.632736	7273.900000
402.067395	7247.200000
404.497282	7252.400000
406.930654	7265.500000
409.359256	7272.400000
411.787216	7230.700000
414.216598	7273.900000
416.641214	7244.700000
419.067252	7265.200000
421.492649	7306.100000
423.917406	7262.600000
426.337405	7288.200000
428.758825	7262.500000
431.177548	7276.400000
433.597692	7271.900000
436.015141	7273.500000
438.434010	7263.000000
440.850186	7282.800000
443.261614	7285.200000
445.676520	7257.800000
448.088735	7273.200000
450.500316	7281.600000
452.911263	7291.900000
455.319524	7254.200000
457.727152	7254.000000
460.134148	7259.000000
462.540513	7260.500000
464.944195	7239.500000
467.347247	7257.300000
469.749669	7234.100000
472.151461	7235.000000
474.550576	7215.000000
476.951110	7229.000000
479.351015	7198.800000
481.746197	7230.900000
484.144846	7240.200000
486.538775	7220.800000
488.932078	7243.000000
491.324755	7205.700000
493.716807	7191.900000
496.110277	7164.800000
498.499035	7149.000000
500.885127	7119.700000
503.272639	7086.200000
505.659528	7057.600000
508.043753	7039.800000
510.429396	7031.100000
512.812378	7001.100000
515.192699	6966.800000
517.574439	6958.700000
519.953520	6956.400000
522.334020	6942.000000
524.711862	6941.200000
527.087049	6938.500000
529.461618	6927.600000
531.837605	6907.400000
534.210940	6920.200000
536.585692	6907.600000
538.955759	6916.100000
541.325210	6900.300000
543.696079	6876.600000
546.062268	6887.500000
548.429875	6904.100000
550.794836	6875.700000
553.159184	6877.300000
555.522919	6862.400000
557.888072	6865.100000
560.248553	6857.900000
562.610452	6893.600000
564.969710	6880.900000
567.326331	6848.100000
569.686396	6877.200000
572.039770	6861.400000
574.396589	6852.000000
576.750773	6847.600000
579.104349	6850.500000
581.457316	6863.100000
583.807651	6847.400000
586.159404	6850.000000
588.504480	6852.000000
590.855020	6865.400000
593.198886	6839.900000
595.548214	6869.100000
597.892893	6847.800000
600.234948	6832.500000
602.578420	6840.700000
604.919269	6873.300000
607.259516	6867.100000
609.597142	6847.300000
611.938203	6822.400000
614.274626	6831.300000
616.612466	6838.400000
618.947689	6816.900000
621.280296	6805.400000
623.614319	6833.400000
625.945728	6810.700000
628.276539	6828.100000
630.606753	6817.900000
632.936368	6821.800000
635.261360	6801.600000
637.591794	6795.600000
639.917607	6792.500000
642.240812	6826.500000
644.565434	6787.100000
646.887450	6809.400000
649.208872	6783.600000
651.527692	6792.100000
653.847927	6777.600000
656.167569	6796.000000
658.484610	6798.800000
660.801059	6786.700000
663.114910	6773.500000
665.430177	6781.700000
667.742847	6797.100000
670.056932	6776.000000
672.366417	6791.500000
674.677318	6781.100000
676.985626	6779.000000
679.293346	6756.000000
681.602480	6760.700000
683.907022	6771.800000
686.210978	6764.300000
688.514348	6773.600000
690.819132	6756.100000
693.119330	6759.400000
695.420942	6746.100000
697.721970	6747.400000
700.018415	6760.100000
702.316276	6749.900000
704.613553	6748.000000
706.910247	6772.900000
709.202365	6746.300000
711.497894	6765.800000
713.788849	6738.700000
716.081219	6749.000000
718.371014	6750.200000
720.660228	6761.600000
722.948863	6748.200000
725.234925	6755.700000
727.522402	6760.200000
729.807307	6762.200000
732.091635	6768.800000
734.373394	6734.900000
736.656567	6749.300000
738.939163	6764.000000
741.217203	6763.500000
743.496658	6733.200000
745.775536	6750.500000
748.053840	6772.400000
750.327594	6758.700000
752.602761	6777.700000
754.877355	6757.400000
757.149390	6771.500000
759.422838	6752.600000
761.693728	6778.700000
763.962062	6784.600000
766.231809	6772.800000
768.499002	6784.200000
770.765624	6784.000000
773.031676	6786.400000
775.295177	6773.000000
777.560091	6823.400000
779.824435	6780.900000
782.084250	6784.300000
784.345477	6780.600000
786.606137	6787.700000
788.864251	6797.900000
791.119820	6795.400000
793.378780	6803.400000
795.631241	6790.700000
797.889068	6782.800000
800.142377	6779.700000
802.393146	6790.900000
804.645327	6781.800000
806.894969	6795.500000
809.146024	6787.500000
811.392567	6774.200000
813.640522	6758.100000
815.885943	6764.500000
818.132775	6771.500000
820.379046	6764.900000
822.620812	6759.600000
824.865962	6770.700000
827.104639	6762.200000
829.346698	6740.200000
831.584259	6771.300000
833.823232	6780.700000
836.059678	6751.200000
838.297535	6725.700000
840.532867	6725.800000
842.765676	6764.000000
844.999896	6745.200000
847.231593	6753.700000
849.462736	6755.900000
851.693324	6734.100000
853.923358	6766.600000
856.152838	6740.500000
858.377836	6743.200000
860.606209	6732.100000
862.830102	6726.200000
865.055407	6741.900000
867.276236	6731.100000
869.500437	6750.700000
871.720165	6746.900000
873.941303	6756.500000
876.161891	6741.500000
878.379970	6761.500000
880.599458	6739.600000
882.814480	6753.800000
885.028955	6755.400000
887.242881	6752.500000
889.456261	6752.700000
891.669093	6745.100000
893.881379	6749.500000
896.091162	6747.800000
898.300400	6753.500000
900.509093	6755.400000
902.715287	6732.300000
904.922890	6743.100000
907.127995	6740.500000
909.332557	6735.800000
911.534624	6730.700000
913.738100	6723.400000
915.939082	6743.800000
918.139522	6743.200000
920.341371	6725.800000
922.536829	6736.500000
924.735646	6736.400000
926.930024	6742.700000
929.127760	6735.500000
931.321060	6745.800000
933.515769	6728.500000
935.707992	6748.200000
937.899676	6748.900000
940.090823	6777.200000
942.279487	6759.200000
944.467615	6771.200000
946.653262	6771.200000
948.842261	6751.400000
951.026837	6765.500000
953.210878	6785.300000
955.398269	6781.500000
957.577356	6753.800000
959.759794	6794.200000
961.941698	6800.000000
964.121127	6787.200000
966.298084	6807.200000
968.476449	6799.000000
970.656221	6837.000000
972.829644	6839.600000
975.006413	6831.600000
977.178775	6836.600000
979.352545	6821.300000
981.521911	6846.000000
983.694621	6836.000000
985.864866	6854.500000
988.034582	6855.000000
990.203769	6846.800000
992.368559	6846.600000
994.536690	6861.000000
996.700427	6877.900000
998.865570	6868.700000
1001.028254	6875.400000
1003.190413	6878.700000
1005.350115	6910.800000
1007.509292	6870.100000
1009.669876	6885.200000
1011.828006	6895.600000
1013.985611	6883.700000
1016.142693	6876.400000
1018.299251	6906.300000
1020.451430	6914.400000
1022.605016	6911.700000
1024.758080	6910.000000
1026.908695	6927.000000
1029.060717	6945.800000
1031.208365	6945.100000
1033.359345	6948.400000
1035.505954	6923.300000
1037.652044	6938.000000
1039.797616	6937.800000
1041.944593	6942.000000
1044.085281	6930.600000
1046.229299	6958.900000
1048.370876	6954.500000
1050.511937	6963.400000
1052.654402	6966.200000
1054.790588	6958.900000
1056.930099	6966.200000
1059.065256	6990.200000
1061.203737	6973.700000
1063.337864	6966.000000
1065.471478	6952.600000
1067.606497	6982.300000
1069.737166	6972.000000
1071.869240	6968.500000
1073.998885	6962.100000
1076.128018	6957.100000
1078.256639	6930.400000
1080.384749	6922.000000
1082.510433	6913.200000
1084.635607	6925.300000
1086.762185	6924.700000
1088.884425	6919.100000
1091.008070	6917.300000
1093.127380	6887.700000
1095.251920	6907.600000
1097.370214	6896.000000
1099.489913	6883.600000
1101.607193	6887.000000
1103.723967	6885.900000
1105.840234	6870.400000
1107.954085	6881.700000
1110.069341	6871.600000
1112.180273	6859.300000
1114.294518	6843.000000
1116.404442	6856.700000
1118.515770	6848.300000
1120.626593	6854.100000
1122.733100	6846.900000
1124.842917	6843.400000
1126.948419	6864.900000
1129.055324	6856.200000
1131.156014	6838.500000
1133.261916	6829.000000
1135.363509	6833.900000
1137.466505	6848.300000
1139.569000	6822.000000
1141.665288	6834.400000
1143.766784	6812.700000
1145.863976	6819.800000
1147.960671	6820.600000
1150.056867	6818.400000
1152.152566	6824.600000
1154.247766	6818.800000
1156.340570	6817.500000
1158.434777	6828.000000
1160.522792	6821.300000
1162.616005	6812.400000
1164.703030	6802.000000
1166.793354	6811.800000
1168.879391	6834.800000
1170.968725	6812.400000
1173.051878	6808.000000
1175.136433	6831.800000
1177.222390	6807.100000
1179.304065	6821.600000
1181.387142	6803.300000
1183.467833	6822.100000
1185.548032	6798.600000
1187.627740	6817.600000
1189.706957	6834.400000
1191.783792	6807.300000
1193.858246	6815.000000
1195.935991	6817.400000
1198.009467	6816.600000
1200.084343	6803.900000
1202.154952	6799.900000
1204.226962	6808.300000
1206.296597	6800.500000
1208.367632	6806.000000
1210.438179	6814.400000
1212.504465	6811.600000
1214.572152	6790.600000
1216.637467	6800.500000
1218.704182	6789.600000
1220.766641	6819.900000
1222.832385	6807.500000
1224.893875	6807.300000
1226.956766	6799.300000
1229.017289	6791.900000
1231.077328	6778.200000
1233.136885	6812.200000
1235.194076	6802.700000
1237.250786	6799.600000
1239.305132	6796.000000
1241.362760	6801.500000
1243.418025	6788.700000
1245.469049	6778.600000
1247.521473	6798.300000
1249.573417	6806.800000
1251.623003	6795.400000
1253.672110	6799.200000
1255.720739	6790.100000
1257.768889	6804.600000
1259.816560	6807.000000
1261.860001	6810.400000
1263.906718	6816.000000
1265.951081	6793.800000
1267.994968	6812.600000
1270.036503	6826.600000
1272.075689	6790.000000
1274.118148	6827.700000
1276.156384	6800.300000
1278.196019	6823.200000
1280.235179	6827.200000
1282.270120	6831.900000
1284.306460	6845.200000
1286.340456	6856.100000
1288.375849	6858.100000
1290.407030	6868.300000
1292.439608	6850.200000
1294.471715	6889.400000
1296.501481	6901.800000
1298.532645	6893.000000
1300.559601	6902.700000
1302.587955	6929.700000
1304.612104	6933.000000
1306.639519	6935.400000
1308.662731	6945.800000
1310.687341	6974.100000
1312.709617	6992.400000
1314.733290	7027.900000
1316.754630	7028.400000
1318.775502	7048.800000
1320.795907	7053.500000
1322.812119	7105.100000
1324.829728	7092.700000
1326.845009	7106.500000
1328.863549	7134.200000
1330.877900	7152.800000
1332.889925	7162.400000
1334.905207	7184.400000
1336.916304	7188.700000
1338.928798	7163.600000
1340.937109	7187.100000
1342.948675	7163.100000
1344.954203	7154.500000
1346.962986	7132.200000
1348.967591	7114.400000
1350.975450	7103.600000
1352.982847	7073.300000
1354.984213	7030.200000
1356.986975	7016.200000
1358.989278	7025.600000
1360.991121	7001.500000
1362.992504	6976.900000
1364.991574	6945.800000
1366.990185	6940.000000
1368.988338	6936.900000
1370.986032	6894.100000
1372.979564	6917.300000
1374.974491	6905.800000
1376.968962	6891.700000
1378.962976	6884.900000
1380.954683	6858.300000
1382.945935	6861.500000
1384.934881	6858.500000
1386.925222	6851.900000
1388.915108	6818.300000
1390.902690	6846.400000
1392.889819	6814.500000
1394.874646	6828.800000
1396.860868	6808.700000
1398.844790	6819.500000
1400.828259	6806.200000
1402.811275	6808.400000
1404.791994	6810.300000
1406.774107	6780.800000
1408.753924	6813.000000
1410.733289	6799.000000
1412.708516	6813.800000
1414.686981	6787.400000
1416.663153	6796.300000
1418.638876	6806.000000
1420.614149	6818.200000
1422.587131	6792.700000
1424.559665	6793.100000
1426.531751	6788.900000
1428.503390	6808.400000
1430.470900	6794.700000
1432.443484	6803.800000
1434.408262	6776.000000
1436.378113	6767.400000
1438.343840	6798.000000
1440.310959	6785.700000
1442.275795	6801.700000
1444.236511	6789.600000
1446.202295	6767.800000
1448.162124	6795.400000
1450.123347	6797.900000
1452.085962	6768.800000
1454.044462	6781.200000
1456.002519	6790.800000
1457.960135	6776.300000
1459.917308	6786.900000
1461.872206	6775.900000
1463.828497	6785.800000
1465.782513	6774.500000
1467.736088	6766.300000
1469.687391	6782.400000
1471.640087	6774.700000
1473.590510	6790.900000
1475.540495	6780.500000
1477.490041	6783.500000
1479.437318	6789.500000
1481.382327	6776.100000
1483.328729	6787.500000
1485.274693	6801.200000
1487.220220	6799.000000
1489.163481	6790.400000
1491.106307	6803.900000
1493.046869	6772.600000
1494.988822	6779.800000
1496.928513	6803.100000
1498.867770	6801.700000
1500.806591	6811.800000
1502.743153	6815.900000
1504.681106	6803.600000
1506.616800	6823.100000
1508.552061	6833.500000
1510.485066	6807.600000
1512.417638	6790.500000
1514.349778	6816.600000
1516.281486	6822.500000
1518.210940	6808.700000
1520.141785	6841.700000
1522.072198	6841.800000
1523.998539	6829.100000
1525.926271	6825.000000
1527.851752	6868.200000
1529.776804	6851.900000
1531.701427	6848.000000
1533.625621	6863.900000
1535.547567	6857.900000
1537.470904	6895.400000
1539.391994	6887.500000
1541.310840	6899.100000
1543.231076	6908.100000
1545.149069	6913.800000
1547.066635	6957.000000
1548.981959	6970.500000
1550.898673	6977.900000
1552.811332	7036.200000
1554.727195	7054.900000
1556.640818	7076.700000
1558.552203	7076.400000
1560.464978	7097.000000
1562.373703	7104.400000
1564.283817	7099.700000
1566.193508	7110.300000
1568.102776	7105.900000
1570.009810	7141.900000
1571.914611	7114.600000
1573.820801	7127.100000
1575.724759	7110.100000
1577.628296	7072.500000
1579.531413	7057.200000
1581.432300	7054.100000
1583.334576	7021.600000
1585.234624	7044.800000
1587.136059	7012.100000
1589.033461	7006.800000
1590.930444	6982.400000
1592.827009	6976.000000
1594.724962	6974.200000
1596.617080	6974.100000
1598.512391	6936.000000
1600.407285	6959.700000
1602.299957	6918.300000
1604.192212	6958.000000
1606.082248	6930.900000
1607.971868	6927.000000
1609.861073	6908.500000
1611.749863	6881.500000
1613.636435	6881.700000
1615.524395	6901.100000
1617.408338	6859.200000
1619.293668	6847.000000
1621.178585	6854.500000
1623.061288	6817.300000
1624.945378	6811.900000
1626.825456	6814.100000
1628.706922	6809.400000
1630.586177	6796.900000
1632.466818	6775.600000
1634.341655	6814.000000
1636.221473	6787.800000
1638.097287	6788.200000
1639.972690	6777.800000
1641.849479	6764.400000
1643.720472	6753.600000
1645.594646	6766.100000
1647.464821	6771.000000
1649.338178	6747.600000
1651.209331	6758.500000
1653.078282	6740.500000
1654.948618	6767.300000
1656.814962	6748.100000
1658.682691	6742.100000
1660.548221	6751.800000
1662.415137	6759.000000
1664.278064	6743.000000
1666.142376	6726.900000
1668.004492	6720.100000
1669.866203	6736.500000
1671.729300	6724.100000
1673.590201	6744.700000
1675.448910	6737.100000
1677.307215	6735.700000
1679.166905	6721.500000
1681.020827	6725.800000
1682.877923	6736.300000
1684.734616	6735.200000
1686.587332	6736.600000
1688.443220	6742.000000
1690.295134	6738.900000
1692.146647	6729.000000
1693.997759	6727.200000
1695.848471	6732.300000
1697.698782	6741.500000
1699.546908	6719.000000
1701.396419	6735.600000
1703.240181	6734.700000
1705.088892	6729.000000
1706.931857	6739.500000
1708.777989	6749.000000
1710.620158	6719.500000
1712.465493	6712.300000
1714.305087	6713.000000
1716.146065	6732.900000
1717.988426	6725.800000
1719.826831	6723.300000
1721.666619	6728.100000
1723.504232	6731.500000
1725.341449	6740.300000
1727.176493	6720.900000
1729.012920	6759.100000
1730.847175	6713.400000
1732.681035	6697.000000
1734.514501	6714.700000
1736.344022	6740.600000
1738.176701	6743.400000
1740.005436	6727.000000
1741.837328	6736.000000
1743.665278	6728.400000
1745.492837	6716.300000
1747.320003	6721.900000
1749.146778	6727.200000
1750.973161	6726.100000
1752.795608	6708.300000
1754.621210	6709.600000
1756.442877	6721.100000
1758.265926	6727.100000
1760.086813	6707.400000
1761.907312	6731.800000
1763.729191	6726.200000
1765.545372	6753.800000
1767.364704	6722.100000
1769.180109	6734.200000
1770.998664	6716.000000
1772.813294	6721.300000
1774.627537	6723.500000
1776.441394	6717.200000
1778.254864	6709.700000
1780.066181	6708.300000
1781.878878	6718.900000
1783.691190	6725.200000
1785.499584	6726.400000
1787.309358	6715.500000
1789.115218	6713.900000
1790.924223	6721.400000
1792.729315	6723.900000
1794.535788	6725.600000
1796.341877	6726.900000
1798.144055	6720.400000
1799.949378	6712.500000
1801.750792	6732.500000
1803.553586	6717.800000
1805.352474	6729.400000
1807.152743	6724.800000
1808.952630	6709.200000
1810.750375	6707.900000
1812.547740	6727.400000
1814.344725	6720.800000
1816.141329	6737.800000
1817.935794	6723.900000
1819.731638	6727.600000
1821.521827	6721.800000
1823.316913	6701.700000
1825.106347	6725.400000
1826.898917	6696.600000
1828.689352	6734.200000
1830.477653	6724.400000
1832.269089	6722.300000
1834.054879	6711.900000
1835.842049	6721.200000
1837.627087	6718.700000
1839.415259	6724.600000
1841.199545	6719.800000
1842.981701	6709.500000
1844.765237	6709.700000
1846.546644	6725.400000
1848.329430	6712.400000
1850.108335	6698.600000
1851.888620	6710.400000
1853.666778	6720.100000
1855.446315	6718.900000
1857.223727	6709.600000
1858.999015	6725.000000
1860.775681	6724.100000
1862.550225	6694.200000
1864.326147	6719.500000
1866.096448	6717.600000
1867.869877	6700.600000
1869.641186	6716.600000
1871.412124	6720.400000
1873.184440	6736.900000
1874.951142	6723.900000
1876.720970	6728.400000
1878.486934	6713.000000
1880.256021	6732.800000
1882.021247	6746.900000
1883.786105	6702.500000
1885.552340	6727.300000
1887.314716	6711.900000
1889.076725	6719.400000
1890.838366	6701.600000
1892.599641	6719.200000
1894.360548	6699.700000
1896.121089	6724.100000
1897.879520	6718.500000
1899.637585	6724.500000
1901.393543	6725.400000
1903.150877	6699.600000
1904.907846	6716.700000
1906.662708	6706.300000
1908.415466	6695.700000
1910.167859	6713.300000
1911.921629	6716.100000
1913.673295	6719.400000
1915.422859	6704.600000
1917.173798	6720.600000
1918.924375	6693.900000
1920.671112	6726.400000
1922.419226	6725.100000
1924.165240	6724.800000
1925.912629	6709.600000
1927.657921	6732.800000
1929.401115	6718.300000
1931.145684	6702.600000
1932.888158	6723.100000
1934.630271	6710.200000
1936.372024	6719.100000
1938.113417	6715.500000
1939.852717	6722.700000
1941.591658	6717.400000
1943.330240	6724.800000
1945.066731	6723.000000
1946.802864	6726.650000
1948.540371	6730.300000
1950.274056	6706.600000
1952.009116	6722.200000
1953.742087	6718.900000
1955.474702	6715.000000
1957.206961	6722.500000
1958.938863	6726.100000
1960.668679	6705.100000
1962.396410	6733.200000
1964.125516	6728.000000
1965.854267	6702.800000
1967.580934	6734.900000
1969.307247	6712.100000
1971.034933	6713.900000
1972.757083	6729.800000
1974.482334	6713.700000
1976.203778	6734.700000
1977.928323	6724.700000
1979.650787	6716.000000
1981.369449	6720.100000
1983.091209	6719.200000
1984.809167	6738.100000
1986.528498	6732.800000
1988.244030	6734.000000
1989.964382	6746.600000
1991.680936	6734.200000
1993.393693	6711.100000
1995.109546	6730.100000
1996.823327	6726.900000
1998.536758	6728.900000
2000.248118	6723.800000
2001.960850	6738.900000
2003.669792	6722.600000
2005.381826	6702.700000
2007.088352	6743.400000
2008.797969	6705.300000
2010.505520	6713.200000
2012.212722	6742.000000
2013.917859	6737.300000
2015.622650	6719.500000
2017.328812	6719.200000
2019.031192	6740.200000
2020.734943	6737.200000
2022.436632	6740.700000
2024.137976	6739.600000
2025.838974	6723.000000
2027.537911	6717.400000
2029.238220	6724.400000
2030.934754	6715.600000
2032.632659	6736.100000
2034.328505	6751.800000
2036.027437	6746.800000
2037.720883	6723.000000
2039.415700	6717.400000
2041.110175	6723.600000
2042.800881	6739.300000
2044.494671	6746.600000
2046.184694	6710.700000
2047.876088	6727.400000
2049.565429	6729.000000
2051.256140	6733.700000
2052.943088	6703.500000
2054.629697	6732.700000
2056.317675	6716.300000
2058.001894	6729.400000
2059.687484	6714.700000
2061.372734	6732.100000
2063.055935	6723.800000
2064.740507	6733.600000
2066.419616	6721.600000
2068.103510	6729.300000
2069.781943	6730.700000
2071.463454	6746.900000
2073.141213	6723.800000
2074.818636	6715.000000
2076.497428	6715.000000
2078.174178	6724.300000
2079.848886	6728.300000
2081.524963	6729.700000
2083.199000	6700.300000
2084.872701	6710.800000
2086.546067	6718.000000
2088.217394	6728.500000
2089.888387	6715.300000
2091.559046	6704.800000
2093.229371	6717.800000
2094.899362	6743.000000
2096.567317	6723.000000
2098.234939	6729.900000
2099.900526	6748.200000
2101.567482	6733.800000
2103.232405	6717.500000
2104.896996	6716.400000
2106.559555	6724.700000
2108.223482	6728.600000
2109.885378	6722.300000
2111.546944	6704.400000
2113.208178	6719.100000
2114.867384	6726.800000
2116.526259	6727.900000
2118.184805	6724.200000
2119.843020	6731.000000
2121.497513	6723.600000
2123.155070	6728.100000
2124.812298	6723.500000
2126.465804	6750.900000
2128.120678	6698.500000
2129.771833	6724.300000
2131.426051	6731.800000
2133.076552	6728.800000
2134.728419	6720.800000
2136.374878	6730.200000
2138.026092	6737.300000
2139.673592	6738.000000
2141.322459	6742.700000
2142.969307	6707.300000
2144.615830	6728.200000
2146.262027	6718.500000
2147.904516	6727.200000
2149.550063	6726.900000
2151.191903	6721.400000
2152.836800	6723.100000
2154.477991	6735.200000
2156.118860	6711.000000
2157.759404	6717.800000
2159.397936	6730.500000
2161.037834	6732.800000
2162.674032	6721.300000
2164.311596	6732.700000
2165.948838	6724.600000
2167.584070	6748.400000
2169.218981	6721.300000
2170.853569	6736.600000
2172.487837	6713.600000
2174.118411	6729.600000
2175.752037	6709.400000
2177.381971	6734.000000
2179.013270	6717.600000
2180.642564	6735.300000
2182.271539	6741.000000
2183.900194	6725.800000
2185.528530	6731.700000
2187.154864	6723.200000
2188.780879	6722.500000
2190.404892	6728.200000
2192.030271	6728.800000
2193.653649	6713.000000
2195.278392	6730.100000
2196.899454	6718.100000
2198.520199	6722.900000
2200.142309	6716.100000
2201.762421	6716.800000
2203.380536	6731.400000
2204.998336	6728.200000
2206.615821	6720.500000
2208.232990	6723.800000
2209.849844	6738.400000
2211.466382	6735.000000
2213.080928	6708.500000
2214.693481	6727.000000
2216.307398	6718.000000
2217.919324	6722.400000
2219.532613	6728.300000
2221.143912	6720.200000
2222.753221	6710.700000
2224.363894	6734.500000
2225.972578	6737.800000
2227.580949	6717.800000
2229.187334	6732.400000
2230.795082	6716.100000
2232.400843	6711.200000
2234.006293	6708.500000
2235.609758	6712.900000
2237.214586	6736.500000
2238.817430	6726.200000
2240.418291	6735.100000
2242.020515	6735.600000
2243.620757	6716.800000
2245.222361	6744.500000
2246.820312	6728.500000
2248.419626	6723.200000
2250.016960	6718.400000
2251.613986	6733.900000
2253.212374	6743.700000
2254.807113	6723.000000
2256.399875	6734.200000
2257.994000	6727.200000
2259.589486	6745.400000
2261.181327	6722.300000
2262.772862	6723.500000
2264.365759	6738.400000
2265.953346	6704.100000
2267.545629	6722.900000
2269.132606	6723.900000
2270.722610	6709.100000
2272.307310	6723.700000
2273.896704	6729.800000
2275.480796	6718.200000
2277.066248	6742.400000
2278.649732	6708.200000
2280.236241	6729.500000
2281.819117	6725.300000
2283.401690	6700.500000
2284.983959	6721.900000
2286.562598	6723.100000
2288.144262	6704.700000
2289.722297	6717.300000
2291.303355	6707.900000
2292.880786	6714.450000
2294.456254	6721.000000
2296.034744	6716.000000
2297.609610	6706.900000
2299.184175	6735.700000
2300.758440	6741.400000
2302.332404	6731.500000
2303.906067	6743.500000
2305.479431	6714.500000
2307.049176	6722.600000
2308.618622	6732.400000
2310.191086	6714.500000
2311.758276	6707.600000
2313.328484	6716.000000
2314.895077	6712.400000
2316.463030	6715.100000
2318.029027	6715.400000
2319.594727	6723.800000
2321.160129	6733.300000
2322.723578	6727.800000
2324.288386	6739.500000
2325.849586	6759.600000
2327.413800	6774.400000
2328.972752	6790.500000
2330.534719	6775.200000
2332.094734	6724.900000
2333.654455	6722.600000
2335.212226	6716.000000
2336.769702	6723.500000
2338.326884	6723.600000
2339.882118	6733.000000
2341.437059	6729.700000
2342.991705	6741.400000
2344.546058	6732.400000
2346.100118	6708.100000
2347.653883	6749.400000
2349.205704	6738.600000
2350.755583	6723.100000
2352.308469	6730.900000
2353.856112	6742.800000
2355.406764	6718.700000
2356.953824	6734.000000
2358.502242	6730.400000
2360.050369	6715.900000
2361.594907	6745.500000
2363.140803	6718.400000
2364.684761	6730.100000
2366.230076	6715.100000
2367.771806	6730.200000
2369.314893	6723.400000
2370.856044	6739.900000
2372.396906	6738.000000
2373.937479	6747.700000
2375.477763	6737.800000
2377.017758	6733.900000
2378.554175	6725.400000
2380.093593	6741.500000
2381.629433	6746.400000
2383.166631	6724.700000
2384.700253	6724.200000
2386.236875	6720.800000
2387.771567	6711.200000
2389.304329	6727.500000
2390.836804	6724.300000
2392.367351	6733.300000
2393.900896	6748.400000
2395.429230	6733.600000
2396.958921	6723.400000
2398.488325	6746.500000
2400.017445	6745.400000
2401.546280	6746.900000
2403.069909	6720.500000
2404.598174	6720.700000
2406.121237	6717.600000
2407.648933	6735.800000
2409.169790	6746.700000
2410.695280	6738.800000
2412.217209	6732.500000
2413.740494	6743.200000
2415.261857	6753.300000
2416.781301	6745.600000
2418.302100	6765.100000
2419.820981	6742.100000
2421.339579	6734.900000
2422.856260	6744.800000
2424.374295	6763.900000
2425.892049	6753.400000
2427.406252	6736.700000
2428.920174	6745.400000
2430.433816	6722.700000
2431.948813	6773.000000
2433.460261	6737.200000
2434.973064	6745.000000
2436.483953	6754.000000
2437.994564	6746.000000
2439.503263	6736.700000
2441.014948	6751.600000
2442.523090	6742.000000
2444.030954	6729.500000
2445.538540	6738.100000
2447.042585	6756.800000
2448.549615	6747.700000
2450.054737	6746.400000
2451.559582	6746.900000
2453.062520	6728.700000
2454.565182	6741.100000
2456.067567	6751.200000
2457.568047	6726.400000
2459.069880	6736.000000
2460.569808	6731.100000
2462.069461	6734.600000
2463.568839	6747.700000
2465.066314	6729.400000
2466.561887	6711.800000
2468.060440	6730.200000
2469.555465	6739.600000
2471.051842	6737.700000
2472.544693	6733.300000
2474.038897	6733.500000
2475.532827	6749.400000
2477.023233	6728.300000
2478.516617	6733.100000
2480.008103	6748.700000
2481.497692	6751.000000
2482.987009	6736.400000
2484.474430	6736.700000
2485.964827	6720.900000
2487.451706	6728.900000
2488.939936	6745.600000
2490.424649	6722.500000
2491.909093	6725.800000
2493.394887	6734.500000
2494.878790	6742.500000
2496.364043	6739.500000
2497.844163	6738.400000
2499.327256	6744.000000
2500.808458	6739.000000
2502.289391	6734.600000
2503.768435	6734.400000
2505.247210	6737.500000
2506.725717	6764.800000
2508.203956	6736.900000
2509.681926	6734.500000
2511.156391	6740.000000
2512.633826	6742.000000
2514.107757	6749.700000
2515.583038	6745.600000
2517.058052	6741.800000
2518.529565	6744.800000
2520.002429	6747.900000
2521.473410	6747.800000
2522.945741	6741.600000
2524.412958	6735.800000
2525.883142	6744.900000
2527.351445	6738.300000
2528.819483	6745.100000
2530.287256	6747.800000
2531.754764	6714.300000
2533.222007	6751.200000
2534.685758	6739.000000
2536.150859	6734.900000
2537.614083	6749.900000
2539.078656	6747.700000
2540.539741	6741.900000
2542.002175	6773.700000
2543.464346	6748.400000
2544.923031	6735.200000
2546.386287	6734.600000
2547.844448	6734.300000
2549.303957	6738.600000
2550.758372	6752.200000
2552.217358	6760.100000
2553.674472	6735.500000
2555.129715	6772.400000
2556.584696	6755.600000
2558.037809	6737.900000
2559.492270	6771.000000
2560.944861	6733.300000
2562.397193	6734.400000
2563.847658	6726.800000
2565.301078	6737.800000
2566.749416	6732.200000
2568.200709	6743.100000
2569.650137	6744.300000
2571.096092	6728.400000
2572.545002	6756.400000
2573.990442	6753.700000
2575.437229	6730.700000
2576.882154	6740.000000
2578.326820	6749.900000
2579.772834	6747.400000
2581.215382	6734.600000
2582.659277	6736.900000
2584.099707	6743.200000
2585.541484	6749.200000
2586.981402	6754.800000
2588.422667	6746.400000
2589.860470	6749.800000
2591.301223	6743.500000
2592.736914	6742.500000
2594.175554	6761.800000
2595.612336	6759.400000
2597.047263	6758.200000
2598.485137	6766.800000
2599.917954	6767.400000
2601.352118	6760.700000
2602.784428	6769.100000
2604.218084	6776.300000
2605.649887	6758.500000
2607.081436	6768.100000
2608.512733	6770.500000
2609.942177	6761.400000
2611.371369	6782.800000
2612.798711	6762.000000
2614.227398	6765.900000
2615.655834	6773.000000
2617.080822	6755.700000
2618.507157	6781.300000
2619.931643	6766.500000
2621.357475	6772.200000
2622.779863	6777.800000
2624.203597	6782.900000
2625.625484	6803.500000
2627.047122	6781.500000
2628.466914	6786.200000
2629.888052	6789.200000
2631.308940	6782.700000
2632.726390	6795.500000
2634.146779	6780.600000
2635.563731	6807.100000
2636.980434	6794.700000
2638.396889	6791.800000
2639.813096	6813.100000
2641.229055	6795.700000
2642.643173	6802.400000
2644.057043	6823.500000
2645.469075	6788.200000
2646.882450	6825.600000
2648.292396	6807.000000
2649.705278	6823.200000
2651.114731	6822.400000
2652.523938	6824.700000
2653.931309	6811.600000
2655.341614	6826.800000
2656.750084	6828.800000
2658.156718	6827.500000
2659.563107	6830.800000
2660.967662	6837.900000
2662.373561	6827.300000
2663.777627	6826.500000
2665.181448	6820.700000
2666.585025	6850.000000
2667.986771	6847.100000
2669.389860	6823.400000
2670.789531	6824.300000
2672.190546	6835.000000
2673.588145	6844.300000
2674.988674	6840.400000
2676.385787	6830.800000
2677.784244	6830.000000
2679.180874	6827.000000
2680.577261	6817.000000
2681.973406	6843.700000
2683.367725	6837.100000
2684.763387	6823.900000
2686.155640	6808.000000
2687.549235	6816.200000
2688.941006	6811.100000
2690.334120	6830.900000
2691.725410	6814.900000
2693.114877	6802.700000
2694.504104	6824.500000
2695.893092	6807.900000
2697.283421	6788.700000
2698.668767	6798.100000
2700.057036	6791.700000
2701.443485	6802.400000
2702.829695	6775.500000
2704.215666	6795.400000
2705.598239	6796.100000
2706.982154	6781.900000
2708.365831	6779.100000
2709.749269	6775.300000
2711.129313	6775.400000
2712.510697	6777.800000
2713.890267	6784.700000
2715.271177	6759.600000
2716.650273	6792.700000
2718.027555	6764.400000
2719.406178	6759.200000
2720.782988	6766.200000
2722.159561	6776.300000
2723.535899	6779.500000
2724.910426	6766.400000
2726.286293	6746.100000
2727.658773	6752.200000
2729.034169	6751.500000
2730.404605	6760.800000
2731.776382	6772.800000
2733.147924	6754.600000
2734.517658	6728.200000
2735.888733	6755.900000
2737.257999	6753.700000
2738.627032	6747.900000
2739.994259	6752.900000
2741.361252	6750.500000
2742.728013	6744.200000
2744.094542	6761.400000
2745.459265	6746.700000
2746.823756	6729.500000
2748.188016	6749.800000
2749.552043	6739.800000
2750.915839	6746.800000
2752.276261	6743.700000
2753.639593	6757.000000
2754.997983	6726.000000
2756.359283	6730.300000
2757.717213	6730.900000
2759.078051	6756.200000
2760.437090	6730.100000
2761.792760	6722.900000
2763.151338	6741.700000
2764.506549	6737.700000
2765.861531	6730.100000
2767.214717	6731.600000
2768.570809	6713.100000
2769.923536	6717.100000
2771.276036	6739.400000
2772.628307	6713.600000
2773.981916	6722.900000
2775.332165	6741.300000
2776.680619	6737.900000
2778.031979	6731.700000
2779.379979	6713.700000
2780.729317	6729.400000
2782.076863	6727.700000
2783.424183	6701.900000
2784.771276	6724.000000
2786.116578	6721.500000
2787.461653	6750.300000
2788.806503	6697.300000
2790.151127	6706.600000
2791.492399	6709.700000
2792.835009	6730.500000
2794.177393	6725.300000
2795.519552	6733.200000
2796.858362	6728.600000
2798.200072	6709.600000
2799.538434	6713.300000
2800.878132	6737.000000
2802.216046	6744.800000
2803.552175	6725.200000
2804.888080	6716.400000
2806.225323	6721.100000
2807.560782	6710.500000
2808.896018	6730.600000
2810.229471	6733.200000
2811.564261	6734.000000
2812.895711	6728.300000
2814.230056	6732.600000
2815.559503	6723.500000
2816.890287	6737.600000
2818.220849	6736.600000
2819.549632	6721.900000
2820.879751	6734.900000
2822.208092	6724.800000
2823.536212	6748.400000
2824.862554	6729.900000
2826.190233	6726.800000
2827.514578	6734.700000
2828.840260	6732.000000
2830.164166	6730.800000
2831.487853	6732.300000
2832.812875	6740.700000
2834.134567	6729.300000
2835.456041	6721.900000
2836.777296	6723.800000
2838.098332	6700.200000
2839.417595	6720.400000
2840.738194	6723.500000
2842.057022	6732.000000
2843.375631	6723.400000
2844.692469	6723.600000
2846.009090	6723.300000
2847.325494	6730.300000
2848.640128	6729.200000
2849.956098	6723.800000
2851.268747	6718.600000
2852.582731	6723.800000
2853.896499	6720.600000
2855.210050	6732.700000
2856.521835	6726.900000
2857.831853	6719.000000
2859.143206	6713.800000
2860.451244	6730.300000
2861.760616	6723.500000
2863.069774	6730.600000
2864.378716	6713.400000
2865.685894	6709.200000
2866.991310	6721.300000
2868.298060	6729.600000
2869.603047	6724.300000
2870.907821	6752.900000
2872.210833	6722.600000
2873.516726	6738.600000
2874.817765	6733.100000
2876.120138	6720.600000
2877.420751	6725.800000
2878.722698	6724.200000
2880.024431	6732.300000
2881.322861	6728.500000
2882.622624	6729.800000
2883.920630	6742.600000
2885.218424	6698.100000
2886.514462	6703.500000
2887.811833	6726.900000
2889.107448	6699.100000
2890.402852	6720.500000
2891.698045	6714.900000
2892.989941	6706.100000
2894.284713	6724.800000
2895.576188	6725.100000
2896.868996	6729.900000
2898.161594	6715.500000
2899.450898	6732.700000
2900.741534	6737.600000
2902.030419	6723.800000
2903.320636	6696.600000
2904.607562	6709.900000
2905.895820	6703.400000
2907.182329	6726.000000
2908.468629	6715.700000
2909.754722	6728.400000
2911.039066	6723.800000
2912.326281	6729.200000
2913.608670	6696.400000
2914.892391	6709.600000
2916.174366	6724.500000
2917.456133	6726.100000
2918.736156	6707.400000
2920.019048	6732.300000
2921.300195	6721.600000
2922.578060	6709.000000
2923.858794	6721.400000
2925.136247	6718.900000
2926.413494	6686.700000
2927.688999	6720.500000
2928.967372	6722.300000
2930.240931	6715.600000
2931.517357	6724.500000
2932.792042	6721.000000
2934.064986	6689.000000
2935.339262	6725.700000
2936.611798	6720.400000
2937.884129	6712.900000
2939.153188	6711.600000
2940.425112	6713.400000
2941.695298	6720.000000
2942.965280	6704.900000
2944.235059	6703.500000
2945.503102	6704.400000
2946.769408	6701.400000
2948.035513	6712.500000
2949.302947	6722.500000
2950.568647	6716.300000
2951.834144	6710.500000
2953.099439	6703.400000
2954.361469	6700.700000
2955.624829	6705.000000
2956.887988	6696.200000
2958.149415	6687.400000
2959.412171	6703.000000
2960.673195	6720.600000
2961.932489	6686.400000
2963.191583	6694.900000
2964.450476	6701.000000
2965.709169	6704.800000
2966.967662	6713.300000
2968.224426	6709.300000
2969.480990	6694.700000
2970.735827	6691.000000
2971.991992	6698.300000
2973.244903	6698.700000
2974.499143	6690.900000
2975.753184	6686.700000
2977.005499	6697.100000
2978.257615	6695.800000
2979.508007	6688.000000
2980.761254	6708.600000
2982.009724	6706.200000
2983.261049	6706.200000
2984.509124	6702.400000
2985.757003	6684.400000
2987.004684	6688.800000
2988.252168	6689.500000
2989.497931	6708.200000
2990.743498	6728.600000
2991.990392	6702.800000
2993.234042	6696.500000
2994.479020	6695.200000
2995.720754	6705.800000
2996.965340	6693.900000
2998.208207	6681.800000
2999.447833	6708.600000
3000.690309	6706.900000
3001.929545	6706.500000
3003.170109	6687.100000
3004.408957	6695.000000
3005.647609	6688.200000
3006.884546	6694.300000
3008.122811	6686.000000
3009.359360	6718.000000
3010.595716	6695.700000
3011.831878	6692.000000
3013.066326	6711.700000
3014.300582	6698.400000
3015.534644	6695.400000
3016.766994	6705.200000
3017.997632	6695.700000
3019.231116	6709.900000
3020.462888	6712.200000
3021.692950	6693.800000
3022.922819	6706.700000
3024.150980	6718.800000
3025.380466	6699.500000
3026.608243	6693.600000
3027.835829	6691.900000
3029.064742	6697.900000
3030.288912	6699.800000
3031.515925	6699.100000
3032.739714	6691.600000
3033.964830	6704.000000
3035.188239	6698.700000
3036.411458	6681.200000
3037.632972	6697.700000
3038.857327	6690.200000
3040.076947	6692.200000
3041.297893	6698.700000
3042.518650	6681.300000
3043.737703	6707.700000
3044.958081	6690.400000
3046.175243	6680.300000
3047.393731	6682.300000
3048.610516	6703.100000
3049.827114	6696.900000
3051.043523	6685.600000
3052.256720	6702.800000
3053.472754	6694.300000
3054.685576	6693.000000
3055.901235	6692.600000
3057.112171	6703.100000
3058.324432	6686.000000
3059.536507	6690.000000
3060.748394	6673.400000
3061.958585	6697.300000
3063.168589	6692.000000
3064.378407	6683.400000
3065.586529	6696.500000
3066.794466	6681.100000
3068.000707	6667.800000
3069.208273	6691.000000
3070.414144	6681.900000
3071.619831	6672.800000
3072.825332	6695.800000
3074.029140	6689.700000
3075.234272	6702.100000
3076.437711	6669.700000
3077.639459	6700.100000
3078.841022	6705.600000
3080.042402	6677.400000
3081.243598	6656.500000
3082.443104	6672.800000
3083.642427	6701.900000
3084.843073	6679.600000
3086.042029	6676.700000
3087.237791	6711.900000
3088.436382	6680.600000
3089.631779	6674.600000
3090.828499	6692.100000
3092.022027	6681.000000
3093.218383	6685.600000
3094.413053	6681.000000
3095.604532	6681.800000
3096.800342	6677.200000
3097.991458	6697.700000
3099.183898	6688.200000
3100.373150	6696.900000
3101.565227	6672.300000
3102.755621	6687.400000
3103.942829	6687.400000
3105.131360	6699.400000
3106.321212	6684.300000
3107.507881	6686.700000
3108.694369	6661.600000
3109.880679	6680.200000
3111.068310	6680.100000
3112.252759	6676.400000
3113.435529	6661.800000
3114.621121	6681.700000
3115.805034	6659.100000
3116.987268	6685.100000
3118.169323	6679.600000
3119.351200	6681.500000
3120.532899	6680.700000
3121.712921	6678.700000
3122.891266	6670.800000
3124.072431	6678.800000
3125.250421	6692.400000
3126.428235	6683.600000
3127.605871	6672.400000
3128.781832	6671.700000
3129.957616	6690.500000
3131.134722	6675.600000
3132.310153	6686.300000
3133.483911	6665.000000
3134.655996	6690.800000
3135.829403	6672.000000
3137.002633	6678.200000
3138.174192	6682.700000
3139.347071	6673.400000
3140.516783	6672.100000
3141.687816	6677.300000
3142.857179	6682.600000
3144.024871	6689.500000
3145.195379	6676.700000
3146.361229	6673.000000
3147.531387	6685.000000
3148.696889	6664.500000
3149.862216	6693.200000
3151.027370	6678.300000
3152.192351	6676.100000
3153.358651	6652.800000
3154.520299	6670.400000
3155.683266	6668.100000
3156.846061	6685.500000
3158.008683	6682.000000
3159.169640	6677.600000
3160.330424	6668.000000
3161.491036	6654.800000
3162.649984	6670.800000
3163.808761	6661.400000
3164.967366	6648.200000
3166.125798	6673.000000
3167.284060	6661.800000
3168.440659	6678.300000
3169.595597	6663.400000
3170.751854	6656.500000
3171.906450	6665.800000
3173.060876	6662.600000
3174.213642	6672.800000
3175.366237	6677.900000
3176.518663	6670.300000
3177.670919	6665.700000
3178.823004	6672.400000
3179.971944	6664.600000
3181.123690	6653.000000
3182.273778	6669.200000
3183.422210	6693.600000
3184.570472	6691.200000
3185.718566	6691.100000
3186.866491	6660.500000
3188.012760	6680.600000
3189.158861	6691.100000
3190.303308	6683.400000
3191.447587	6670.100000
3192.591698	6670.200000
3193.737126	6688.600000
3194.879416	6701.600000
3196.021539	6675.200000
3197.163494	6686.300000
3198.305282	6691.700000
3199.446903	6672.100000
3200.585389	6681.800000
3201.725192	6665.300000
3202.866313	6686.000000
3204.004299	6691.500000
3205.140636	6670.000000
3206.276807	6688.500000
3207.414295	6684.500000
3208.550135	6691.600000
3209.687292	6680.100000
3210.819836	6686.700000
3211.956662	6701.200000
3213.088876	6673.000000
3214.222407	6675.100000
3215.355774	6648.900000
3216.486013	6685.600000
3217.619050	6683.100000
3218.748961	6661.500000
3219.880188	6671.100000
3221.008291	6663.300000
3222.139190	6657.700000
3223.268445	6665.800000
3224.396057	6650.900000
3225.520546	6669.600000
3226.649311	6657.400000
3227.774954	6651.800000
3228.900435	6671.300000
3230.024274	6677.200000
3231.150907	6648.900000
3232.272943	6660.100000
3233.396295	6672.800000
3234.519485	6652.700000
3235.642512	6690.600000
3236.763901	6683.500000
3237.885127	6661.300000
3239.004716	6663.500000
3240.124143	6650.900000
3241.241932	6686.100000
3242.362513	6655.000000
3243.479981	6659.700000
3244.597288	6666.500000
3245.714435	6668.100000
3246.829946	6665.400000
3247.946771	6666.800000
3249.060487	6661.600000
3250.176992	6669.400000
3251.291863	6664.800000
3252.403625	6675.800000
3253.515227	6676.700000
3254.628145	6676.900000
3255.740903	6679.300000
3256.850555	6651.700000
3257.961522	6659.600000
3259.072330	6683.300000
3260.181506	6669.700000
3261.289052	6660.800000
3262.397911	6670.200000
3263.506613	6671.800000
3264.612212	6661.400000
3265.719125	6651.300000
3266.824409	6643.700000
3267.931007	6657.500000
3269.034505	6671.800000
3270.139318	6679.000000
3271.243973	6661.100000
3272.345529	6651.200000
3273.446929	6675.700000
3274.549643	6670.300000
3275.652201	6682.000000
3276.751662	6656.900000
3277.853907	6652.900000
3278.953056	6666.400000
3280.050581	6661.300000
3281.147950	6674.900000
3282.248101	6660.900000
3283.345160	6667.300000
3284.442063	6667.600000
3285.538811	6675.700000
3286.631001	6664.100000
3287.727439	6670.200000
3288.822255	6630.000000
3289.916917	6661.200000
3291.009957	6648.300000
3292.102842	6665.200000
3293.194108	6657.900000
3294.286685	6665.600000
3295.377643	6666.600000
3296.466981	6652.300000
3297.556166	6658.300000
3298.646664	6647.900000
3299.734077	6665.800000
3300.821337	6671.500000
3301.909910	6651.200000
3302.998331	6667.700000
3304.082204	6654.000000
3305.170319	6666.500000
3306.255352	6657.300000
3307.338770	6656.500000
3308.423500	6659.100000
3309.506614	6661.300000
3310.591041	6659.000000
3311.672389	6656.700000
3312.755049	6670.900000
3313.836095	6671.200000
3314.916990	6662.500000
3315.996271	6681.500000
3317.075402	6663.500000
3318.155845	6654.200000
3319.233213	6663.400000
3320.311893	6673.700000
3321.388961	6660.300000
3322.465880	6664.000000
3323.541187	6660.300000
3324.616345	6664.100000
3325.692814	6651.100000
3326.766213	6682.000000
3327.839463	6663.300000
3328.914023	6657.000000
3329.986975	6658.200000
3331.058318	6662.800000
3332.130972	6662.800000
3333.200560	6665.100000
3334.271458	6665.500000
3335.340749	6664.900000
3336.411351	6658.000000
3337.480346	6633.900000
3338.547735	6656.200000
3339.613519	6641.100000
3340.683529	6643.100000
3341.750476	6652.600000
3342.814361	6658.900000
3343.881014	6654.100000
3344.946062	6663.900000
3346.009507	6650.700000
3347.072806	6667.400000
3348.135958	6646.300000
3349.198964	6652.900000
3350.261824	6654.000000
3351.323082	6667.800000
3352.381283	6668.000000
3353.443704	6644.800000
3354.503070	6643.400000
3355.562290	6662.600000
3356.622820	6668.800000
3357.678840	6645.500000
3358.737624	6661.800000
3359.791901	6669.100000
3360.848942	6657.900000
3361.904384	6641.900000
3362.961136	6663.400000
3364.016289	6651.400000
3365.069845	6661.100000
3366.121805	6658.600000
3367.176526	6653.100000
3368.228198	6672.500000
3369.279727	6640.100000
3370.332564	6641.900000
3371.382354	6651.900000
3372.433453	6657.200000
3373.481506	6649.500000
3374.532318	6640.500000
3375.580086	6668.600000
3376.627711	6652.200000
3377.675193	6654.300000
3378.721083	6651.800000
3379.768281	6634.700000
3380.812437	6658.100000
3381.859351	6648.700000
3382.904673	6649.300000
3383.946954	6640.100000
3384.989095	6654.100000
3386.032543	6655.000000
3387.075850	6652.500000
3388.117568	6654.300000
3389.159144	6648.600000
3390.200579	6679.600000
3391.240426	6658.600000
3392.278684	6666.600000
3393.318250	6646.200000
3394.357676	6669.700000
3395.395514	6672.700000
3396.431765	6658.900000
3397.467877	6658.400000
3398.505296	6639.300000
3399.539682	6650.100000
3400.575375	6643.700000
3401.610929	6645.200000
3402.643452	6638.200000
3403.678728	6640.200000
3404.710973	6654.800000
3405.743080	6655.000000
3406.773603	6645.900000
3407.805433	6652.200000
3408.837125	6643.600000
3409.865789	6662.600000
3410.894316	6662.100000
3411.924149	6653.000000
3412.953845	6651.000000
3413.980515	6635.700000
3415.008492	6642.300000
3416.033444	6651.000000
3417.061146	6659.800000
3418.085825	6643.300000
3419.111810	6651.800000
3420.136215	6646.500000
3421.160484	6664.300000
3422.183174	6657.000000
3423.205728	6650.600000
3424.229588	6634.500000
3425.250428	6658.800000
3426.271132	6634.500000
3427.293143	6659.300000
3428.312135	6643.000000
3429.330991	6648.400000
3430.351154	6641.800000
3431.368300	6662.500000
