-117.888313	555.900000
-115.218713	511.500000
-112.552048	531.700000
-109.886135	532.200000
-107.223154	538.700000
-104.558744	573.000000
-101.897264	532.100000
-99.234355	545.000000
-96.576552	534.000000
-93.917320	588.300000
-91.258836	525.200000
-88.603276	566.700000
-85.946288	568.900000
-83.294398	546.200000
-80.641078	541.100000
-77.990677	572.200000
-75.338847	600.200000
-72.692108	563.200000
-70.043940	564.400000
-67.396514	596.700000
-64.752002	578.700000
-62.106062	564.300000
-59.465203	567.500000
-56.822915	586.900000
-54.183536	581.100000
-51.542727	593.700000
-48.902659	605.900000
-46.267663	580.500000
-43.631239	602.000000
-40.997717	612.500000
-38.362767	599.700000
-35.732882	609.200000
-33.099405	624.300000
-30.470990	647.500000
-27.843309	635.700000
-25.214199	659.000000
-22.590146	635.500000
-19.962504	665.100000
-17.339915	662.900000
-14.718058	729.100000
-12.096931	793.100000
-9.476534	1045.100000
-6.859026	2029.600000
-4.240089	4719.300000
-1.624037	10130.100000
0.991286	10253.200000
3.605882	5758.900000
6.217595	1191.200000
8.830737	781.500000
11.438845	744.600000
14.050535	717.800000
16.657194	730.000000
19.265281	719.500000
21.872644	750.000000
24.474982	742.500000
27.080898	738.000000
29.681792	723.000000
32.284114	762.500000
34.881419	781.700000
37.482299	774.000000
40.078164	793.600000
42.675458	797.400000
45.272032	804.700000
47.863597	839.800000
50.456590	828.000000
53.046722	824.600000
55.638282	832.500000
58.226982	879.000000
60.817109	853.900000
63.402237	896.900000
65.988793	908.200000
68.574635	913.300000
71.157623	937.700000
73.742037	960.300000
76.319323	967.000000
78.900175	971.600000
81.478178	980.400000
84.055471	1016.700000
86.634190	1042.100000
89.207927	1088.600000
91.783092	1096.200000
94.355413	1162.400000
96.927026	1188.400000
99.495799	1270.100000
102.065999	1307.000000
104.633361	1431.200000
107.202148	1523.500000
109.768099	1726.900000
112.331215	2015.800000
114.897887	2397.200000
117.455338	2930.800000
120.018474	3771.800000
122.576650	5095.300000
125.138381	6287.200000
127.695155	6539.000000
130.253356	6580.400000
132.806603	6633.800000
135.359153	6693.000000
137.915253	6812.300000
140.466405	6924.300000
143.016860	7032.200000
145.566617	7072.600000
148.113555	7140.100000
150.659798	7134.500000
153.207466	7194.500000
155.754438	7200.500000
158.296475	7175.300000
160.837818	7178.400000
163.378468	7198.700000
165.920544	7177.300000
168.459808	7186.300000
170.996264	7157.500000
173.532028	7184.400000
176.069218	7160.600000
178.605717	7164.500000
181.139410	7171.200000
183.670299	7163.300000
186.200501	7146.900000
188.732127	7176.700000
191.260952	7152.200000
193.786978	7152.200000
196.312318	7152.900000
198.839083	7140.500000
201.363052	7175.100000
203.886336	7142.100000
206.408935	7176.900000
208.928741	7144.400000
211.447864	7138.400000
213.966304	7134.500000
216.486168	7145.100000
218.999031	7150.100000
221.515425	7165.600000
224.031137	7149.200000
226.541959	7159.600000
229.054206	7156.200000
231.563671	7177.700000
234.072457	7173.100000
236.580564	7174.600000
239.090096	7165.800000
241.594747	7196.600000
244.098722	7199.200000
246.604121	7168.700000
249.104645	7202.600000
251.608693	7177.400000
254.105769	7195.800000
256.606369	7218.900000
259.104197	7175.900000
261.601352	7208.600000
264.097834	7175.400000
266.589453	7224.900000
269.084592	7208.300000
271.576964	7198.300000
274.068666	7217.000000
276.557605	7222.100000
279.047968	7221.600000
281.535568	7218.900000
284.020409	7234.300000
286.508765	7238.700000
288.990181	7210.400000
291.475111	7222.800000
293.955196	7196.000000
296.438793	7207.300000
298.917547	7225.900000
301.397725	7264.700000
303.875150	7276.300000
306.351912	7275.400000
308.828011	7273.800000
311.301361	7299.900000
313.774049	7329.000000
316.246076	7363.400000
318.717442	7478.800000
321.186063	7538.000000
323.654026	7542.600000
326.123410	7480.100000
328.587972	7362.200000
331.056038	7326.800000
333.519284	7294.000000
335.981872	7316.700000
338.443804	7286.300000
340.905079	7310.900000
343.363620	7301.000000
345.823583	7309.700000
348.280813	7304.400000
350.737389	7305.300000
353.193311	7308.000000
355.646503	7290.100000
358.101118	7294.500000
360.550931	7299.500000
363.004240	7309.800000
365.452751	7306.600000
367.900610	7270.100000
370.349892	7287.600000
372.794380	7301.600000
375.240290	7294.000000
377.685550	7280.500000
380.128092	7278.500000
382.569986	7287.300000
385.011233	7271.400000
387.449764	7296.000000
389.889717	7307.300000
392.326956	7270.400000
394.761483	7292.500000
397.199498	7315.800000
399.632736	7295.400000
402.067395	7306.200000
404.497282	7302.100000
406.930654	7288.800000
409.359256	7296.900000
411.787216	7296.700000
414.216598	7316.300000
416.641214	7309.000000
419.067252	7295.700000
421.492649	7308.500000
423.917406	7300.000000
426.337405	7317.100000
428.758825	7326.500000
431.177548	7323.400000
433.597692	7332.100000
436.015141	7338.200000
438.434010	7311.300000
440.850186	7296.200000
443.261614	7326.600000
445.676520	7297.900000
448.088735	7315.100000
450.500316	7284.800000
452.911263	7302.200000
455.319524	7296.800000
457.727152	7288.300000
460.134148	7304.100000
462.540513	7293.700000
464.944195	7292.700000
467.347247	7264.500000
469.749669	7269.600000
472.151461	7249.200000
474.550576	7258.100000
476.951110	7266.200000
479.351015	7287.900000
481.746197	7251.800000
484.144846	7266.100000
486.538775	7309.000000
488.932078	7275.200000
491.324755	7268.900000
493.716807	7224.800000
496.110277	7211.400000
498.499035	7158.500000
500.885127	7172.300000
503.272639	7149.700000
505.659528	7102.100000
508.043753	7071.200000
510.429396	7062.300000
512.812378	7045.000000
515.192699	7043.700000
517.574439	7010.100000
519.953520	7000.800000
522.334020	6997.200000
524.711862	6984.100000
527.087049	6978.700000
529.461618	6963.200000
531.837605	6950.200000
534.210940	6961.900000
536.585692	6959.400000
538.955759	6924.500000
541.325210	6968.100000
543.696079	6935.200000
546.062268	6925.500000
548.429875	6936.400000
550.794836	6921.500000
553.159184	6929.300000
555.522919	6917.400000
557.888072	6929.800000
560.248553	6919.000000
562.610452	6926.200000
564.969710	6904.000000
567.326331	6915.500000
569.686396	6903.500000
572.039770	6899.600000
574.396589	6898.800000
576.750773	6905.800000
579.104349	6892.600000
581.457316	6908.200000
583.807651	6881.600000
586.159404	6915.800000
588.504480	6900.500000
590.855020	6890.100000
593.198886	6893.700000
595.548214	6886.600000
597.892893	6894.500000
600.234948	6907.500000
602.578420	6909.400000
604.919269	6888.000000
607.259516	6897.100000
609.597142	6893.300000
611.938203	6864.400000
614.274626	6886.000000
616.612466	6874.900000
618.947689	6866.100000
621.280296	6862.000000
623.614319	6882.600000
625.945728	6862.000000
628.276539	6850.900000
630.606753	6878.300000
632.936368	6844.600000
635.261360	6856.900000
637.591794	6839.600000
639.917607	6846.600000
642.240812	6863.100000
644.565434	6844.400000
646.887450	6868.100000
649.208872	6817.700000
651.527692	6868.800000
653.847927	6824.900000
656.167569	6834.700000
658.484610	6830.900000
660.801059	6826.300000
663.114910	6819.500000
665.430177	6838.100000
667.742847	6829.300000
670.056932	6838.300000
672.366417	6810.100000
674.677318	6833.500000
676.985626	6829.000000
679.293346	6816.300000
681.602480	6813.600000
683.907022	6809.800000
686.210978	6813.900000
688.514348	6814.900000
690.819132	6808.900000
693.119330	6816.200000
695.420942	6792.700000
697.721970	6799.100000
700.018415	6792.300000
702.316276	6824.600000
704.613553	6799.700000
706.910247	6807.800000
709.202365	6778.400000
711.497894	6805.600000
713.788849	6781.100000
716.081219	6791.400000
718.371014	6793.700000
720.660228	6800.800000
722.948863	6815.500000
725.234925	6787.000000
727.522402	6794.400000
729.807307	6813.000000
732.091635	6789.400000
734.373394	6831.000000
736.656567	6797.700000
738.939163	6810.900000
741.217203	6808.000000
743.496658	6821.500000
745.775536	6819.500000
748.053840	6826.600000
750.327594	6815.600000
752.602761	6845.300000
754.877355	6825.700000
757.149390	6814.900000
759.422838	6829.500000
761.693728	6826.900000
763.962062	6816.400000
766.231809	6826.200000
768.499002	6838.600000
770.765624	6858.900000
773.031676	6864.800000
775.295177	6843.100000
777.560091	6850.100000
779.824435	6854.500000
782.084250	6876.100000
784.345477	6846.000000
786.606137	6848.200000
788.864251	6865.100000
791.119820	6855.300000
793.378780	6849.200000
795.631241	6847.500000
797.889068	6854.000000
800.142377	6845.000000
802.393146	6843.800000
804.645327	6853.000000
806.894969	6834.500000
809.146024	6844.500000
811.392567	6839.800000
813.640522	6834.400000
815.885943	6834.900000
818.132775	6836.800000
820.379046	6832.700000
822.620812	6803.900000
824.865962	6820.900000
827.104639	6818.100000
829.346698	6818.300000
831.584259	6831.300000
833.823232	6810.900000
836.059678	6811.600000
838.297535	6805.200000
840.532867	6811.200000
842.765676	6840.400000
844.999896	6792.500000
847.231593	6820.900000
849.462736	6806.700000
851.693324	6826.700000
853.923358	6802.500000
856.152838	6792.500000
858.377836	6801.200000
860.606209	6801.400000
862.830102	6831.400000
865.055407	6801.200000
867.276236	6807.700000
869.500437	6786.100000
871.720165	6813.300000
873.941303	6813.500000
876.161891	6795.900000
878.379970	6820.400000
880.599458	6830.300000
882.814480	6812.800000
885.028955	6815.200000
887.242881	6813.500000
889.456261	6821.000000
891.669093	6812.400000
893.881379	6817.400000
896.091162	6815.100000
898.300400	6807.400000
900.509093	6829.200000
902.715287	6816.700000
904.922890	6808.200000
907.127995	6814.400000
909.332557	6824.300000
911.534624	6819.200000
913.738100	6780.800000
915.939082	6817.400000
918.139522	6822.900000
920.341371	6791.800000
922.536829	6805.600000
924.735646	6801.900000
926.930024	6801.700000
929.127760	6795.900000
931.321060	6835.500000
933.515769	6836.100000
935.707992	6811.200000
937.899676	6805.100000
940.090823	6821.000000
942.279487	6814.600000
944.467615	6831.100000
946.653262	6829.900000
948.842261	6850.600000
951.026837	6848.300000
953.210878	6850.200000
955.398269	6833.100000
957.577356	6861.200000
959.759794	6838.500000
961.941698	6879.800000
964.121127	6882.800000
966.298084	6861.900000
968.476449	6891.900000
970.656221	6890.800000
972.829644	6894.900000
975.006413	6899.500000
977.178775	6910.000000
979.352545	6933.000000
981.521911	6902.900000
983.694621	6942.100000
985.864866	6924.500000
988.034582	6914.900000
990.203769	6947.300000
992.368559	6952.800000
994.536690	6935.600000
996.700427	6936.000000
998.865570	6937.100000
1001.028254	6961.300000
1003.190413	6944.600000
1005.350115	6996.100000
1007.509292	6935.800000
1009.669876	6979.100000
1011.828006	6991.300000
1013.985611	6996.200000
1016.142693	6970.400000
1018.299251	6974.200000
1020.451430	6994.300000
1022.605016	6991.600000
1024.758080	6978.500000
1026.908695	7018.100000
1029.060717	7009.500000
1031.208365	6996.900000
1033.359345	7011.600000
1035.505954	7030.800000
1037.652044	7010.500000
1039.797616	7003.900000
1041.944593	7024.400000
1044.085281	7025.300000
1046.229299	7022.000000
1048.370876	7045.900000
1050.511937	7044.500000
1052.654402	7058.800000
1054.790588	7050.400000
1056.930099	7029.900000
1059.065256	7050.100000
1061.203737	7043.000000
1063.337864	7048.200000
1065.471478	7050.900000
1067.606497	7036.200000
1069.737166	7047.800000
1071.869240	7024.400000
1073.998885	7045.200000
1076.128018	7048.200000
1078.256639	7012.000000
1080.384749	7012.200000
1082.510433	7007.100000
1084.635607	7011.700000
1086.762185	7017.500000
1088.884425	6990.700000
1091.008070	7029.200000
1093.127380	6969.800000
1095.251920	7001.100000
1097.370214	6970.500000
1099.489913	6987.400000
1101.607193	6961.800000
1103.723967	6958.600000
1105.840234	6955.000000
1107.954085	6973.400000
1110.069341	6961.200000
1112.180273	6952.200000
1114.294518	6943.300000
1116.404442	6953.200000
1118.515770	6918.800000
1120.626593	6928.600000
1122.733100	6915.700000
1124.842917	6949.400000
1126.948419	6930.900000
1129.055324	6912.900000
1131.156014	6914.400000
1133.261916	6938.300000
1135.363509	6927.100000
1137.466505	6937.500000
1139.569000	6902.000000
1141.665288	6925.200000
1143.766784	6909.600000
1145.863976	6916.200000
1147.960671	6916.600000
1150.056867	6905.100000
1152.152566	6924.700000
1154.247766	6916.000000
1156.340570	6897.100000
1158.434777	6914.600000
1160.522792	6914.000000
1162.616005	6913.000000
1164.703030	6897.100000
1166.793354	6935.700000
1168.879391	6898.400000
1170.968725	6930.200000
1173.051878	6897.000000
1175.136433	6896.600000
1177.222390	6913.100000
1179.304065	6910.600000
1181.387142	6900.100000
1183.467833	6885.300000
1185.548032	6931.200000
1187.627740	6891.700000
1189.706957	6908.600000
1191.783792	6905.200000
1193.858246	6896.500000
1195.935991	6935.900000
1198.009467	6907.400000
1200.084343	6920.800000
1202.154952	6914.700000
1204.226962	6909.100000
1206.296597	6902.100000
1208.367632	6913.300000
1210.438179	6900.400000
1212.504465	6909.100000
1214.572152	6904.700000
1216.637467	6901.700000
1218.704182	6886.200000
1220.766641	6896.600000
1222.832385	6912.200000
1224.893875	6907.400000
1226.956766	6885.800000
1229.017289	6923.600000
1231.077328	6914.500000
1233.136885	6891.200000
1235.194076	6894.000000
1237.250786	6920.200000
1239.305132	6940.300000
1241.362760	6919.700000
1243.418025	6911.900000
1245.469049	6915.500000
1247.521473	6923.300000
1249.573417	6931.900000
1251.623003	6922.600000
1253.672110	6945.800000
1255.720739	6934.000000
1257.768889	6959.800000
1259.816560	6922.700000
1261.860001	6960.900000
1263.906718	6953.000000
1265.951081	6938.900000
1267.994968	6961.000000
1270.036503	6972.000000
1272.075689	6929.300000
1274.118148	6981.200000
1276.156384	6989.600000
1278.196019	6998.800000
1280.235179	6980.300000
1282.270120	6987.900000
1284.306460	7019.800000
1286.340456	7023.900000
1288.375849	7021.400000
1290.407030	7035.800000
1292.439608	7043.700000
1294.471715	7069.400000
1296.501481	7076.800000
1298.532645	7121.700000
1300.559601	7120.800000
1302.587955	7122.600000
1304.612104	7156.400000
1306.639519	7174.500000
1308.662731	7180.700000
1310.687341	7241.000000
1312.709617	7243.800000
1314.733290	7282.600000
1316.754630	7298.700000
1318.775502	7355.800000
1320.795907	7336.300000
1322.812119	7391.900000
1324.829728	7401.000000
1326.845009	7399.900000
1328.863549	7456.300000
1330.877900	7427.400000
1332.889925	7441.000000
1334.905207	7428.200000
1336.916304	7429.700000
1338.928798	7415.600000
1340.937109	7388.100000
1342.948675	7382.800000
1344.954203	7363.900000
1346.962986	7352.200000
1348.967591	7306.000000
1350.975450	7252.300000
1352.982847	7252.200000
1354.984213	7217.400000
1356.986975	7180.800000
1358.989278	7163.100000
1360.991121	7128.400000
1362.992504	7107.200000
1364.991574	7092.600000
1366.990185	7095.800000
1368.988338	7070.100000
1370.986032	7061.600000
1372.979564	7001.300000
1374.974491	7037.600000
1376.968962	7022.200000
1378.962976	7008.700000
1380.954683	7009.800000
1382.945935	6983.200000
1384.934881	6965.000000
1386.925222	6986.700000
1388.915108	6964.200000
1390.902690	6953.500000
1392.889819	6953.900000
1394.874646	6961.800000
1396.860868	6942.100000
1398.844790	6942.800000
1400.828259	6923.600000
1402.811275	6929.100000
1404.791994	6937.500000
1406.774107	6910.200000
1408.753924	6933.800000
1410.733289	6910.000000
1412.708516	6932.600000
1414.686981	6930.400000
1416.663153	6919.400000
1418.638876	6930.700000
1420.614149	6924.300000
1422.587131	6915.400000
1424.559665	6930.900000
1426.531751	6920.600000
1428.503390	6903.400000
1430.470900	6912.900000
1432.443484	6891.500000
1434.408262	6932.900000
1436.378113	6916.500000
1438.343840	6907.600000
1440.310959	6934.700000
1442.275795	6937.100000
1444.236511	6915.700000
1446.202295	6913.000000
1448.162124	6920.200000
1450.123347	6923.000000
1452.085962	6908.000000
1454.044462	6924.900000
1456.002519	6907.500000
1457.960135	6920.200000
1459.917308	6920.300000
1461.872206	6913.300000
1463.828497	6899.200000
1465.782513	6911.800000
1467.736088	6870.900000
1469.687391	6928.700000
1471.640087	6939.300000
1473.590510	6940.200000
1475.540495	6902.200000
1477.490041	6929.900000
1479.437318	6917.700000
1481.382327	6910.700000
1483.328729	6933.500000
1485.274693	6937.400000
1487.220220	6935.000000
1489.163481	6930.700000
1491.106307	6939.200000
1493.046869	6938.900000
1494.988822	6923.500000
1496.928513	6945.500000
1498.867770	6934.200000
1500.806591	6937.000000
1502.743153	6924.500000
1504.681106	6948.200000
1506.616800	6936.100000
1508.552061	6951.100000
1510.485066	6933.900000
1512.417638	6946.900000
1514.349778	6951.000000
1516.281486	6963.500000
1518.210940	6980.600000
1520.141785	6974.200000
1522.072198	6973.400000
1523.998539	6975.500000
1525.926271	7000.300000
1527.851752	6983.300000
1529.776804	7012.400000
1531.701427	7034.000000
1533.625621	7034.500000
1535.547567	7040.100000
1537.470904	7055.100000
1539.391994	7089.100000
1541.310840	7073.200000
1543.231076	7127.300000
1545.149069	7113.100000
1547.066635	7143.800000
1548.981959	7203.800000
1550.898673	7210.400000
1552.811332	7238.800000
1554.727195	7263.200000
1556.640818	7280.000000
1558.552203	7294.200000
1560.464978	7305.000000
1562.373703	7322.400000
1564.283817	7319.600000
1566.193508	7343.500000
1568.102776	7332.200000
1570.009810	7319.300000
1571.914611	7289.600000
1573.820801	7279.300000
1575.724759	7274.500000
1577.628296	7264.100000
1579.531413	7265.200000
1581.432300	7249.000000
1583.334576	7204.400000
1585.234624	7202.400000
1587.136059	7193.700000
1589.033461	7171.800000
1590.930444	7157.000000
1592.827009	7175.500000
1594.724962	7144.300000
1596.617080	7134.000000
1598.512391	7135.500000
1600.407285	7110.800000
1602.299957	7112.900000
1604.192212	7099.800000
1606.082248	7078.100000
1607.971868	7062.900000
1609.861073	7046.100000
1611.749863	7036.100000
1613.636435	7000.000000
1615.524395	7001.700000
1617.408338	7002.900000
1619.293668	6979.100000
1621.178585	6955.000000
1623.061288	6960.900000
1624.945378	6942.200000
1626.825456	6938.400000
1628.706922	6926.800000
1630.586177	6964.400000
1632.466818	6918.100000
1634.341655	6938.200000
1636.221473	6913.400000
1638.097287	6901.600000
1639.972690	6886.700000
1641.849479	6904.900000
1643.720472	6891.400000
1645.594646	6896.500000
1647.464821	6902.800000
1649.338178	6889.400000
1651.209331	6866.200000
1653.078282	6882.600000
1654.948618	6860.000000
1656.814962	6890.800000
1658.682691	6876.100000
1660.548221	6903.900000
1662.415137	6884.400000
1664.278064	6896.000000
1666.142376	6866.800000
1668.004492	6859.200000
1669.866203	6886.000000
1671.729300	6863.800000
1673.590201	6863.600000
1675.448910	6864.200000
1677.307215	6890.300000
1679.166905	6892.100000
1681.020827	6865.200000
1682.877923	6882.300000
1684.734616	6888.300000
1686.587332	6873.600000
1688.443220	6848.000000
1690.295134	6855.800000
1692.146647	6860.600000
1693.997759	6861.000000
1695.848471	6844.900000
1697.698782	6873.000000
1699.546908	6876.800000
1701.396419	6866.300000
1703.240181	6875.500000
1705.088892	6857.100000
1706.931857	6880.000000
1708.777989	6852.000000
1710.620158	6866.300000
1712.465493	6845.200000
1714.305087	6857.300000
1716.146065	6869.600000
1717.988426	6863.600000
1719.826831	6857.700000
1721.666619	6854.700000
1723.504232	6869.200000
1725.341449	6862.900000
1727.176493	6881.400000
1729.012920	6860.200000
1730.847175	6833.900000
1732.681035	6853.500000
1734.514501	6855.400000
1736.344022	6857.800000
1738.176701	6853.200000
1740.005436	6851.700000
1741.837328	6857.200000
1743.665278	6860.600000
1745.492837	6867.300000
1747.320003	6871.600000
1749.146778	6847.900000
1750.973161	6839.300000
1752.795608	6854.400000
1754.621210	6865.000000
1756.442877	6851.100000
1758.265926	6851.700000
1760.086813	6878.600000
1761.907312	6856.200000
1763.729191	6860.200000
1765.545372	6848.100000
1767.364704	6867.300000
1769.180109	6870.900000
1770.998664	6846.200000
1772.813294	6861.800000
1774.627537	6827.400000
1776.441394	6839.600000
1778.254864	6857.700000
1780.066181	6854.000000
1781.878878	6871.400000
1783.691190	6849.500000
1785.499584	6843.600000
1787.309358	6849.300000
1789.115218	6872.100000
1790.924223	6834.500000
1792.729315	6862.400000
1794.535788	6846.600000
1796.341877	6873.800000
1798.144055	6871.800000
1799.949378	6859.600000
1801.750792	6849.000000
1803.553586	6871.500000
1805.352474	6854.000000
1807.152743	6848.100000
1808.952630	6863.000000
1810.750375	6856.700000
1812.547740	6863.000000
1814.344725	6853.700000
1816.141329	6866.700000
1817.935794	6871.700000
1819.731638	6861.100000
1821.521827	6871.400000
1823.316913	6846.300000
1825.106347	6872.200000
1826.898917	6861.200000
1828.689352	6855.200000
1830.477653	6864.600000
1832.269089	6887.500000
1834.054879	6843.400000
1835.842049	6880.100000
1837.627087	6864.500000
1839.415259	6864.600000
1841.199545	6860.500000
1842.981701	6883.900000
1844.765237	6872.500000
1846.546644	6850.100000
1848.329430	6866.400000
1850.108335	6859.300000
1851.888620	6850.800000
1853.666778	6868.300000
1855.446315	6848.900000
1857.223727	6869.300000
1858.999015	6866.700000
1860.775681	6844.100000
1862.550225	6841.300000
1864.326147	6880.700000
1866.096448	6854.700000
1867.869877	6860.300000
1869.641186	6864.700000
1871.412124	6860.900000
1873.184440	6849.700000
1874.951142	6869.900000
1876.720970	6860.700000
1878.486934	6863.200000
1880.256021	6873.300000
1882.021247	6861.200000
1883.786105	6845.600000
1885.552340	6877.200000
1887.314716	6860.600000
1889.076725	6874.800000
1890.838366	6873.600000
1892.599641	6861.700000
1894.360548	6867.100000
1896.121089	6867.900000
1897.879520	6837.500000
1899.637585	6863.200000
1901.393543	6835.300000
1903.150877	6873.200000
1904.907846	6863.500000
1906.662708	6845.000000
1908.415466	6850.900000
1910.167859	6852.000000
1911.921629	6857.100000
1913.673295	6854.400000
1915.422859	6863.100000
1917.173798	6857.900000
1918.924375	6877.300000
1920.671112	6884.300000
1922.419226	6864.900000
1924.165240	6867.700000
1925.912629	6872.100000
1927.657921	6851.000000
1929.401115	6864.100000
1931.145684	6857.700000
1932.888158	6866.000000
1934.630271	6863.900000
1936.372024	6857.100000
1938.113417	6846.900000
1939.852717	6879.500000
1941.591658	6870.900000
1943.330240	6854.000000
1945.066731	6882.500000
1946.802864	6871.200000
1948.540371	6859.900000
1950.274056	6879.600000
1952.009116	6873.100000
1953.742087	6879.200000
1955.474702	6883.000000
1957.206961	6889.200000
1958.938863	6875.800000
1960.668679	6875.900000
1962.396410	6888.600000
1964.125516	6874.700000
1965.854267	6878.900000
1967.580934	6864.900000
1969.307247	6883.200000
1971.034933	6883.900000
1972.757083	6893.800000
1974.482334	6878.900000
1976.203778	6889.100000
1977.928323	6871.500000
1979.650787	6899.800000
1981.369449	6880.400000
1983.091209	6867.600000
1984.809167	6872.200000
1986.528498	6893.300000
1988.244030	6870.800000
1989.964382	6885.300000
1991.680936	6889.000000
1993.393693	6903.400000
1995.109546	6889.400000
1996.823327	6874.600000
1998.536758	6877.800000
2000.248118	6889.400000
2001.960850	6912.000000
2003.669792	6884.400000
2005.381826	6899.200000
2007.088352	6899.900000
2008.797969	6894.300000
2010.505520	6891.100000
2012.212722	6896.600000
2013.917859	6893.600000
2015.622650	6897.600000
2017.328812	6857.700000
2019.031192	6897.800000
2020.734943	6893.700000
2022.436632	6892.500000
2024.137976	6905.700000
2025.838974	6878.700000
2027.537911	6876.500000
2029.238220	6885.400000
2030.934754	6887.000000
2032.632659	6898.800000
2034.328505	6896.600000
2036.027437	6908.700000
2037.720883	6902.400000
2039.415700	6878.500000
2041.110175	6896.200000
2042.800881	6889.900000
2044.494671	6904.500000
2046.184694	6899.200000
2047.876088	6911.900000
2049.565429	6888.600000
2051.256140	6877.700000
2052.943088	6897.000000
2054.629697	6904.500000
2056.317675	6896.900000
2058.001894	6865.500000
2059.687484	6899.500000
2061.372734	6901.300000
2063.055935	6902.700000
2064.740507	6886.800000
2066.419616	6886.200000
2068.103510	6929.300000
2069.781943	6884.400000
2071.463454	6899.400000
2073.141213	6854.200000
2074.818636	6894.400000
2076.497428	6872.000000
2078.174178	6896.500000
2079.848886	6918.800000
2081.524963	6891.000000
2083.199000	6878.500000
2084.872701	6908.400000
2086.546067	6897.400000
2088.217394	6895.900000
2089.888387	6890.200000
2091.559046	6882.100000
2093.229371	6874.100000
2094.899362	6881.300000
2096.567317	6893.700000
2098.234939	6878.200000
2099.900526	6908.500000
2101.567482	6874.100000
2103.232405	6905.000000
2104.896996	6909.800000
2106.559555	6904.300000
2108.223482	6902.800000
2109.885378	6895.200000
2111.546944	6908.200000
2113.208178	6900.500000
2114.867384	6902.500000
2116.526259	6904.100000
2118.184805	6888.200000
2119.843020	6912.100000
2121.497513	6889.600000
2123.155070	6894.500000
2124.812298	6897.000000
2126.465804	6925.100000
2128.120678	6919.500000
2129.771833	6923.500000
2131.426051	6918.900000
2133.076552	6915.500000
2134.728419	6898.700000
2136.374878	6919.500000
2138.026092	6923.400000
2139.673592	6913.900000
2141.322459	6907.900000
2142.969307	6899.300000
2144.615830	6902.800000
2146.262027	6910.300000
2147.904516	6898.500000
2149.550063	6911.800000
2151.191903	6917.300000
2152.836800	6920.000000
2154.477991	6918.100000
2156.118860	6895.700000
2157.759404	6924.300000
2159.397936	6899.800000
2161.037834	6911.700000
2162.674032	6923.800000
2164.311596	6912.000000
2165.948838	6903.200000
2167.584070	6919.800000
2169.218981	6912.500000
2170.853569	6922.800000
2172.487837	6924.500000
2174.118411	6938.300000
2175.752037	6912.700000
2177.381971	6914.800000
2179.013270	6914.800000
2180.642564	6924.100000
2182.271539	6917.100000
2183.900194	6912.200000
2185.528530	6899.300000
2187.154864	6904.000000
2188.780879	6917.000000
2190.404892	6922.900000
2192.030271	6909.900000
2193.653649	6924.500000
2195.278392	6905.400000
2196.899454	6938.600000
2198.520199	6896.800000
2200.142309	6918.800000
2201.762421	6913.600000
2203.380536	6933.200000
2204.998336	6916.800000
2206.615821	6924.400000
2208.232990	6930.600000
2209.849844	6948.200000
2211.466382	6922.400000
2213.080928	6931.500000
2214.693481	6922.800000
2216.307398	6921.000000
2217.919324	6922.800000
2219.532613	6923.000000
2221.143912	6915.300000
2222.753221	6916.300000
2224.363894	6908.900000
2225.972578	6908.200000
2227.580949	6908.200000
2229.187334	6932.300000
2230.795082	6919.600000
2232.400843	6929.300000
2234.006293	6922.600000
2235.609758	6909.800000
2237.214586	6902.900000
2238.817430	6900.800000
2240.418291	6925.700000
2242.020515	6905.200000
2243.620757	6954.700000
2245.222361	6919.400000
2246.820312	6905.100000
2248.419626	6911.500000
2250.016960	6930.500000
2251.613986	6936.600000
2253.212374	6908.000000
2254.807113	6923.200000
2256.399875	6909.600000
2257.994000	6908.300000
2259.589486	6918.200000
2261.181327	6920.900000
2262.772862	6929.200000
2264.365759	6918.200000
2265.953346	6929.100000
2267.545629	6927.100000
2269.132606	6917.200000
2270.722610	6936.000000
2272.307310	6917.100000
2273.896704	6917.400000
2275.480796	6920.000000
2277.066248	6910.900000
2278.649732	6898.800000
2280.236241	6917.300000
2281.819117	6902.000000
2283.401690	6905.200000
2284.983959	6935.600000
2286.562598	6926.100000
2288.144262	6906.200000
2289.722297	6894.700000
2291.303355	6907.500000
2292.880786	6913.200000
2294.456254	6918.900000
2296.034744	6890.500000
2297.609610	6901.400000
2299.184175	6943.600000
2300.758440	6885.500000
2302.332404	6923.900000
2303.906067	6900.500000
2305.479431	6908.700000
2307.049176	6890.900000
2308.618622	6915.600000
2310.191086	6930.100000
2311.758276	6925.600000
2313.328484	6909.100000
2314.895077	6925.700000
2316.463030	6909.400000
2318.029027	6927.600000
2319.594727	6912.400000
2321.160129	6922.100000
2322.723578	6933.900000
2324.288386	6952.500000
2325.849586	6961.700000
2327.413800	6991.300000
2328.972752	6986.900000
2330.534719	7000.800000
2332.094734	6950.000000
2333.654455	6943.500000
2335.212226	6918.900000
2336.769702	6940.900000
2338.326884	6925.800000
2339.882118	6926.000000
2341.437059	6931.500000
2342.991705	6964.300000
2344.546058	6949.500000
2346.100118	6932.700000
2347.653883	6944.800000
2349.205704	6946.600000
2350.755583	6940.100000
2352.308469	6927.900000
2353.856112	6954.800000
2355.406764	6939.300000
2356.953824	6922.800000
2358.502242	6957.700000
2360.050369	6935.300000
2361.594907	6944.200000
2363.140803	6948.300000
2364.684761	6939.900000
2366.230076	6957.400000
2367.771806	6922.600000
2369.314893	6964.000000
2370.856044	6941.900000
2372.396906	6950.600000
2373.937479	6932.700000
2375.477763	6926.500000
2377.017758	6955.100000
2378.554175	6929.800000
2380.093593	6966.200000
2381.629433	6941.800000
2383.166631	6962.500000
2384.700253	6958.100000
2386.236875	6932.500000
2387.771567	6936.500000
2389.304329	6959.600000
2390.836804	6958.400000
2392.367351	6948.900000
2393.900896	6950.900000
2395.429230	6964.200000
2396.958921	6952.100000
2398.488325	6963.200000
2400.017445	6947.100000
2401.546280	6965.700000
2403.069909	6964.000000
2404.598174	6957.900000
2406.121237	6960.100000
2407.648933	6965.700000
2409.169790	6950.300000
2410.695280	6965.300000
2412.217209	6962.400000
2413.740494	6976.100000
2415.261857	6980.200000
2416.781301	6980.100000
2418.302100	6962.400000
2419.820981	6952.500000
2421.339579	6950.700000
2422.856260	6974.500000
2424.374295	6955.800000
2425.892049	6974.200000
2427.406252	6963.200000
2428.920174	6947.200000
2430.433816	6959.300000
2431.948813	6967.900000
2433.460261	6958.600000
2434.973064	6992.600000
2436.483953	6958.100000
2437.994564	6991.200000
2439.503263	6968.100000
2441.014948	6961.500000
2442.523090	6964.300000
2444.030954	6984.600000
2445.538540	6952.800000
2447.042585	6983.800000
2448.549615	6943.200000
2450.054737	6976.700000
2451.559582	6965.400000
2453.062520	6947.700000
2454.565182	6952.900000
2456.067567	6967.700000
2457.568047	6963.000000
2459.069880	6954.300000
2460.569808	6967.000000
2462.069461	6967.400000
2463.568839	6927.200000
2465.066314	6983.100000
2466.561887	6970.100000
2468.060440	6982.100000
2469.555465	6965.500000
2471.051842	6975.600000
2472.544693	6955.600000
2474.038897	6971.400000
2475.532827	6990.000000
2477.023233	6980.300000
2478.516617	6964.400000
2480.008103	6984.300000
2481.497692	6985.700000
2482.987009	6961.700000
2484.474430	6940.900000
2485.964827	6964.900000
2487.451706	6967.900000
2488.939936	6973.700000
2490.424649	6975.400000
2491.909093	6973.400000
2493.394887	6971.400000
2494.878790	6975.200000
2496.364043	6979.000000
2497.844163	6970.900000
2499.327256	6989.800000
2500.808458	6953.900000
2502.289391	6959.700000
2503.768435	6965.300000
2505.247210	6964.800000
2506.725717	6976.500000
2508.203956	6978.900000
2509.681926	6968.300000
2511.156391	6973.900000
2512.633826	7007.100000
2514.107757	6985.900000
2515.583038	7000.900000
2517.058052	6967.500000
2518.529565	6952.200000
2520.002429	6992.100000
2521.473410	6975.600000
2522.945741	6972.000000
2524.412958	6987.500000
2525.883142	6988.200000
2527.351445	6953.800000
2528.819483	6971.500000
2530.287256	6996.300000
2531.754764	6969.100000
2533.222007	6971.100000
2534.685758	6980.700000
2536.150859	7010.100000
2537.614083	7001.400000
2539.078656	6984.800000
2540.539741	6992.900000
2542.002175	6993.700000
2543.464346	7009.100000
2544.923031	7010.000000
2546.386287	6976.900000
2547.844448	6996.600000
2549.303957	6966.900000
2550.758372	7003.900000
2552.217358	6967.500000
2553.674472	7004.100000
2555.129715	6978.300000
2556.584696	7024.800000
2558.037809	6974.100000
2559.492270	7003.000000
2560.944861	6996.300000
2562.397193	7009.100000
2563.847658	7012.600000
2565.301078	7008.800000
2566.749416	6992.300000
2568.200709	6993.600000
2569.650137	7011.400000
2571.096092	7023.300000
2572.545002	7034.700000
2573.990442	7034.700000
2575.437229	7003.800000
2576.882154	6982.300000
2578.326820	6992.300000
2579.772834	6995.300000
2581.215382	6999.600000
2582.659277	7015.600000
2584.099707	7005.200000
2585.541484	7029.800000
2586.981402	7010.300000
2588.422667	7017.700000
2589.860470	7025.500000
2591.301223	7023.100000
2592.736914	7004.200000
2594.175554	7018.600000
2595.612336	7012.100000
2597.047263	7008.100000
2598.485137	7024.900000
2599.917954	7039.000000
2601.352118	7026.100000
2602.784428	7047.800000
2604.218084	7046.800000
2605.649887	7061.500000
2607.081436	7028.400000
2608.512733	7025.600000
2609.942177	7046.100000
2611.371369	7034.500000
2612.798711	7037.000000
2614.227398	7044.900000
2615.655834	7023.400000
2617.080822	7056.000000
2618.507157	7045.800000
2619.931643	7070.100000
2621.357475	7040.600000
2622.779863	7072.200000
2624.203597	7056.800000
2625.625484	7068.300000
2627.047122	7061.500000
2628.466914	7047.900000
2629.888052	7063.400000
2631.308940	7083.300000
2632.726390	7080.500000
2634.146779	7076.900000
2635.563731	7075.500000
2636.980434	7081.200000
2638.396889	7074.100000
2639.813096	7076.000000
2641.229055	7072.100000
2642.643173	7083.300000
2644.057043	7099.700000
2645.469075	7086.000000
2646.882450	7096.000000
2648.292396	7087.600000
2649.705278	7082.200000
2651.114731	7101.100000
2652.523938	7117.700000
2653.931309	7110.800000
2655.341614	7108.400000
2656.750084	7089.100000
2658.156718	7115.600000
2659.563107	7131.700000
2660.967662	7109.000000
2662.373561	7129.000000
2663.777627	7090.500000
2665.181448	7135.700000
2666.585025	7114.900000
2667.986771	7127.100000
2669.389860	7127.100000
2670.789531	7119.300000
2672.190546	7113.600000
2673.588145	7123.600000
2674.988674	7109.400000
2676.385787	7115.100000
2677.784244	7104.000000
2679.180874	7113.300000
2680.577261	7086.900000
2681.973406	7124.500000
2683.367725	7111.000000
2684.763387	7108.000000
2686.155640	7079.000000
2687.549235	7103.800000
2688.941006	7108.100000
2690.334120	7094.100000
2691.725410	7075.800000
2693.114877	7097.800000
2694.504104	7096.700000
2695.893092	7088.100000
2697.283421	7053.600000
2698.668767	7084.200000
2700.057036	7084.100000
2701.443485	7063.800000
2702.829695	7075.600000
2704.215666	7069.700000
2705.598239	7069.600000
2706.982154	7057.500000
2708.365831	7056.700000
2709.749269	7073.100000
2711.129313	7061.500000
2712.510697	7101.500000
2713.890267	7052.400000
2715.271177	7071.500000
2716.650273	7067.400000
2718.027555	7041.600000
2719.406178	7055.400000
2720.782988	7044.700000
2722.159561	7052.900000
2723.535899	7055.900000
2724.910426	7044.700000
2726.286293	7035.500000
2727.658773	7014.500000
2729.034169	7057.700000
2730.404605	7044.700000
2731.776382	7038.000000
2733.147924	7037.300000
2734.517658	7048.600000
2735.888733	7010.500000
2737.257999	7024.300000
2738.627032	7044.300000
2739.994259	7015.700000
2741.361252	7006.900000
2742.728013	7029.600000
2744.094542	7017.200000
2745.459265	7064.000000
2746.823756	7026.800000
2748.188016	7027.400000
2749.552043	7037.200000
2750.915839	7021.900000
2752.276261	7016.000000
2753.639593	7013.300000
2754.997983	7035.500000
2756.359283	7027.200000
2757.717213	7026.700000
2759.078051	7027.000000
2760.437090	6986.300000
2761.792760	7030.900000
2763.151338	6997.300000
2764.506549	6985.300000
2765.861531	7004.400000
2767.214717	7010.200000
2768.570809	6983.600000
2769.923536	6958.200000
2771.276036	6983.500000
2772.628307	6985.500000
2773.981916	6982.600000
2775.332165	6998.700000
2776.680619	7001.900000
2778.031979	6998.400000
2779.379979	6992.900000
2780.729317	7012.500000
2782.076863	6992.100000
2783.424183	7002.900000
2784.771276	6989.900000
2786.116578	6989.600000
2787.461653	6978.500000
2788.806503	6998.300000
2790.151127	6995.800000
2791.492399	7011.800000
2792.835009	7013.600000
2794.177393	7019.000000
2795.519552	6984.800000
2796.858362	6991.500000
2798.200072	6989.600000
2799.538434	7015.000000
2800.878132	7007.600000
2802.216046	7011.500000
2803.552175	7006.900000
2804.888080	7027.400000
2806.225323	7018.900000
2807.560782	7041.200000
2808.896018	7006.700000
2810.229471	7018.200000
2811.564261	7018.800000
2812.895711	7016.400000
2814.230056	7015.300000
2815.559503	7030.700000
2816.890287	7019.300000
2818.220849	7024.800000
2819.549632	7010.500000
2820.879751	7037.100000
2822.208092	6998.600000
2823.536212	7008.600000
2824.862554	7017.500000
2826.190233	7015.100000
2827.514578	7018.700000
2828.840260	7015.800000
2830.164166	7039.400000
2831.487853	7034.700000
2832.812875	7029.800000
2834.134567	7047.800000
2835.456041	7028.100000
2836.777296	7018.100000
2838.098332	6989.200000
2839.417595	7034.900000
2840.738194	7027.900000
2842.057022	7035.300000
2843.375631	7029.600000
2844.692469	7019.500000
2846.009090	7024.000000
2847.325494	7012.300000
2848.640128	7010.300000
2849.956098	7028.400000
2851.268747	6991.500000
2852.582731	7030.500000
2853.896499	6983.700000
2855.210050	7027.500000
2856.521835	7002.400000
2857.831853	7042.500000
2859.143206	6998.000000
2860.451244	7029.800000
2861.760616	7011.300000
2863.069774	7022.600000
2864.378716	7028.100000
2865.685894	7017.300000
2866.991310	7011.100000
2868.298060	7027.600000
2869.603047	7024.300000
2870.907821	7039.700000
2872.210833	7020.800000
2873.516726	7012.800000
2874.817765	7004.800000
2876.120138	7040.500000
2877.420751	7020.500000
2878.722698	7034.000000
2880.024431	7008.100000
2881.322861	7016.400000
2882.622624	7018.200000
2883.920630	7027.400000
2885.218424	7028.000000
2886.514462	7031.800000
2887.811833	7007.400000
2889.107448	7021.000000
2890.402852	7028.100000
2891.698045	7038.600000
2892.989941	7014.600000
2894.284713	7033.800000
2895.576188	7024.200000
2896.868996	7007.300000
2898.161594	7031.700000
2899.450898	7037.600000
2900.741534	7044.100000
2902.030419	7026.700000
2903.320636	7027.600000
2904.607562	7024.900000
2905.895820	7014.800000
2907.182329	7028.600000
2908.468629	7008.500000
2909.754722	7049.500000
2911.039066	7025.100000
2912.326281	7022.900000
2913.608670	7034.100000
2914.892391	7044.600000
2916.174366	7023.300000
2917.456133	7000.400000
2918.736156	7004.800000
2920.019048	7028.200000
2921.300195	7029.700000
2922.578060	7022.300000
2923.858794	6992.500000
2925.136247	7015.900000
2926.413494	7018.200000
2927.688999	7025.200000
2928.967372	6999.900000
2930.240931	7003.800000
2931.517357	7019.100000
2932.792042	7032.600000
2934.064986	6977.000000
2935.339262	7003.600000
2936.611798	7002.500000
2937.884129	7013.300000
2939.153188	6993.200000
2940.425112	7024.200000
2941.695298	6995.300000
2942.965280	7005.100000
2944.235059	6984.700000
2945.503102	7008.300000
2946.769408	7008.300000
2948.035513	7009.900000
2949.302947	6983.200000
2950.568647	7016.100000
2951.834144	7010.200000
2953.099439	7023.400000
2954.361469	6970.200000
2955.624829	6981.900000
2956.887988	6996.500000
2958.149415	7008.800000
2959.412171	7015.600000
2960.673195	7016.300000
2961.932489	6992.300000
2963.191583	7033.500000
2964.450476	7004.400000
2965.709169	7011.300000
2966.967662	6997.900000
2968.224426	6993.700000
2969.480990	7003.700000
2970.735827	6995.500000
2971.991992	6999.000000
2973.244903	6995.200000
2974.499143	7004.700000
2975.753184	7014.200000
2977.005499	6987.200000
2978.257615	7015.400000
2979.508007	7007.400000
2980.761254	7001.400000
2982.009724	6994.400000
2983.261049	6998.900000
2984.509124	6991.400000
2985.757003	7015.400000
2987.004684	7005.400000
2988.252168	7004.600000
2989.497931	6999.600000
2990.743498	6984.700000
2991.990392	7004.400000
2993.234042	6990.600000
2994.479020	6978.700000
2995.720754	6994.700000
2996.965340	7006.900000
2998.208207	7018.200000
2999.447833	7005.400000
3000.690309	6995.100000
3001.929545	6995.900000
3003.170109	7028.200000
3004.408957	7013.100000
3005.647609	7013.500000
3006.884546	7022.300000
3008.122811	6979.000000
3009.359360	7003.900000
3010.595716	6996.300000
3011.831878	7019.700000
3013.066326	7000.000000
3014.300582	6995.600000
3015.534644	7022.400000
3016.766994	7018.900000
3017.997632	7020.100000
3019.231116	7019.100000
3020.462888	6999.600000
3021.692950	7003.500000
3022.922819	7013.500000
3024.150980	7012.400000
3025.380466	6987.700000
3026.608243	7005.600000
3027.835829	7026.000000
3029.064742	7000.000000
3030.288912	7020.000000
3031.515925	6979.900000
3032.739714	7017.800000
3033.964830	7011.600000
3035.188239	7016.500000
3036.411458	6982.900000
3037.632972	6996.400000
3038.857327	6988.800000
3040.076947	7004.100000
3041.297893	7010.400000
3042.518650	6991.100000
3043.737703	6995.200000
3044.958081	6998.900000
3046.175243	6983.000000
3047.393731	7008.300000
3048.610516	6966.700000
3049.827114	7023.600000
3051.043523	6995.900000
3052.256720	7005.000000
3053.472754	7000.000000
3054.685576	6995.000000
3055.901235	7005.200000
3057.112171	6995.800000
3058.324432	6978.400000
3059.536507	6982.200000
3060.748394	6988.300000
3061.958585	7011.600000
3063.168589	6991.000000
3064.378407	6980.000000
3065.586529	7011.600000
3066.794466	6998.400000
3068.000707	7003.900000
3069.208273	7000.700000
3070.414144	7005.100000
3071.619831	7009.500000
3072.825332	6992.000000
3074.029140	6991.100000
3075.234272	7018.900000
3076.437711	7016.800000
3077.639459	7007.300000
3078.841022	7004.500000
3080.042402	6983.300000
3081.243598	6977.300000
3082.443104	7011.100000
3083.642427	6986.000000
3084.843073	7013.100000
3086.042029	6983.600000
3087.237791	7002.000000
3088.436382	7001.200000
3089.631779	6972.300000
3090.828499	6989.500000
3092.022027	6990.900000
3093.218383	6993.600000
3094.413053	6995.200000
3095.604532	6979.900000
3096.800342	6974.900000
3097.991458	7000.000000
3099.183898	6976.000000
3100.373150	6992.500000
3101.565227	7007.500000
3102.755621	6990.600000
3103.942829	6997.100000
3105.131360	7002.200000
3106.321212	6963.400000
3107.507881	6980.600000
3108.694369	6963.500000
3109.880679	6981.100000
3111.068310	6977.900000
3112.252759	6994.500000
3113.435529	6966.500000
3114.621121	6985.500000
3115.805034	6992.400000
3116.987268	6980.100000
3118.169323	6989.600000
3119.351200	6970.500000
3120.532899	6974.600000
3121.712921	6997.800000
3122.891266	6974.600000
3124.072431	6984.200000
3125.250421	6960.200000
3126.428235	6992.600000
3127.605871	6992.600000
3128.781832	6984.600000
3129.957616	6990.500000
3131.134722	6993.700000
3132.310153	6986.900000
3133.483911	6979.300000
3134.655996	6994.600000
3135.829403	6979.500000
3137.002633	6985.200000
3138.174192	6978.200000
3139.347071	6968.300000
3140.516783	6987.800000
3141.687816	6995.000000
3142.857179	7001.800000
3144.024871	7010.600000
3145.195379	7026.300000
3146.361229	7004.600000
3147.531387	6983.000000
3148.696889	7013.400000
3149.862216	6988.000000
3151.027370	6994.300000
3152.192351	6983.200000
3153.358651	6970.900000
3154.520299	7007.000000
3155.683266	6994.400000
3156.846061	6983.300000
3158.008683	6977.400000
3159.169640	6972.800000
3160.330424	6982.800000
3161.491036	6969.200000
3162.649984	6967.200000
3163.808761	6956.400000
3164.967366	6975.700000
3166.125798	6982.600000
3167.284060	6952.900000
3168.440659	6978.700000
3169.595597	7010.500000
3170.751854	6990.100000
3171.906450	6983.900000
3173.060876	6960.400000
3174.213642	6960.800000
3175.366237	6965.400000
3176.518663	6978.200000
3177.670919	6987.000000
3178.823004	6951.400000
3179.971944	6964.100000
3181.123690	6984.700000
3182.273778	6977.000000
3183.422210	6983.500000
3184.570472	6959.400000
3185.718566	6986.000000
3186.866491	6985.400000
3188.012760	6981.100000
3189.158861	7002.600000
3190.303308	7000.200000
3191.447587	6998.200000
3192.591698	6985.400000
3193.737126	6993.000000
3194.879416	6984.600000
3196.021539	6988.200000
3197.163494	6978.900000
3198.305282	6982.900000
3199.446903	6979.800000
3200.585389	6982.900000
3201.725192	6988.500000
3202.866313	6984.400000
3204.004299	6989.300000
3205.140636	6982.900000
3206.276807	6978.000000
3207.414295	6989.000000
3208.550135	6996.300000
3209.687292	6987.100000
3210.819836	6984.700000
3211.956662	6996.300000
3213.088876	6985.000000
3214.222407	6980.800000
3215.355774	6951.300000
3216.486013	6986.300000
3217.619050	6981.500000
3218.748961	6978.200000
3219.880188	6984.700000
3221.008291	7000.800000
3222.139190	6980.400000
3223.268445	6987.500000
3224.396057	6973.500000
3225.520546	6951.400000
3226.649311	6960.100000
3227.774954	6953.600000
3228.900435	6972.500000
3230.024274	7000.000000
3231.150907	6965.300000
3232.272943	6989.500000
3233.396295	6953.300000
3234.519485	6996.300000
3235.642512	6970.600000
3236.763901	6970.800000
3237.885127	6963.200000
3239.004716	7007.900000
3240.124143	6978.300000
3241.241932	6980.900000
3242.362513	6980.000000
3243.479981	6983.900000
3244.597288	6982.500000
3245.714435	6990.500000
3246.829946	6982.100000
3247.946771	6979.600000
3249.060487	6984.000000
3250.176992	6999.600000
3251.291863	6998.300000
3252.403625	6995.100000
3253.515227	7003.800000
3254.628145	6993.900000
3255.740903	7004.800000
3256.850555	6982.600000
3257.961522	6978.400000
3259.072330	7009.600000
3260.181506	6991.200000
3261.289052	6983.500000
3262.397911	6972.200000
3263.506613	6980.100000
3264.612212	6975.200000
3265.719125	6972.300000
3266.824409	6981.400000
3267.931007	6969.800000
3269.034505	7010.900000
3270.139318	6965.500000
3271.243973	6992.900000
3272.345529	6985.900000
3273.446929	7000.800000
3274.549643	6981.100000
3275.652201	6999.600000
3276.751662	7004.900000
3277.853907	6973.100000
3278.953056	6969.600000
3280.050581	6983.600000
3281.147950	6978.200000
3282.248101	6979.200000
3283.345160	6979.400000
3284.442063	6989.900000
3285.538811	7000.100000
3286.631001	6975.900000
3287.727439	6964.100000
3288.822255	6948.000000
3289.916917	6979.500000
3291.009957	6979.600000
3292.102842	7002.000000
3293.194108	6967.300000
3294.286685	6990.500000
3295.377643	6987.000000
3296.466981	6959.000000
3297.556166	6967.400000
3298.646664	6971.200000
3299.734077	6948.000000
3300.821337	7016.300000
3301.909910	6981.500000
3302.998331	7003.600000
3304.082204	6966.800000
3305.170319	6981.500000
3306.255352	6995.500000
3307.338770	6953.200000
3308.423500	6964.000000
3309.506614	6990.700000
3310.591041	6980.400000
3311.672389	6990.200000
3312.755049	6997.200000
3313.836095	6971.200000
3314.916990	6964.400000
3315.996271	6994.800000
3317.075402	6977.300000
3318.155845	6987.900000
3319.233213	6962.700000
3320.311893	6998.300000
3321.388961	6978.400000
3322.465880	6988.200000
3323.541187	6987.900000
3324.616345	6973.900000
3325.692814	6995.000000
3326.766213	6961.400000
3327.839463	6981.400000
3328.914023	6988.200000
3329.986975	6991.000000
3331.058318	6984.800000
3332.130972	6974.400000
3333.200560	6973.200000
3334.271458	6966.900000
3335.340749	6955.400000
3336.411351	6985.600000
3337.480346	6985.800000
3338.547735	6961.500000
3339.613519	6959.000000
3340.683529	6961.000000
3341.750476	6984.500000
3342.814361	6956.200000
3343.881014	6987.200000
3344.946062	6971.000000
3346.009507	6953.100000
3347.072806	6982.500000
3348.135958	6951.300000
3349.198964	6979.700000
3350.261824	6984.300000
3351.323082	6973.200000
3352.381283	6955.800000
3353.443704	6973.100000
3354.503070	6977.000000
3355.562290	6963.300000
3356.622820	6993.800000
3357.678840	6973.800000
3358.737624	6979.600000
3359.791901	6967.500000
3360.848942	6985.500000
3361.904384	6964.000000
3362.961136	6960.400000
3364.016289	6955.700000
3365.069845	6964.400000
3366.121805	6962.500000
3367.176526	6992.400000
3368.228198	6962.400000
3369.279727	6980.100000
3370.332564	6955.600000
3371.382354	6966.100000
3372.433453	6969.300000
3373.481506	7000.800000
3374.532318	6950.600000
3375.580086	6975.700000
3376.627711	6976.500000
3377.675193	6998.600000
3378.721083	6976.000000
3379.768281	6966.300000
3380.812437	6969.300000
3381.859351	6983.300000
3382.904673	6972.800000
3383.946954	6972.100000
3384.989095	6969.300000
3386.032543	6979.300000
3387.075850	6948.300000
3388.117568	6998.800000
3389.159144	6970.800000
3390.200579	6999.300000
3391.240426	6960.900000
3392.278684	6982.200000
3393.318250	6969.700000
3394.357676	6987.100000
3395.395514	6967.700000
3396.431765	6972.200000
3397.467877	6986.400000
3398.505296	6985.600000
3399.539682	6945.400000
3400.575375	6979.600000
3401.610929	6978.600000
3402.643452	6982.600000
3403.678728	6962.600000
3404.710973	6956.700000
3405.743080	6963.000000
3406.773603	6975.400000
3407.805433	6978.100000
3408.837125	6948.300000
3409.865789	6959.300000
3410.894316	6957.900000
3411.924149	6970.200000
3412.953845	6967.400000
3413.980515	6956.600000
3415.008492	6959.000000
3416.033444	6962.300000
3417.061146	6972.800000
3418.085825	6957.800000
3419.111810	6965.900000
3420.136215	6943.800000
3421.160484	6969.300000
3422.183174	6970.300000
3423.205728	6976.400000
3424.229588	6955.100000
3425.250428	6983.200000
3426.271132	6952.300000
3427.293143	6954.900000
3428.312135	6956.300000
3429.330991	6967.800000
3430.351154	6931.500000
3431.368300	6960.500000
