-117.888313	1816.100000
-115.218713	1804.200000
-112.552048	1826.900000
-109.886135	1811.100000
-107.223154	1807.900000
-104.558744	1798.200000
-101.897264	1841.300000
-99.234355	1829.900000
-96.576552	1858.400000
-93.917320	1878.000000
-91.258836	1853.300000
-88.603276	1851.100000
-85.946288	1851.400000
-83.294398	1873.100000
-80.641078	1886.600000
-77.990677	1891.200000
-75.338847	1897.400000
-72.692108	1881.100000
-70.043940	1908.500000
-67.396514	1924.200000
-64.752002	1953.400000
-62.106062	1973.400000
-59.465203	1998.700000
-56.822915	1999.600000
-54.183536	1978.400000
-51.542727	2001.900000
-48.902659	2035.600000
-46.267663	2002.800000
-43.631239	2062.900000
-40.997717	2044.700000
-38.362767	2072.300000
-35.732882	2104.800000
-33.099405	2100.900000
-30.470990	2183.200000
-27.843309	2119.500000
-25.214199	2152.700000
-22.590146	2176.200000
-19.962504	2233.500000
-17.339915	2233.200000
-14.718058	2318.800000
-12.096931	2421.400000
-9.476534	2677.700000
-6.859026	3564.200000
-4.240089	6337.600000
-1.624037	11695.400000
0.991286	12038.300000
3.605882	7449.100000
6.217595	3016.300000
8.830737	2548.100000
11.438845	2514.700000
14.050535	2515.900000
16.657194	2570.000000
19.265281	2609.600000
21.872644	2593.200000
24.474982	2615.500000
27.080898	2658.000000
29.681792	2708.400000
32.284114	2767.300000
34.881419	2839.500000
37.482299	2843.900000
40.078164	2874.000000
42.675458	2921.100000
45.272032	2916.000000
47.863597	3036.800000
50.456590	3102.500000
53.046722	3112.300000
55.638282	3153.800000
58.226982	3176.000000
60.817109	3307.400000
63.402237	3328.200000
65.988793	3371.700000
68.574635	3406.900000
71.157623	3528.500000
73.742037	3546.000000
76.319323	3599.200000
78.900175	3757.000000
81.478178	3783.000000
84.055471	3860.500000
86.634190	4020.500000
89.207927	4131.100000
91.783092	4232.400000
94.355413	4376.600000
96.927026	4564.600000
99.495799	4771.300000
102.065999	5118.200000
104.633361	5299.300000
107.202148	5780.900000
109.768099	6132.200000
112.331215	6457.000000
114.897887	6454.100000
117.455338	6463.200000
120.018474	6481.000000
122.576650	6474.800000
125.138381	6514.700000
127.695155	6548.700000
130.253356	6558.800000
132.806603	6646.900000
135.359153	6707.800000
137.915253	6820.300000
140.466405	6956.700000
143.016860	7040.700000
145.566617	7075.800000
148.113555	7157.900000
150.659798	7202.500000
153.207466	7218.200000
155.754438	7230.700000
158.296475	7207.300000
160.837818	7182.000000
163.378468	7198.300000
165.920544	7181.000000
168.459808	7186.900000
170.996264	7234.400000
173.532028	7175.900000
176.069218	7184.500000
178.605717	7186.200000
181.139410	7195.600000
183.670299	7177.200000
186.200501	7190.100000
188.732127	7193.100000
191.260952	7187.600000
193.786978	7173.000000
196.312318	7178.100000
198.839083	7173.200000
201.363052	7179.200000
203.886336	7168.100000
206.408935	7151.900000
208.928741	7190.300000
211.447864	7164.500000
213.966304	7161.500000
216.486168	7179.700000
218.999031	7199.100000
221.515425	7160.400000
224.031137	7172.000000
226.541959	7165.200000
229.054206	7198.600000
231.563671	7191.900000
234.072457	7179.700000
236.580564	7193.600000
239.090096	7193.800000
241.594747	7191.600000
244.098722	7185.800000
246.604121	7184.100000
249.104645	7214.000000
251.608693	7198.100000
254.105769	7223.500000
256.606369	7236.900000
259.104197	7215.700000
261.601352	7202.200000
264.097834	7233.200000
266.589453	7215.700000
269.084592	7236.500000
271.576964	7223.700000
274.068666	7242.300000
276.557605	7248.000000
279.047968	7239.800000
281.535568	7221.400000
284.020409	7258.300000
286.508765	7253.200000
288.990181	7257.000000
291.475111	7235.100000
293.955196	7229.200000
296.438793	7220.200000
298.917547	7254.500000
301.397725	7252.800000
303.875150	7256.500000
306.351912	7250.200000
308.828011	7290.100000
311.301361	7305.000000
313.774049	7344.700000
316.246076	7387.800000
318.717442	7492.800000
321.186063	7588.300000
323.654026	7535.200000
326.123410	7455.200000
328.587972	7388.700000
331.056038	7342.800000
333.519284	7314.400000
335.981872	7327.200000
338.443804	7312.600000
340.905079	7297.500000
343.363620	7304.300000
345.823583	7303.300000
348.280813	7304.100000
350.737389	7307.300000
353.193311	7300.900000
355.646503	7306.700000
358.101118	7316.400000
360.550931	7319.600000
363.004240	7331.600000
365.452751	7314.200000
367.900610	7306.400000
370.349892	7313.200000
372.794380	7324.900000
375.240290	7312.300000
377.685550	7295.300000
380.128092	7296.300000
382.569986	7292.100000
385.011233	7319.700000
387.449764	7309.900000
389.889717	7279.400000
392.326956	7319.300000
394.761483	7297.800000
397.199498	7322.000000
399.632736	7325.800000
402.067395	7301.300000
404.497282	7284.500000
406.930654	7294.900000
409.359256	7299.500000
411.787216	7316.200000
414.216598	7336.400000
416.641214	7300.800000
419.067252	7300.100000
421.492649	7305.700000
423.917406	7295.900000
426.337405	7313.400000
428.758825	7299.800000
431.177548	7305.000000
433.597692	7328.100000
436.015141	7313.100000
438.434010	7336.300000
440.850186	7330.900000
443.261614	7320.200000
445.676520	7321.700000
448.088735	7337.000000
450.500316	7319.700000
452.911263	7313.800000
455.319524	7310.600000
457.727152	7305.400000
460.134148	7292.800000
462.540513	7277.100000
464.944195	7301.000000
467.347247	7273.200000
469.749669	7265.800000
472.151461	7258.400000
474.550576	7266.600000
476.951110	7278.200000
479.351015	7259.600000
481.746197	7254.400000
484.144846	7272.000000
486.538775	7252.800000
488.932078	7268.400000
491.324755	7251.800000
493.716807	7226.900000
496.110277	7198.000000
498.499035	7203.500000
500.885127	7175.400000
503.272639	7099.000000
505.659528	7096.000000
508.043753	7062.100000
510.429396	7069.200000
512.812378	7033.300000
515.192699	7014.000000
517.574439	6991.500000
519.953520	6976.900000
522.334020	6979.800000
524.711862	6982.900000
527.087049	6986.300000
529.461618	6977.500000
531.837605	6963.300000
534.210940	6948.900000
536.585692	6949.500000
538.955759	6940.700000
541.325210	6937.300000
543.696079	6944.900000
546.062268	6936.400000
548.429875	6909.700000
550.794836	6914.800000
553.159184	6926.200000
555.522919	6910.500000
557.888072	6937.400000
560.248553	6906.000000
562.610452	6902.700000
564.969710	6920.000000
567.326331	6913.600000
569.686396	6900.800000
572.039770	6890.900000
574.396589	6895.500000
576.750773	6888.900000
579.104349	6891.100000
581.457316	6904.800000
583.807651	6893.900000
586.159404	6895.500000
588.504480	6850.500000
590.855020	6900.900000
593.198886	6900.100000
595.548214	6884.900000
597.892893	6876.600000
600.234948	6871.700000
602.578420	6876.200000
604.919269	6867.700000
607.259516	6891.500000
609.597142	6883.900000
611.938203	6865.700000
614.274626	6884.300000
616.612466	6864.500000
618.947689	6844.500000
621.280296	6837.600000
623.614319	6853.000000
625.945728	6887.000000
628.276539	6866.000000
630.606753	6854.300000
632.936368	6839.400000
635.261360	6849.700000
637.591794	6834.900000
639.917607	6823.000000
642.240812	6812.500000
644.565434	6833.700000
646.887450	6834.300000
649.208872	6839.800000
651.527692	6818.500000
653.847927	6822.400000
656.167569	6835.000000
658.484610	6831.900000
660.801059	6801.400000
663.114910	6813.900000
665.430177	6815.100000
667.742847	6801.300000
670.056932	6839.900000
672.366417	6797.800000
674.677318	6815.600000
676.985626	6789.000000
679.293346	6827.100000
681.602480	6776.600000
683.907022	6803.700000
686.210978	6799.400000
688.514348	6805.300000
690.819132	6808.300000
693.119330	6795.300000
695.420942	6804.300000
697.721970	6790.000000
700.018415	6776.400000
702.316276	6781.300000
704.613553	6780.400000
706.910247	6793.900000
709.202365	6790.500000
711.497894	6789.900000
713.788849	6799.000000
716.081219	6795.100000
718.371014	6782.400000
720.660228	6780.500000
722.948863	6775.600000
725.234925	6789.400000
727.522402	6795.000000
729.807307	6800.400000
732.091635	6819.900000
734.373394	6802.000000
736.656567	6812.400000
738.939163	6800.000000
741.217203	6795.900000
743.496658	6791.200000
745.775536	6790.100000
748.053840	6797.000000
750.327594	6813.200000
752.602761	6806.100000
754.877355	6823.300000
757.149390	6809.800000
759.422838	6808.100000
761.693728	6821.800000
763.962062	6801.000000
766.231809	6819.300000
768.499002	6809.600000
770.765624	6820.000000
773.031676	6794.400000
775.295177	6824.900000
777.560091	6835.000000
779.824435	6815.700000
782.084250	6825.800000
784.345477	6837.300000
786.606137	6827.700000
788.864251	6845.600000
791.119820	6827.400000
793.378780	6823.100000
795.631241	6824.000000
797.889068	6836.000000
800.142377	6815.300000
802.393146	6826.900000
804.645327	6819.600000
806.894969	6811.700000
809.146024	6821.500000
811.392567	6828.000000
813.640522	6790.100000
815.885943	6804.100000
818.132775	6805.100000
820.379046	6815.900000
822.620812	6807.600000
824.865962	6789.000000
827.104639	6805.500000
829.346698	6794.600000
831.584259	6801.200000
833.823232	6806.600000
836.059678	6781.700000
838.297535	6784.900000
840.532867	6769.400000
842.765676	6781.700000
844.999896	6795.300000
847.231593	6780.100000
849.462736	6780.500000
851.693324	6792.800000
853.923358	6778.700000
856.152838	6784.300000
858.377836	6781.300000
860.606209	6758.500000
862.830102	6763.500000
865.055407	6781.100000
867.276236	6781.000000
869.500437	6781.300000
871.720165	6800.000000
873.941303	6767.600000
876.161891	6775.100000
878.379970	6782.500000
880.599458	6786.100000
882.814480	6775.400000
885.028955	6777.600000
887.242881	6773.800000
889.456261	6792.900000
891.669093	6788.300000
893.881379	6795.300000
896.091162	6789.200000
898.300400	6784.500000
900.509093	6790.600000
902.715287	6783.500000
904.922890	6786.500000
907.127995	6792.000000
909.332557	6776.700000
911.534624	6766.300000
913.738100	6775.100000
915.939082	6766.600000
918.139522	6793.900000
920.341371	6793.000000
922.536829	6769.900000
924.735646	6775.700000
926.930024	6765.800000
929.127760	6789.000000
931.321060	6793.000000
933.515769	6777.400000
935.707992	6765.800000
937.899676	6781.200000
940.090823	6785.400000
942.279487	6787.800000
944.467615	6797.400000
946.653262	6784.900000
948.842261	6790.000000
951.026837	6809.600000
953.210878	6832.500000
955.398269	6810.100000
957.577356	6821.100000
959.759794	6840.300000
961.941698	6837.000000
964.121127	6843.800000
966.298084	6831.300000
968.476449	6831.800000
970.656221	6879.400000
972.829644	6883.500000
975.006413	6863.100000
977.178775	6872.200000
979.352545	6883.600000
981.521911	6879.900000
983.694621	6893.900000
985.864866	6892.300000
988.034582	6909.300000
990.203769	6882.700000
992.368559	6905.300000
994.536690	6900.600000
996.700427	6917.900000
998.865570	6911.300000
1001.028254	6913.100000
1003.190413	6918.400000
1005.350115	6930.600000
1007.509292	6930.500000
1009.669876	6932.200000
1011.828006	6934.600000
1013.985611	6924.700000
1016.142693	6944.900000
1018.299251	6937.100000
1020.451430	6952.900000
1022.605016	6946.200000
1024.758080	6958.100000
1026.908695	6971.600000
1029.060717	6939.900000
1031.208365	6982.000000
1033.359345	6988.600000
1035.505954	6961.700000
1037.652044	6983.300000
1039.797616	6957.500000
1041.944593	6998.600000
1044.085281	7004.300000
1046.229299	7005.900000
1048.370876	6997.200000
1050.511937	7012.200000
1052.654402	7035.400000
1054.790588	7023.900000
1056.930099	7014.900000
1059.065256	7027.900000
1061.203737	7024.700000
1063.337864	7026.200000
1065.471478	7009.200000
1067.606497	7026.500000
1069.737166	7001.400000
1071.869240	7018.900000
1073.998885	7011.800000
1076.128018	6987.400000
1078.256639	6978.600000
1080.384749	6989.300000
1082.510433	6998.700000
1084.635607	6995.000000
1086.762185	6940.400000
1088.884425	6985.200000
1091.008070	6978.500000
1093.127380	6978.100000
1095.251920	6949.500000
1097.370214	6945.000000
1099.489913	6932.200000
1101.607193	6950.000000
1103.723967	6932.000000
1105.840234	6941.200000
1107.954085	6937.300000
1110.069341	6937.200000
1112.180273	6923.200000
1114.294518	6906.900000
1116.404442	6913.500000
1118.515770	6919.800000
1120.626593	6908.000000
1122.733100	6897.300000
1124.842917	6918.600000
1126.948419	6912.800000
1129.055324	6905.600000
1131.156014	6894.900000
1133.261916	6904.800000
1135.363509	6881.200000
1137.466505	6903.400000
1139.569000	6914.200000
1141.665288	6922.800000
1143.766784	6879.400000
1145.863976	6891.200000
1147.960671	6919.000000
1150.056867	6876.700000
1152.152566	6901.700000
1154.247766	6889.600000
1156.340570	6889.100000
1158.434777	6884.100000
1160.522792	6889.100000
1162.616005	6899.200000
1164.703030	6881.500000
1166.793354	6879.800000
1168.879391	6886.500000
1170.968725	6881.100000
1173.051878	6885.900000
1175.136433	6891.000000
1177.222390	6897.000000
1179.304065	6891.100000
1181.387142	6884.500000
1183.467833	6906.600000
1185.548032	6888.900000
1187.627740	6886.500000
1189.706957	6889.900000
1191.783792	6886.300000
1193.858246	6877.900000
1195.935991	6877.400000
1198.009467	6910.000000
1200.084343	6885.300000
1202.154952	6883.900000
1204.226962	6912.500000
1206.296597	6904.600000
1208.367632	6876.200000
1210.438179	6885.900000
1212.504465	6870.400000
1214.572152	6886.800000
1216.637467	6877.300000
1218.704182	6886.200000
1220.766641	6884.400000
1222.832385	6881.800000
1224.893875	6910.100000
1226.956766	6897.600000
1229.017289	6904.500000
1231.077328	6901.100000
1233.136885	6907.500000
1235.194076	6897.000000
1237.250786	6909.700000
1239.305132	6911.700000
1241.362760	6885.200000
1243.418025	6894.000000
1245.469049	6878.900000
1247.521473	6908.200000
1249.573417	6924.600000
1251.623003	6923.600000
1253.672110	6922.600000
1255.720739	6926.500000
1257.768889	6937.100000
1259.816560	6921.700000
1261.860001	6944.900000
1263.906718	6926.500000
1265.951081	6945.700000
1267.994968	6942.400000
1270.036503	6957.200000
1272.075689	6933.700000
1274.118148	6948.600000
1276.156384	6976.700000
1278.196019	6952.000000
1280.235179	6981.200000
1282.270120	6997.300000
1284.306460	7006.500000
1286.340456	7016.900000
1288.375849	7033.000000
1290.407030	7043.700000
1292.439608	7052.900000
1294.471715	7084.300000
1296.501481	7095.800000
1298.532645	7113.300000
1300.559601	7149.400000
1302.587955	7166.600000
1304.612104	7169.800000
1306.639519	7212.100000
1308.662731	7225.900000
1310.687341	7270.500000
1312.709617	7321.800000
1314.733290	7335.800000
1316.754630	7369.500000
1318.775502	7409.300000
1320.795907	7435.200000
1322.812119	7492.000000
1324.829728	7507.100000
1326.845009	7545.700000
1328.863549	7570.800000
1330.877900	7569.200000
1332.889925	7570.400000
1334.905207	7603.500000
1336.916304	7600.700000
1338.928798	7597.200000
1340.937109	7596.800000
1342.948675	7577.300000
1344.954203	7525.600000
1346.962986	7521.300000
1348.967591	7472.400000
1350.975450	7452.400000
1352.982847	7411.800000
1354.984213	7345.200000
1356.986975	7312.600000
1358.989278	7300.800000
1360.991121	7264.100000
1362.992504	7248.000000
1364.991574	7206.300000
1366.990185	7168.200000
1368.988338	7131.700000
1370.986032	7133.000000
1372.979564	7118.900000
1374.974491	7104.000000
1376.968962	7082.400000
1378.962976	7057.400000
1380.954683	7028.400000
1382.945935	7025.300000
1384.934881	7022.600000
1386.925222	7015.100000
1388.915108	6979.900000
1390.902690	7010.000000
1392.889819	6983.000000
1394.874646	6971.700000
1396.860868	6971.600000
1398.844790	6960.900000
1400.828259	6951.700000
1402.811275	6979.500000
1404.791994	6928.800000
1406.774107	6946.100000
1408.753924	6933.200000
1410.733289	6916.000000
1412.708516	6900.400000
1414.686981	6909.800000
1416.663153	6885.800000
1418.638876	6934.400000
1420.614149	6914.700000
1422.587131	6889.200000
1424.559665	6914.700000
1426.531751	6908.400000
1428.503390	6907.100000
1430.470900	6883.600000
1432.443484	6896.900000
1434.408262	6902.700000
1436.378113	6898.200000
1438.343840	6891.300000
1440.310959	6909.300000
1442.275795	6901.000000
1444.236511	6906.700000
1446.202295	6887.400000
1448.162124	6885.000000
1450.123347	6904.900000
1452.085962	6872.400000
1454.044462	6889.900000
1456.002519	6893.800000
1457.960135	6889.100000
1459.917308	6911.300000
1461.872206	6906.300000
1463.828497	6888.200000
1465.782513	6893.100000
1467.736088	6870.200000
1469.687391	6895.800000
1471.640087	6898.600000
1473.590510	6872.600000
1475.540495	6870.800000
1477.490041	6872.700000
1479.437318	6877.500000
1481.382327	6877.900000
1483.328729	6899.300000
1485.274693	6885.900000
1487.220220	6904.900000
1489.163481	6907.200000
1491.106307	6883.300000
1493.046869	6903.500000
1494.988822	6893.700000
1496.928513	6906.000000
1498.867770	6904.200000
1500.806591	6927.600000
1502.743153	6906.100000
1504.681106	6932.600000
1506.616800	6916.200000
1508.552061	6911.500000
1510.485066	6928.600000
1512.417638	6924.700000
1514.349778	6944.600000
1516.281486	6941.300000
1518.210940	6920.100000
1520.141785	6946.600000
1522.072198	6959.600000
1523.998539	6975.400000
1525.926271	6968.700000
1527.851752	6991.300000
1529.776804	7011.900000
1531.701427	7008.600000
1533.625621	7002.900000
1535.547567	7023.900000
1537.470904	7034.800000
1539.391994	7061.200000
1541.310840	7091.200000
1543.231076	7106.000000
1545.149069	7137.000000
1547.066635	7150.100000
1548.981959	7216.500000
1550.898673	7224.900000
1552.811332	7259.900000
1554.727195	7299.000000
1556.640818	7356.600000
1558.552203	7382.000000
1560.464978	7401.300000
1562.373703	7422.900000
1564.283817	7444.200000
1566.193508	7438.400000
1568.102776	7447.600000
1570.009810	7442.600000
1571.914611	7451.000000
1573.820801	7445.800000
1575.724759	7405.700000
1577.628296	7389.900000
1579.531413	7369.700000
1581.432300	7349.000000
1583.334576	7328.400000
1585.234624	7314.300000
1587.136059	7281.100000
1589.033461	7267.200000
1590.930444	7223.600000
1592.827009	7238.000000
1594.724962	7204.100000
1596.617080	7218.000000
1598.512391	7184.800000
1600.407285	7186.000000
1602.299957	7166.400000
1604.192212	7168.000000
1606.082248	7134.900000
1607.971868	7101.000000
1609.861073	7093.000000
1611.749863	7090.100000
1613.636435	7033.500000
1615.524395	7017.700000
1617.408338	6993.600000
1619.293668	6985.400000
1621.178585	6969.800000
1623.061288	6943.000000
1624.945378	6929.200000
1626.825456	6899.500000
1628.706922	6916.400000
1630.586177	6913.900000
1632.466818	6859.800000
1634.341655	6865.000000
1636.221473	6866.400000
1638.097287	6862.900000
1639.972690	6854.100000
1641.849479	6858.400000
1643.720472	6864.700000
1645.594646	6846.300000
1647.464821	6825.000000
1649.338178	6799.500000
1651.209331	6812.900000
1653.078282	6819.700000
1654.948618	6809.600000
1656.814962	6821.600000
1658.682691	6815.200000
1660.548221	6809.000000
1662.415137	6805.800000
1664.278064	6788.100000
1666.142376	6806.500000
1668.004492	6806.800000
1669.866203	6808.300000
1671.729300	6796.200000
1673.590201	6784.400000
1675.448910	6800.900000
1677.307215	6777.800000
1679.166905	6787.200000
1681.020827	6784.200000
1682.877923	6775.300000
1684.734616	6771.900000
1686.587332	6770.700000
1688.443220	6796.300000
1690.295134	6782.500000
1692.146647	6781.300000
1693.997759	6786.200000
1695.848471	6781.600000
1697.698782	6755.400000
1699.546908	6791.600000
1701.396419	6784.100000
1703.240181	6781.300000
1705.088892	6742.600000
1706.931857	6780.600000
1708.777989	6781.100000
1710.620158	6785.100000
1712.465493	6766.200000
1714.305087	6768.700000
1716.146065	6787.900000
1717.988426	6771.300000
1719.826831	6774.100000
1721.666619	6752.600000
1723.504232	6782.400000
1725.341449	6767.400000
1727.176493	6765.400000
1729.012920	6752.500000
1730.847175	6782.900000
1732.681035	6756.100000
1734.514501	6787.400000
1736.344022	6776.400000
1738.176701	6769.600000
1740.005436	6770.900000
1741.837328	6764.200000
1743.665278	6749.200000
1745.492837	6752.300000
1747.320003	6745.400000
1749.146778	6761.500000
1750.973161	6765.000000
1752.795608	6773.900000
1754.621210	6764.100000
1756.442877	6752.700000
1758.265926	6761.800000
1760.086813	6760.900000
1761.907312	6744.400000
1763.729191	6790.000000
1765.545372	6754.200000
1767.364704	6767.500000
1769.180109	6758.600000
1770.998664	6774.000000
1772.813294	6763.200000
1774.627537	6759.800000
1776.441394	6755.400000
1778.254864	6751.000000
1780.066181	6759.800000
1781.878878	6777.700000
1783.691190	6766.300000
1785.499584	6757.900000
1787.309358	6766.300000
1789.115218	6754.800000
1790.924223	6739.600000
1792.729315	6768.400000
1794.535788	6762.900000
1796.341877	6759.400000
1798.144055	6740.600000
1799.949378	6774.700000
1801.750792	6750.800000
1803.553586	6748.700000
1805.352474	6765.000000
1807.152743	6750.200000
1808.952630	6748.100000
1810.750375	6745.100000
1812.547740	6732.400000
1814.344725	6761.900000
1816.141329	6758.900000
1817.935794	6762.500000
1819.731638	6755.700000
1821.521827	6767.200000
1823.316913	6760.200000
1825.106347	6756.400000
1826.898917	6766.300000
1828.689352	6774.000000
1830.477653	6751.600000
1832.269089	6738.400000
1834.054879	6786.000000
1835.842049	6760.900000
1837.627087	6752.300000
1839.415259	6744.900000
1841.199545	6743.900000
1842.981701	6765.400000
1844.765237	6746.000000
1846.546644	6746.100000
1848.329430	6763.700000
1850.108335	6758.800000
1851.888620	6755.300000
1853.666778	6758.700000
1855.446315	6763.900000
1857.223727	6747.000000
1858.999015	6756.900000
1860.775681	6767.400000
1862.550225	6771.200000
1864.326147	6766.600000
1866.096448	6777.800000
1867.869877	6768.500000
1869.641186	6755.300000
1871.412124	6762.000000
1873.184440	6769.300000
1874.951142	6764.600000
1876.720970	6764.400000
1878.486934	6761.200000
1880.256021	6759.300000
1882.021247	6753.000000
1883.786105	6748.600000
1885.552340	6757.700000
1887.314716	6742.200000
1889.076725	6771.300000
1890.838366	6773.900000
1892.599641	6749.700000
1894.360548	6739.200000
1896.121089	6785.200000
1897.879520	6765.500000
1899.637585	6741.400000
1901.393543	6778.500000
1903.150877	6756.600000
1904.907846	6770.100000
1906.662708	6764.200000
1908.415466	6756.200000
1910.167859	6754.500000
1911.921629	6773.100000
1913.673295	6749.400000
1915.422859	6759.500000
1917.173798	6754.600000
1918.924375	6763.000000
1920.671112	6749.100000
1922.419226	6756.500000
1924.165240	6739.100000
1925.912629	6755.100000
1927.657921	6748.000000
1929.401115	6749.300000
1931.145684	6747.200000
1932.888158	6758.000000
1934.630271	6763.600000
1936.372024	6741.700000
1938.113417	6754.900000
1939.852717	6755.000000
1941.591658	6750.400000
1943.330240	6763.000000
1945.066731	6751.800000
1946.802864	6750.650000
1948.540371	6749.500000
1950.274056	6782.800000
1952.009116	6760.500000
1953.742087	6762.300000
1955.474702	6758.800000
1957.206961	6772.900000
1958.938863	6774.900000
1960.668679	6771.200000
1962.396410	6756.600000
1964.125516	6755.100000
1965.854267	6763.800000
1967.580934	6761.100000
1969.307247	6745.000000
1971.034933	6753.500000
1972.757083	6776.000000
1974.482334	6771.600000
1976.203778	6752.200000
1977.928323	6774.500000
1979.650787	6749.200000
1981.369449	6767.200000
1983.091209	6757.900000
1984.809167	6753.600000
1986.528498	6789.600000
1988.244030	6760.300000
1989.964382	6780.100000
1991.680936	6775.900000
1993.393693	6773.700000
1995.109546	6758.700000
1996.823327	6756.100000
1998.536758	6769.100000
2000.248118	6781.200000
2001.960850	6755.300000
2003.669792	6767.700000
2005.381826	6783.800000
2007.088352	6781.600000
2008.797969	6768.800000
2010.505520	6781.800000
2012.212722	6768.900000
2013.917859	6777.400000
2015.622650	6792.400000
2017.328812	6753.700000
2019.031192	6774.300000
2020.734943	6756.500000
2022.436632	6761.300000
2024.137976	6782.700000
2025.838974	6767.900000
2027.537911	6751.600000
2029.238220	6737.400000
2030.934754	6749.900000
2032.632659	6762.100000
2034.328505	6750.300000
2036.027437	6776.900000
2037.720883	6761.600000
2039.415700	6752.100000
2041.110175	6778.100000
2042.800881	6782.100000
2044.494671	6770.200000
2046.184694	6781.200000
2047.876088	6767.100000
2049.565429	6771.800000
2051.256140	6775.500000
2052.943088	6753.900000
2054.629697	6773.300000
2056.317675	6767.000000
2058.001894	6757.400000
2059.687484	6768.900000
2061.372734	6769.900000
2063.055935	6769.700000
2064.740507	6749.400000
2066.419616	6754.400000
2068.103510	6745.300000
2069.781943	6725.400000
2071.463454	6773.800000
2073.141213	6766.300000
2074.818636	6778.600000
2076.497428	6761.500000
2078.174178	6749.500000
2079.848886	6752.600000
2081.524963	6758.800000
2083.199000	6772.800000
2084.872701	6759.300000
2086.546067	6757.500000
2088.217394	6778.000000
2089.888387	6754.500000
2091.559046	6744.000000
2093.229371	6752.600000
2094.899362	6774.200000
2096.567317	6764.300000
2098.234939	6764.200000
2099.900526	6756.000000
2101.567482	6759.400000
2103.232405	6759.000000
2104.896996	6779.500000
2106.559555	6757.900000
2108.223482	6763.300000
2109.885378	6777.700000
2111.546944	6763.700000
2113.208178	6771.600000
2114.867384	6790.300000
2116.526259	6776.100000
2118.184805	6779.400000
2119.843020	6757.000000
2121.497513	6763.400000
2123.155070	6774.200000
2124.812298	6765.100000
2126.465804	6759.700000
2128.120678	6785.200000
2129.771833	6778.100000
2131.426051	6777.800000
2133.076552	6785.400000
2134.728419	6775.900000
2136.374878	6773.100000
2138.026092	6754.000000
2139.673592	6788.100000
2141.322459	6770.200000
2142.969307	6777.600000
2144.615830	6775.200000
2146.262027	6775.500000
2147.904516	6764.300000
2149.550063	6769.000000
2151.191903	6766.100000
2152.836800	6773.300000
2154.477991	6783.700000
2156.118860	6780.400000
2157.759404	6778.400000
2159.397936	6772.900000
2161.037834	6764.800000
2162.674032	6792.400000
2164.311596	6774.900000
2165.948838	6758.500000
2167.584070	6792.800000
2169.218981	6777.500000
2170.853569	6771.100000
2172.487837	6752.200000
2174.118411	6771.500000
2175.752037	6762.700000
2177.381971	6787.200000
2179.013270	6753.900000
2180.642564	6763.400000
2182.271539	6788.200000
2183.900194	6759.800000
2185.528530	6763.700000
2187.154864	6759.700000
2188.780879	6755.100000
2190.404892	6776.400000
2192.030271	6779.000000
2193.653649	6770.400000
2195.278392	6765.100000
2196.899454	6772.900000
2198.520199	6768.100000
2200.142309	6755.100000
2201.762421	6747.000000
2203.380536	6777.100000
2204.998336	6776.100000
2206.615821	6771.900000
2208.232990	6771.100000
2209.849844	6776.100000
2211.466382	6760.300000
2213.080928	6774.100000
2214.693481	6770.500000
2216.307398	6760.600000
2217.919324	6755.500000
2219.532613	6763.000000
2221.143912	6783.000000
2222.753221	6766.400000
2224.363894	6754.800000
2225.972578	6783.800000
2227.580949	6774.400000
2229.187334	6773.200000
2230.795082	6773.200000
2232.400843	6786.200000
2234.006293	6753.000000
2235.609758	6768.500000
2237.214586	6795.400000
2238.817430	6763.500000
2240.418291	6766.900000
2242.020515	6761.200000
2243.620757	6785.900000
2245.222361	6763.900000
2246.820312	6759.900000
2248.419626	6763.100000
2250.016960	6770.500000
2251.613986	6775.600000
2253.212374	6789.500000
2254.807113	6770.400000
2256.399875	6757.100000
2257.994000	6778.000000
2259.589486	6762.900000
2261.181327	6769.900000
2262.772862	6760.700000
2264.365759	6759.900000
2265.953346	6749.500000
2267.545629	6798.500000
2269.132606	6781.300000
2270.722610	6798.400000
2272.307310	6771.900000
2273.896704	6771.200000
2275.480796	6764.700000
2277.066248	6775.300000
2278.649732	6760.100000
2280.236241	6779.300000
2281.819117	6757.400000
2283.401690	6747.300000
2284.983959	6746.300000
2286.562598	6765.600000
2288.144262	6776.500000
2289.722297	6754.800000
2291.303355	6787.800000
2292.880786	6760.600000
2294.456254	6733.400000
2296.034744	6762.700000
2297.609610	6744.400000
2299.184175	6754.100000
2300.758440	6768.100000
2302.332404	6762.700000
2303.906067	6785.100000
2305.479431	6768.600000
2307.049176	6750.500000
2308.618622	6742.400000
2310.191086	6753.400000
2311.758276	6768.700000
2313.328484	6741.200000
2314.895077	6756.300000
2316.463030	6763.600000
2318.029027	6755.500000
2319.594727	6768.900000
2321.160129	6770.100000
2322.723578	6768.700000
2324.288386	6785.000000
2325.849586	6788.500000
2327.413800	6825.400000
2328.972752	6822.500000
2330.534719	6798.600000
2332.094734	6779.900000
2333.654455	6776.000000
2335.212226	6758.700000
2336.769702	6773.600000
2338.326884	6777.700000
2339.882118	6787.200000
2341.437059	6770.100000
2342.991705	6776.800000
2344.546058	6786.900000
2346.100118	6751.300000
2347.653883	6775.100000
2349.205704	6778.200000
2350.755583	6774.200000
2352.308469	6775.000000
2353.856112	6778.500000
2355.406764	6761.200000
2356.953824	6794.300000
2358.502242	6770.600000
2360.050369	6787.700000
2361.594907	6774.400000
2363.140803	6772.400000
2364.684761	6801.600000
2366.230076	6767.800000
2367.771806	6791.400000
2369.314893	6766.000000
2370.856044	6775.400000
2372.396906	6798.600000
2373.937479	6759.800000
2375.477763	6783.200000
2377.017758	6799.200000
2378.554175	6768.600000
2380.093593	6780.700000
2381.629433	6798.600000
2383.166631	6779.800000
2384.700253	6781.200000
2386.236875	6758.200000
2387.771567	6789.400000
2389.304329	6775.900000
2390.836804	6791.200000
2392.367351	6790.400000
2393.900896	6773.200000
2395.429230	6792.800000
2396.958921	6785.700000
2398.488325	6778.200000
2400.017445	6787.500000
2401.546280	6762.900000
2403.069909	6790.500000
2404.598174	6781.500000
2406.121237	6805.900000
2407.648933	6796.100000
2409.169790	6780.100000
2410.695280	6797.700000
2412.217209	6797.300000
2413.740494	6802.800000
2415.261857	6803.900000
2416.781301	6801.700000
2418.302100	6822.000000
2419.820981	6790.700000
2421.339579	6795.500000
2422.856260	6785.800000
2424.374295	6788.900000
2425.892049	6788.900000
2427.406252	6791.600000
2428.920174	6786.500000
2430.433816	6799.000000
2431.948813	6794.700000
2433.460261	6797.000000
2434.973064	6800.300000
2436.483953	6808.400000
2437.994564	6789.500000
2439.503263	6810.500000
2441.014948	6804.500000
2442.523090	6792.300000
2444.030954	6786.100000
2445.538540	6804.300000
2447.042585	6771.400000
2448.549615	6795.700000
2450.054737	6800.100000
2451.559582	6805.900000
2453.062520	6791.100000
2454.565182	6788.500000
2456.067567	6784.700000
2457.568047	6799.900000
2459.069880	6808.300000
2460.569808	6783.300000
2462.069461	6780.700000
2463.568839	6790.400000
2465.066314	6777.400000
2466.561887	6789.400000
2468.060440	6792.200000
2469.555465	6776.600000
2471.051842	6781.000000
2472.544693	6799.700000
2474.038897	6766.400000
2475.532827	6795.500000
2477.023233	6794.700000
2478.516617	6807.500000
2480.008103	6792.800000
2481.497692	6790.300000
2482.987009	6784.500000
2484.474430	6768.000000
2485.964827	6765.900000
2487.451706	6807.100000
2488.939936	6791.100000
2490.424649	6773.100000
2491.909093	6789.700000
2493.394887	6803.700000
2494.878790	6791.300000
2496.364043	6786.800000
2497.844163	6799.800000
2499.327256	6807.800000
2500.808458	6794.900000
2502.289391	6806.300000
2503.768435	6807.100000
2505.247210	6777.000000
2506.725717	6802.300000
2508.203956	6785.000000
2509.681926	6800.500000
2511.156391	6786.000000
2512.633826	6820.400000
2514.107757	6786.700000
2515.583038	6790.700000
2517.058052	6807.900000
2518.529565	6797.700000
2520.002429	6810.300000
2521.473410	6784.600000
2522.945741	6789.900000
2524.412958	6798.300000
2525.883142	6814.100000
2527.351445	6797.900000
2528.819483	6805.400000
2530.287256	6812.800000
2531.754764	6806.600000
2533.222007	6810.600000
2534.685758	6804.000000
2536.150859	6824.400000
2537.614083	6812.600000
2539.078656	6821.500000
2540.539741	6822.000000
2542.002175	6795.800000
2543.464346	6794.400000
2544.923031	6814.300000
2546.386287	6808.700000
2547.844448	6791.600000
2549.303957	6803.000000
2550.758372	6790.300000
2552.217358	6798.100000
2553.674472	6805.400000
2555.129715	6794.700000
2556.584696	6811.900000
2558.037809	6804.000000
2559.492270	6802.300000
2560.944861	6816.400000
2562.397193	6818.600000
2563.847658	6816.200000
2565.301078	6815.900000
2566.749416	6811.100000
2568.200709	6820.500000
2569.650137	6803.900000
2571.096092	6806.600000
2572.545002	6825.100000
2573.990442	6805.500000
2575.437229	6805.800000
2576.882154	6823.000000
2578.326820	6808.800000
2579.772834	6804.300000
2581.215382	6816.000000
2582.659277	6799.500000
2584.099707	6822.800000
2585.541484	6840.900000
2586.981402	6825.700000
2588.422667	6827.500000
2589.860470	6827.700000
2591.301223	6811.500000
2592.736914	6825.400000
2594.175554	6807.700000
2595.612336	6829.600000
2597.047263	6823.600000
2598.485137	6827.600000
2599.917954	6833.800000
2601.352118	6822.300000
2602.784428	6854.200000
2604.218084	6836.700000
2605.649887	6841.100000
2607.081436	6826.900000
2608.512733	6857.200000
2609.942177	6859.600000
2611.371369	6841.400000
2612.798711	6852.500000
2614.227398	6868.000000
2615.655834	6858.200000
2617.080822	6860.600000
2618.507157	6845.500000
2619.931643	6863.400000
2621.357475	6877.900000
2622.779863	6857.700000
2624.203597	6883.600000
2625.625484	6867.500000
2627.047122	6903.600000
2628.466914	6879.100000
2629.888052	6876.800000
2631.308940	6885.100000
2632.726390	6863.800000
2634.146779	6889.100000
2635.563731	6914.400000
2636.980434	6899.100000
2638.396889	6882.800000
2639.813096	6896.000000
2641.229055	6899.400000
2642.643173	6916.000000
2644.057043	6903.400000
2645.469075	6905.500000
2646.882450	6896.300000
2648.292396	6927.000000
2649.705278	6937.200000
2651.114731	6943.100000
2652.523938	6928.600000
2653.931309	6909.100000
2655.341614	6939.300000
2656.750084	6934.500000
2658.156718	6935.400000
2659.563107	6952.200000
2660.967662	6917.400000
2662.373561	6962.200000
2663.777627	6936.800000
2665.181448	6938.800000
2666.585025	6940.800000
2667.986771	6969.600000
2669.389860	6935.400000
2670.789531	6948.100000
2672.190546	6961.800000
2673.588145	6942.100000
2674.988674	6920.100000
2676.385787	6947.200000
2677.784244	6938.000000
2679.180874	6936.700000
2680.577261	6928.400000
2681.973406	6966.700000
2683.367725	6942.100000
2684.763387	6925.400000
2686.155640	6919.100000
2687.549235	6914.200000
2688.941006	6928.800000
2690.334120	6923.400000
2691.725410	6888.000000
2693.114877	6923.700000
2694.504104	6887.300000
2695.893092	6890.100000
2697.283421	6885.300000
2698.668767	6884.300000
2700.057036	6903.100000
2701.443485	6902.400000
2702.829695	6877.100000
2704.215666	6893.000000
2705.598239	6882.500000
2706.982154	6878.500000
2708.365831	6877.000000
2709.749269	6870.900000
2711.129313	6866.900000
2712.510697	6863.400000
2713.890267	6869.500000
2715.271177	6857.100000
2716.650273	6847.300000
2718.027555	6857.600000
2719.406178	6861.500000
2720.782988	6855.200000
2722.159561	6821.500000
2723.535899	6843.600000
2724.910426	6840.400000
2726.286293	6827.000000
2727.658773	6848.700000
2729.034169	6826.100000
2730.404605	6838.300000
2731.776382	6828.400000
2733.147924	6855.500000
2734.517658	6818.200000
2735.888733	6841.200000
2737.257999	6803.300000
2738.627032	6828.300000
2739.994259	6828.300000
2741.361252	6834.100000
2742.728013	6834.700000
2744.094542	6825.700000
2745.459265	6813.700000
2746.823756	6803.800000
2748.188016	6827.800000
2749.552043	6822.700000
2750.915839	6795.400000
2752.276261	6807.800000
2753.639593	6800.000000
2754.997983	6823.300000
2756.359283	6788.400000
2757.717213	6799.400000
2759.078051	6829.200000
2760.437090	6794.800000
2761.792760	6813.200000
2763.151338	6791.700000
2764.506549	6812.200000
2765.861531	6805.500000
2767.214717	6802.500000
2768.570809	6785.200000
2769.923536	6755.000000
2771.276036	6772.900000
2772.628307	6796.700000
2773.981916	6779.700000
2775.332165	6789.500000
2776.680619	6786.800000
2778.031979	6775.000000
2779.379979	6807.900000
2780.729317	6795.100000
2782.076863	6789.300000
2783.424183	6789.000000
2784.771276	6772.400000
2786.116578	6791.500000
2787.461653	6793.300000
2788.806503	6771.200000
2790.151127	6775.700000
2791.492399	6802.700000
2792.835009	6800.200000
2794.177393	6780.900000
2795.519552	6775.000000
2796.858362	6807.700000
2798.200072	6791.500000
2799.538434	6802.600000
2800.878132	6798.700000
2802.216046	6785.400000
2803.552175	6786.800000
2804.888080	6798.100000
2806.225323	6774.200000
2807.560782	6782.400000
2808.896018	6782.500000
2810.229471	6775.400000
2811.564261	6787.600000
2812.895711	6798.400000
2814.230056	6806.600000
2815.559503	6785.900000
2816.890287	6776.400000
2818.220849	6800.300000
2819.549632	6790.100000
2820.879751	6791.100000
2822.208092	6824.900000
2823.536212	6792.100000
2824.862554	6790.600000
2826.190233	6810.400000
2827.514578	6800.500000
2828.840260	6795.500000
2830.164166	6778.500000
2831.487853	6778.200000
2832.812875	6805.300000
2834.134567	6776.900000
2835.456041	6810.300000
2836.777296	6796.900000
2838.098332	6793.100000
2839.417595	6799.900000
2840.738194	6780.100000
2842.057022	6779.800000
2843.375631	6791.100000
2844.692469	6777.800000
2846.009090	6781.500000
2847.325494	6784.000000
2848.640128	6782.900000
2849.956098	6794.000000
2851.268747	6777.500000
2852.582731	6805.300000
2853.896499	6794.200000
2855.210050	6785.400000
2856.521835	6768.500000
2857.831853	6798.400000
2859.143206	6795.600000
2860.451244	6790.800000
2861.760616	6787.900000
2863.069774	6809.100000
2864.378716	6794.800000
2865.685894	6802.700000
2866.991310	6788.500000
2868.298060	6770.500000
2869.603047	6806.700000
2870.907821	6816.400000
2872.210833	6803.100000
2873.516726	6789.600000
2874.817765	6795.200000
2876.120138	6793.600000
2877.420751	6789.400000
2878.722698	6806.800000
2880.024431	6772.800000
2881.322861	6806.700000
2882.622624	6790.100000
2883.920630	6790.400000
2885.218424	6801.300000
2886.514462	6782.900000
2887.811833	6803.700000
2889.107448	6807.000000
2890.402852	6804.000000
2891.698045	6802.800000
2892.989941	6800.500000
2894.284713	6786.700000
2895.576188	6787.500000
2896.868996	6793.000000
2898.161594	6785.100000
2899.450898	6810.400000
2900.741534	6804.500000
2902.030419	6827.200000
2903.320636	6799.500000
2904.607562	6786.200000
2905.895820	6806.500000
2907.182329	6797.900000
2908.468629	6796.500000
2909.754722	6799.600000
2911.039066	6800.000000
2912.326281	6795.100000
2913.608670	6801.900000
2914.892391	6797.900000
2916.174366	6800.200000
2917.456133	6822.200000
2918.736156	6793.600000
2920.019048	6810.600000
2921.300195	6810.000000
2922.578060	6799.000000
2923.858794	6798.600000
2925.136247	6781.400000
2926.413494	6796.300000
2927.688999	6797.800000
2928.967372	6786.200000
2930.240931	6786.200000
2931.517357	6800.000000
2932.792042	6790.600000
2934.064986	6773.800000
2935.339262	6794.700000
2936.611798	6787.400000
2937.884129	6781.800000
2939.153188	6787.400000
2940.425112	6793.900000
2941.695298	6782.200000
2942.965280	6773.600000
2944.235059	6786.200000
2945.503102	6771.800000
2946.769408	6770.200000
2948.035513	6758.700000
2949.302947	6791.500000
2950.568647	6777.100000
2951.834144	6777.100000
2953.099439	6781.900000
2954.361469	6756.600000
2955.624829	6749.900000
2956.887988	6769.900000
2958.149415	6782.600000
2959.412171	6779.900000
2960.673195	6767.700000
2961.932489	6769.500000
2963.191583	6782.800000
2964.450476	6768.900000
2965.709169	6771.900000
2966.967662	6764.000000
2968.224426	6784.600000
2969.480990	6757.700000
2970.735827	6771.300000
2971.991992	6771.200000
2973.244903	6760.700000
2974.499143	6758.900000
2975.753184	6766.000000
2977.005499	6780.600000
2978.257615	6765.600000
2979.508007	6771.500000
2980.761254	6764.300000
2982.009724	6757.400000
2983.261049	6750.500000
2984.509124	6762.900000
2985.757003	6765.100000
2987.004684	6742.100000
2988.252168	6733.500000
2989.497931	6777.200000
2990.743498	6747.200000
2991.990392	6777.900000
2993.234042	6750.900000
2994.479020	6774.100000
2995.720754	6802.000000
2996.965340	6761.900000
2998.208207	6767.200000
2999.447833	6758.500000
3000.690309	6754.900000
3001.929545	6761.900000
3003.170109	6763.900000
3004.408957	6772.600000
3005.647609	6756.400000
3006.884546	6786.400000
3008.122811	6751.600000
3009.359360	6767.500000
3010.595716	6736.500000
3011.831878	6768.300000
3013.066326	6766.400000
3014.300582	6750.700000
3015.534644	6767.300000
3016.766994	6766.000000
3017.997632	6751.200000
3019.231116	6760.100000
3020.462888	6760.200000
3021.692950	6752.400000
3022.922819	6759.800000
3024.150980	6747.100000
3025.380466	6727.600000
3026.608243	6768.800000
3027.835829	6761.300000
3029.064742	6755.200000
3030.288912	6762.300000
3031.515925	6743.800000
3032.739714	6751.600000
3033.964830	6749.400000
3035.188239	6766.300000
3036.411458	6729.200000
3037.632972	6776.000000
3038.857327	6744.200000
3040.076947	6737.400000
3041.297893	6745.300000
3042.518650	6753.300000
3043.737703	6746.700000
3044.958081	6741.200000
3046.175243	6761.100000
3047.393731	6748.700000
3048.610516	6755.500000
3049.827114	6749.800000
3051.043523	6749.200000
3052.256720	6757.100000
3053.472754	6753.900000
3054.685576	6752.700000
3055.901235	6760.100000
3057.112171	6741.000000
3058.324432	6743.800000
3059.536507	6737.700000
3060.748394	6750.800000
3061.958585	6757.800000
3063.168589	6751.900000
3064.378407	6753.700000
3065.586529	6756.000000
3066.794466	6737.100000
3068.000707	6767.400000
3069.208273	6751.200000
3070.414144	6740.200000
3071.619831	6729.200000
3072.825332	6751.500000
3074.029140	6738.900000
3075.234272	6729.800000
3076.437711	6752.400000
3077.639459	6748.200000
3078.841022	6750.700000
3080.042402	6713.000000
3081.243598	6750.000000
3082.443104	6746.100000
3083.642427	6750.600000
3084.843073	6746.200000
3086.042029	6710.700000
3087.237791	6722.900000
3088.436382	6743.900000
3089.631779	6748.700000
3090.828499	6736.800000
3092.022027	6734.900000
3093.218383	6734.900000
3094.413053	6735.000000
3095.604532	6739.700000
3096.800342	6773.600000
3097.991458	6746.500000
3099.183898	6751.200000
3100.373150	6736.400000
3101.565227	6735.300000
3102.755621	6739.800000
3103.942829	6740.800000
3105.131360	6745.800000
3106.321212	6750.300000
3107.507881	6754.900000
3108.694369	6751.500000
3109.880679	6755.700000
3111.068310	6746.100000
3112.252759	6758.700000
3113.435529	6726.000000
3114.621121	6723.800000
3115.805034	6729.100000
3116.987268	6749.000000
3118.169323	6743.300000
3119.351200	6730.100000
3120.532899	6735.900000
3121.712921	6736.700000
3122.891266	6741.800000
3124.072431	6717.000000
3125.250421	6727.400000
3126.428235	6737.700000
3127.605871	6720.700000
3128.781832	6739.100000
3129.957616	6741.100000
3131.134722	6733.800000
3132.310153	6744.800000
3133.483911	6738.400000
3134.655996	6726.600000
3135.829403	6723.500000
3137.002633	6751.500000
3138.174192	6722.300000
3139.347071	6737.600000
3140.516783	6747.400000
3141.687816	6743.100000
3142.857179	6747.900000
3144.024871	6716.000000
3145.195379	6750.100000
3146.361229	6749.600000
3147.531387	6725.100000
3148.696889	6735.000000
3149.862216	6748.400000
3151.027370	6719.600000
3152.192351	6725.600000
3153.358651	6717.000000
3154.520299	6728.400000
3155.683266	6719.100000
3156.846061	6733.800000
3158.008683	6724.800000
3159.169640	6705.000000
3160.330424	6719.500000
3161.491036	6706.200000
3162.649984	6718.600000
3163.808761	6721.200000
3164.967366	6726.800000
3166.125798	6743.800000
3167.284060	6713.100000
3168.440659	6737.800000
3169.595597	6740.900000
3170.751854	6722.500000
3171.906450	6720.600000
3173.060876	6718.600000
3174.213642	6750.400000
3175.366237	6731.700000
3176.518663	6740.600000
3177.670919	6709.100000
3178.823004	6725.300000
3179.971944	6722.700000
3181.123690	6735.800000
3182.273778	6733.500000
3183.422210	6754.700000
3184.570472	6724.000000
3185.718566	6734.400000
3186.866491	6743.700000
3188.012760	6734.900000
3189.158861	6749.600000
3190.303308	6711.900000
3191.447587	6745.900000
3192.591698	6713.600000
3193.737126	6742.300000
3194.879416	6741.600000
3196.021539	6747.900000
3197.163494	6744.300000
3198.305282	6734.000000
3199.446903	6738.000000
3200.585389	6735.400000
3201.725192	6716.100000
3202.866313	6726.000000
3204.004299	6725.100000
3205.140636	6735.200000
3206.276807	6724.400000
3207.414295	6724.900000
3208.550135	6709.100000
3209.687292	6727.300000
3210.819836	6739.400000
3211.956662	6734.100000
3213.088876	6733.600000
3214.222407	6737.900000
3215.355774	6726.100000
3216.486013	6740.500000
3217.619050	6746.700000
3218.748961	6706.100000
3219.880188	6696.400000
3221.008291	6709.800000
3222.139190	6709.100000
3223.268445	6718.100000
3224.396057	6740.400000
3225.520546	6700.200000
3226.649311	6718.800000
3227.774954	6707.700000
3228.900435	6719.400000
3230.024274	6714.400000
3231.150907	6727.700000
3232.272943	6734.700000
3233.396295	6710.000000
3234.519485	6728.600000
3235.642512	6702.400000
3236.763901	6725.100000
3237.885127	6704.400000
3239.004716	6718.200000
3240.124143	6718.100000
3241.241932	6725.200000
3242.362513	6723.500000
3243.479981	6717.700000
3244.597288	6705.200000
3245.714435	6704.200000
3246.829946	6717.300000
3247.946771	6708.000000
3249.060487	6725.100000
3250.176992	6728.600000
3251.291863	6709.000000
3252.403625	6731.600000
3253.515227	6724.900000
3254.628145	6735.500000
3255.740903	6739.900000
3256.850555	6717.600000
3257.961522	6733.100000
3259.072330	6748.200000
3260.181506	6737.600000
3261.289052	6712.400000
3262.397911	6727.100000
3263.506613	6728.300000
3264.612212	6748.500000
3265.719125	6708.700000
3266.824409	6704.800000
3267.931007	6730.900000
3269.034505	6732.700000
3270.139318	6726.600000
3271.243973	6731.500000
3272.345529	6718.900000
3273.446929	6730.600000
3274.549643	6725.400000
3275.652201	6744.500000
3276.751662	6753.200000
3277.853907	6724.400000
3278.953056	6724.400000
3280.050581	6717.600000
3281.147950	6725.200000
3282.248101	6739.300000
3283.345160	6709.600000
3284.442063	6727.100000
3285.538811	6721.000000
3286.631001	6732.600000
3287.727439	6722.600000
3288.822255	6724.800000
3289.916917	6738.100000
3291.009957	6721.200000
3292.102842	6702.500000
3293.194108	6734.100000
3294.286685	6733.100000
3295.377643	6718.300000
3296.466981	6729.500000
3297.556166	6726.300000
3298.646664	6722.400000
3299.734077	6714.300000
3300.821337	6708.700000
3301.909910	6717.100000
3302.998331	6717.800000
3304.082204	6721.900000
3305.170319	6708.300000
3306.255352	6730.400000
3307.338770	6736.100000
3308.423500	6728.800000
3309.506614	6723.600000
3310.591041	6732.300000
3311.672389	6745.600000
3312.755049	6727.900000
3313.836095	6734.600000
3314.916990	6720.300000
3315.996271	6705.400000
3317.075402	6726.100000
3318.155845	6729.200000
3319.233213	6736.900000
3320.311893	6715.100000
3321.388961	6712.500000
3322.465880	6733.200000
3323.541187	6705.900000
3324.616345	6719.300000
3325.692814	6715.600000
3326.766213	6723.400000
3327.839463	6725.500000
3328.914023	6718.900000
3329.986975	6723.700000
3331.058318	6741.900000
3332.130972	6721.400000
3333.200560	6709.900000
3334.271458	6700.100000
3335.340749	6709.100000
3336.411351	6708.000000
3337.480346	6719.000000
3338.547735	6716.000000
3339.613519	6725.400000
3340.683529	6706.800000
3341.750476	6694.400000
3342.814361	6710.600000
3343.881014	6705.700000
3344.946062	6694.200000
3346.009507	6707.400000
3347.072806	6718.700000
3348.135958	6700.500000
3349.198964	6713.100000
3350.261824	6716.800000
3351.323082	6719.500000
3352.381283	6739.200000
3353.443704	6745.800000
3354.503070	6719.500000
3355.562290	6704.400000
3356.622820	6719.900000
3357.678840	6714.900000
3358.737624	6693.000000
3359.791901	6713.600000
3360.848942	6719.200000
3361.904384	6702.200000
3362.961136	6725.100000
3364.016289	6696.500000
3365.069845	6700.500000
3366.121805	6700.500000
3367.176526	6727.200000
3368.228198	6720.900000
3369.279727	6716.300000
3370.332564	6701.100000
3371.382354	6727.800000
3372.433453	6694.600000
3373.481506	6732.000000
3374.532318	6702.900000
3375.580086	6700.200000
3376.627711	6710.100000
3377.675193	6713.500000
3378.721083	6707.700000
3379.768281	6719.200000
3380.812437	6713.500000
3381.859351	6707.900000
3382.904673	6704.800000
3383.946954	6694.200000
3384.989095	6712.300000
3386.032543	6709.800000
3387.075850	6713.800000
3388.117568	6702.200000
3389.159144	6731.900000
3390.200579	6697.200000
3391.240426	6724.300000
3392.278684	6708.500000
3393.318250	6710.400000
3394.357676	6692.000000
3395.395514	6716.600000
3396.431765	6719.200000
3397.467877	6708.200000
3398.505296	6724.100000
3399.539682	6709.200000
3400.575375	6716.900000
3401.610929	6706.200000
3402.643452	6717.400000
3403.678728	6695.500000
3404.710973	6700.900000
3405.743080	6714.900000
3406.773603	6690.000000
3407.805433	6716.700000
3408.837125	6697.300000
3409.865789	6699.100000
3410.894316	6701.000000
3411.924149	6713.600000
3412.953845	6705.900000
3413.980515	6704.000000
3415.008492	6723.900000
3416.033444	6707.100000
3417.061146	6712.200000
3418.085825	6701.600000
3419.111810	6715.100000
3420.136215	6704.300000
3421.160484	6714.400000
3422.183174	6703.700000
3423.205728	6692.600000
3424.229588	6685.800000
3425.250428	6713.500000
3426.271132	6719.700000
3427.293143	6696.000000
3428.312135	6695.800000
3429.330991	6704.200000
3430.351154	6692.900000
3431.368300	6716.700000
