-117.888313	398.200000
-115.218713	401.100000
-112.552048	410.800000
-109.886135	407.700000
-107.223154	415.000000
-104.558744	391.000000
-101.897264	386.400000
-99.234355	382.100000
-96.576552	414.700000
-93.917320	407.500000
-91.258836	400.500000
-88.603276	412.500000
-85.946288	427.200000
-83.294398	419.800000
-80.641078	409.400000
-77.990677	418.500000
-75.338847	410.400000
-72.692108	421.400000
-70.043940	434.300000
-67.396514	424.100000
-64.752002	423.000000
-62.106062	416.200000
-59.465203	428.500000
-56.822915	448.000000
-54.183536	423.800000
-51.542727	424.000000
-48.902659	447.400000
-46.267663	438.100000
-43.631239	453.600000
-40.997717	445.400000
-38.362767	452.000000
-35.732882	442.200000
-33.099405	454.100000
-30.470990	476.300000
-27.843309	470.400000
-25.214199	493.200000
-22.590146	464.000000
-19.962504	492.200000
-17.339915	519.100000
-14.718058	564.300000
-12.096931	614.100000
-9.476534	888.200000
-6.859026	1828.500000
-4.240089	4581.800000
-1.624037	11144.700000
0.991286	10077.500000
3.605882	4827.500000
6.217595	990.400000
8.830737	570.300000
11.438845	546.800000
14.050535	538.100000
16.657194	523.900000
19.265281	536.800000
21.872644	562.100000
24.474982	557.000000
27.080898	562.200000
29.681792	571.900000
32.284114	577.400000
34.881419	578.200000
37.482299	595.700000
40.078164	598.800000
42.675458	596.800000
45.272032	606.000000
47.863597	605.800000
50.456590	613.100000
53.046722	638.800000
55.638282	631.600000
58.226982	631.500000
60.817109	636.000000
63.402237	651.000000
65.988793	669.900000
68.574635	695.800000
71.157623	707.600000
73.742037	731.900000
76.319323	719.500000
78.900175	718.900000
81.478178	757.600000
84.055471	784.100000
86.634190	768.900000
89.207927	815.500000
91.783092	852.500000
94.355413	898.100000
96.927026	913.500000
99.495799	964.900000
102.065999	1035.200000
104.633361	1081.500000
107.202148	1209.800000
109.768099	1379.900000
112.331215	1585.900000
114.897887	1826.900000
117.455338	2323.900000
120.018474	2991.500000
122.576650	4118.700000
125.138381	5498.900000
127.695155	6528.000000
130.253356	6567.500000
132.806603	6621.100000
135.359153	6711.800000
137.915253	6834.900000
140.466405	6954.300000
143.016860	7019.900000
145.566617	7098.900000
148.113555	7116.200000
150.659798	7169.700000
153.207466	7215.700000
155.754438	7208.400000
158.296475	7187.400000
160.837818	7164.300000
163.378468	7172.700000
165.920544	7198.800000
168.459808	7183.300000
170.996264	7177.700000
173.532028	7183.800000
176.069218	7162.500000
178.605717	7145.800000
181.139410	7157.000000
183.670299	7153.500000
186.200501	7160.800000
188.732127	7161.100000
191.260952	7157.700000
193.786978	7141.700000
196.312318	7156.900000
198.839083	7169.600000
201.363052	7145.700000
203.886336	7148.000000
206.408935	7170.700000
208.928741	7141.300000
211.447864	7141.700000
213.966304	7170.000000
216.486168	7169.700000
218.999031	7165.600000
221.515425	7164.100000
224.031137	7161.100000
226.541959	7129.500000
229.054206	7175.300000
231.563671	7174.300000
234.072457	7156.200000
236.580564	7199.100000
239.090096	7189.700000
241.594747	7182.700000
244.098722	7204.600000
246.604121	7168.700000
249.104645	7178.600000
251.608693	7183.300000
254.105769	7183.400000
256.606369	7187.900000
259.104197	7203.600000
261.601352	7207.200000
264.097834	7194.100000
266.589453	7214.800000
269.084592	7215.800000
271.576964	7210.500000
274.068666	7224.200000
276.557605	7245.600000
279.047968	7190.700000
281.535568	7209.400000
284.020409	7211.700000
286.508765	7210.300000
288.990181	7228.600000
291.475111	7238.500000
293.955196	7221.700000
296.438793	7242.800000
298.917547	7247.600000
301.397725	7241.900000
303.875150	7241.200000
306.351912	7244.600000
308.828011	7270.400000
311.301361	7273.400000
313.774049	7324.800000
316.246076	7362.700000
318.717442	7453.700000
321.186063	7536.300000
323.654026	7543.700000
326.123410	7456.900000
328.587972	7381.300000
331.056038	7318.100000
333.519284	7303.500000
335.981872	7305.700000
338.443804	7291.400000
340.905079	7282.500000
343.363620	7289.700000
345.823583	7314.700000
348.280813	7304.500000
350.737389	7296.100000
353.193311	7299.200000
355.646503	7275.500000
358.101118	7296.500000
360.550931	7316.700000
363.004240	7301.400000
365.452751	7287.300000
367.900610	7288.500000
370.349892	7288.000000
372.794380	7288.800000
375.240290	7283.600000
377.685550	7272.300000
380.128092	7326.300000
382.569986	7296.900000
385.011233	7315.100000
387.449764	7286.100000
389.889717	7264.300000
392.326956	7272.200000
394.761483	7275.500000
397.199498	7304.700000
399.632736	7281.000000
402.067395	7297.900000
404.497282	7275.700000
406.930654	7279.800000
409.359256	7268.500000
411.787216	7302.500000
414.216598	7289.800000
416.641214	7299.400000
419.067252	7270.300000
421.492649	7283.300000
423.917406	7311.700000
426.337405	7289.000000
428.758825	7311.000000
431.177548	7300.000000
433.597692	7307.400000
436.015141	7314.600000
438.434010	7299.100000
440.850186	7316.100000
443.261614	7309.100000
445.676520	7311.800000
448.088735	7311.700000
450.500316	7306.500000
452.911263	7301.700000
455.319524	7306.900000
457.727152	7280.900000
460.134148	7286.700000
462.540513	7298.300000
464.944195	7299.900000
467.347247	7238.500000
469.749669	7274.600000
472.151461	7248.900000
474.550576	7238.200000
476.951110	7231.800000
479.351015	7262.400000
481.746197	7229.400000
484.144846	7268.200000
486.538775	7275.700000
488.932078	7259.700000
491.324755	7231.000000
493.716807	7224.200000
496.110277	7201.600000
498.499035	7171.800000
500.885127	7131.700000
503.272639	7125.900000
505.659528	7069.000000
508.043753	7063.100000
510.429396	7057.700000
512.812378	7043.100000
515.192699	7019.700000
517.574439	6992.900000
519.953520	6957.300000
522.334020	6946.000000
524.711862	6949.700000
527.087049	6945.800000
529.461618	6929.300000
531.837605	6960.600000
534.210940	6919.500000
536.585692	6931.300000
538.955759	6909.400000
541.325210	6944.800000
543.696079	6914.300000
546.062268	6900.600000
548.429875	6912.200000
550.794836	6910.700000
553.159184	6909.600000
555.522919	6925.000000
557.888072	6893.300000
560.248553	6918.300000
562.610452	6885.300000
564.969710	6881.200000
567.326331	6871.900000
569.686396	6868.900000
572.039770	6878.300000
574.396589	6871.800000
576.750773	6870.900000
579.104349	6890.000000
581.457316	6875.600000
583.807651	6880.400000
586.159404	6877.800000
588.504480	6879.700000
590.855020	6851.300000
593.198886	6883.000000
595.548214	6866.100000
597.892893	6858.100000
600.234948	6873.300000
602.578420	6861.700000
604.919269	6864.300000
607.259516	6860.700000
609.597142	6847.300000
611.938203	6846.400000
614.274626	6854.400000
616.612466	6848.800000
618.947689	6831.300000
621.280296	6842.300000
623.614319	6833.400000
625.945728	6843.200000
628.276539	6822.100000
630.606753	6841.400000
632.936368	6847.300000
635.261360	6817.800000
637.591794	6816.500000
639.917607	6795.600000
642.240812	6814.600000
644.565434	6813.900000
646.887450	6813.700000
649.208872	6808.300000
651.527692	6815.600000
653.847927	6798.500000
656.167569	6801.100000
658.484610	6805.900000
660.801059	6797.100000
663.114910	6798.800000
665.430177	6787.000000
667.742847	6794.000000
670.056932	6789.200000
672.366417	6790.800000
674.677318	6795.100000
676.985626	6765.200000
679.293346	6802.100000
681.602480	6791.500000
683.907022	6799.600000
686.210978	6785.600000
688.514348	6769.000000
690.819132	6795.400000
693.119330	6788.900000
695.420942	6784.100000
697.721970	6773.200000
700.018415	6768.000000
702.316276	6787.000000
704.613553	6783.500000
706.910247	6769.700000
709.202365	6793.200000
711.497894	6750.100000
713.788849	6765.200000
716.081219	6760.600000
718.371014	6759.400000
720.660228	6743.500000
722.948863	6782.300000
725.234925	6777.600000
727.522402	6778.100000
729.807307	6780.200000
732.091635	6787.900000
734.373394	6771.300000
736.656567	6768.000000
738.939163	6791.200000
741.217203	6764.300000
743.496658	6796.600000
745.775536	6788.200000
748.053840	6798.300000
750.327594	6776.800000
752.602761	6805.800000
754.877355	6797.800000
757.149390	6792.400000
759.422838	6800.700000
761.693728	6764.700000
763.962062	6820.800000
766.231809	6795.300000
768.499002	6808.400000
770.765624	6783.600000
773.031676	6820.400000
775.295177	6798.300000
777.560091	6832.500000
779.824435	6823.800000
782.084250	6816.800000
784.345477	6817.500000
786.606137	6828.100000
788.864251	6804.000000
791.119820	6831.500000
793.378780	6822.700000
795.631241	6831.100000
797.889068	6814.100000
800.142377	6831.500000
802.393146	6789.300000
804.645327	6823.000000
806.894969	6796.900000
809.146024	6810.000000
811.392567	6804.200000
813.640522	6800.100000
815.885943	6783.100000
818.132775	6792.200000
820.379046	6796.700000
822.620812	6800.600000
824.865962	6802.800000
827.104639	6794.200000
829.346698	6806.500000
831.584259	6753.400000
833.823232	6786.300000
836.059678	6781.600000
838.297535	6790.100000
840.532867	6756.300000
842.765676	6771.700000
844.999896	6761.200000
847.231593	6764.300000
849.462736	6771.500000
851.693324	6740.500000
853.923358	6754.000000
856.152838	6744.700000
858.377836	6767.000000
860.606209	6746.700000
862.830102	6754.100000
865.055407	6770.200000
867.276236	6755.300000
869.500437	6757.500000
871.720165	6776.000000
873.941303	6752.500000
876.161891	6786.800000
878.379970	6790.000000
880.599458	6762.900000
882.814480	6756.600000
885.028955	6772.400000
887.242881	6776.000000
889.456261	6781.300000
891.669093	6763.000000
893.881379	6752.200000
896.091162	6772.900000
898.300400	6764.300000
900.509093	6783.400000
902.715287	6758.200000
904.922890	6764.300000
907.127995	6758.600000
909.332557	6777.600000
911.534624	6750.500000
913.738100	6743.900000
915.939082	6761.700000
918.139522	6747.100000
920.341371	6762.100000
922.536829	6745.100000
924.735646	6752.000000
926.930024	6752.300000
929.127760	6771.100000
931.321060	6780.500000
933.515769	6756.700000
935.707992	6772.400000
937.899676	6778.600000
940.090823	6786.500000
942.279487	6793.300000
944.467615	6787.900000
946.653262	6799.400000
948.842261	6790.300000
951.026837	6797.800000
953.210878	6805.900000
955.398269	6814.500000
957.577356	6801.700000
959.759794	6825.300000
961.941698	6834.600000
964.121127	6827.200000
966.298084	6800.500000
968.476449	6850.100000
970.656221	6858.700000
972.829644	6856.000000
975.006413	6864.500000
977.178775	6869.100000
979.352545	6871.200000
981.521911	6877.500000
983.694621	6853.800000
985.864866	6893.600000
988.034582	6906.500000
990.203769	6879.200000
992.368559	6869.000000
994.536690	6885.000000
996.700427	6892.700000
998.865570	6896.600000
1001.028254	6911.200000
1003.190413	6918.100000
1005.350115	6910.000000
1007.509292	6915.700000
1009.669876	6944.800000
1011.828006	6925.400000
1013.985611	6934.100000
1016.142693	6933.600000
1018.299251	6941.600000
1020.451430	6930.200000
1022.605016	6964.100000
1024.758080	6960.500000
1026.908695	6954.100000
1029.060717	6951.100000
1031.208365	6962.400000
1033.359345	6993.700000
1035.505954	6977.700000
1037.652044	6969.500000
1039.797616	6966.300000
1041.944593	6985.200000
1044.085281	7003.800000
1046.229299	6999.900000
1048.370876	6999.100000
1050.511937	7006.500000
1052.654402	7010.100000
1054.790588	7010.000000
1056.930099	7033.600000
1059.065256	7017.900000
1061.203737	7002.100000
1063.337864	7008.900000
1065.471478	6998.100000
1067.606497	7010.400000
1069.737166	7007.600000
1071.869240	7010.000000
1073.998885	6999.800000
1076.128018	6971.500000
1078.256639	6988.800000
1080.384749	6992.700000
1082.510433	6995.700000
1084.635607	6994.400000
1086.762185	6984.100000
1088.884425	6969.400000
1091.008070	6951.600000
1093.127380	6950.100000
1095.251920	6942.800000
1097.370214	6950.400000
1099.489913	6907.700000
1101.607193	6931.400000
1103.723967	6914.200000
1105.840234	6928.300000
1107.954085	6919.200000
1110.069341	6920.200000
1112.180273	6898.100000
1114.294518	6910.800000
1116.404442	6934.600000
1118.515770	6935.600000
1120.626593	6894.300000
1122.733100	6914.200000
1124.842917	6898.900000
1126.948419	6907.800000
1129.055324	6893.700000
1131.156014	6891.900000
1133.261916	6892.900000
1135.363509	6894.800000
1137.466505	6897.500000
1139.569000	6889.100000
1141.665288	6866.900000
1143.766784	6883.100000
1145.863976	6878.100000
1147.960671	6879.300000
1150.056867	6888.300000
1152.152566	6897.900000
1154.247766	6887.700000
1156.340570	6877.300000
1158.434777	6876.700000
1160.522792	6893.900000
1162.616005	6892.300000
1164.703030	6873.400000
1166.793354	6870.200000
1168.879391	6886.500000
1170.968725	6887.800000
1173.051878	6888.200000
1175.136433	6892.200000
1177.222390	6893.300000
1179.304065	6887.600000
1181.387142	6877.000000
1183.467833	6892.500000
1185.548032	6877.700000
1187.627740	6886.800000
1189.706957	6891.300000
1191.783792	6875.700000
1193.858246	6875.900000
1195.935991	6883.300000
1198.009467	6907.100000
1200.084343	6890.300000
1202.154952	6880.900000
1204.226962	6879.300000
1206.296597	6894.500000
1208.367632	6883.500000
1210.438179	6879.200000
1212.504465	6870.400000
1214.572152	6871.100000
1216.637467	6872.500000
1218.704182	6886.500000
1220.766641	6855.200000
1222.832385	6895.200000
1224.893875	6872.500000
1226.956766	6880.700000
1229.017289	6862.100000
1231.077328	6884.000000
1233.136885	6862.700000
1235.194076	6882.700000
1237.250786	6870.700000
1239.305132	6914.400000
1241.362760	6904.700000
1243.418025	6889.100000
1245.469049	6899.100000
1247.521473	6893.900000
1249.573417	6907.700000
1251.623003	6909.100000
1253.672110	6923.300000
1255.720739	6905.600000
1257.768889	6892.200000
1259.816560	6904.700000
1261.860001	6930.000000
1263.906718	6937.600000
1265.951081	6921.600000
1267.994968	6938.000000
1270.036503	6944.500000
1272.075689	6931.000000
1274.118148	6972.400000
1276.156384	6984.000000
1278.196019	6977.700000
1280.235179	6975.700000
1282.270120	6933.000000
1284.306460	6991.800000
1286.340456	7011.900000
1288.375849	7025.900000
1290.407030	7037.400000
1292.439608	7041.300000
1294.471715	7043.500000
1296.501481	7076.300000
1298.532645	7091.300000
1300.559601	7149.000000
1302.587955	7145.800000
1304.612104	7154.700000
1306.639519	7160.700000
1308.662731	7212.900000
1310.687341	7230.800000
1312.709617	7258.300000
1314.733290	7309.000000
1316.754630	7304.700000
1318.775502	7354.100000
1320.795907	7363.200000
1322.812119	7410.200000
1324.829728	7424.600000
1326.845009	7466.500000
1328.863549	7480.000000
1330.877900	7481.300000
1332.889925	7503.600000
1334.905207	7476.700000
1336.916304	7489.900000
1338.928798	7486.900000
1340.937109	7454.200000
1342.948675	7462.700000
1344.954203	7429.000000
1346.962986	7407.800000
1348.967591	7395.900000
1350.975450	7346.400000
1352.982847	7320.400000
1354.984213	7278.800000
1356.986975	7250.700000
1358.989278	7228.800000
1360.991121	7215.400000
1362.992504	7181.500000
1364.991574	7165.900000
1366.990185	7120.400000
1368.988338	7102.000000
1370.986032	7108.000000
1372.979564	7054.100000
1374.974491	7062.000000
1376.968962	7028.600000
1378.962976	7006.800000
1380.954683	6993.700000
1382.945935	6983.800000
1384.934881	6982.800000
1386.925222	6981.900000
1388.915108	6948.800000
1390.902690	6953.500000
1392.889819	6938.900000
1394.874646	6924.700000
1396.860868	6942.500000
1398.844790	6927.200000
1400.828259	6941.400000
1402.811275	6921.100000
1404.791994	6940.300000
1406.774107	6918.700000
1408.753924	6918.800000
1410.733289	6905.100000
1412.708516	6894.800000
1414.686981	6902.400000
1416.663153	6917.200000
1418.638876	6922.500000
1420.614149	6913.300000
1422.587131	6910.200000
1424.559665	6880.000000
1426.531751	6918.500000
1428.503390	6865.700000
1430.470900	6883.100000
1432.443484	6910.300000
1434.408262	6895.000000
1436.378113	6910.500000
1438.343840	6897.800000
1440.310959	6880.700000
1442.275795	6894.800000
1444.236511	6884.600000
1446.202295	6891.300000
1448.162124	6891.600000
1450.123347	6889.400000
1452.085962	6882.400000
1454.044462	6878.500000
1456.002519	6881.000000
1457.960135	6874.100000
1459.917308	6867.400000
1461.872206	6886.000000
1463.828497	6890.600000
1465.782513	6884.700000
1467.736088	6882.800000
1469.687391	6874.100000
1471.640087	6890.000000
1473.590510	6893.600000
1475.540495	6906.300000
1477.490041	6891.800000
1479.437318	6892.100000
1481.382327	6886.600000
1483.328729	6885.000000
1485.274693	6868.800000
1487.220220	6895.900000
1489.163481	6888.300000
1491.106307	6904.500000
1493.046869	6885.500000
1494.988822	6898.600000
1496.928513	6884.400000
1498.867770	6903.300000
1500.806591	6894.800000
1502.743153	6897.400000
1504.681106	6898.700000
1506.616800	6891.400000
1508.552061	6910.000000
1510.485066	6909.900000
1512.417638	6919.400000
1514.349778	6914.400000
1516.281486	6928.700000
1518.210940	6954.900000
1520.141785	6954.700000
1522.072198	6956.400000
1523.998539	6953.000000
1525.926271	6952.900000
1527.851752	6982.200000
1529.776804	7001.200000
1531.701427	7000.600000
1533.625621	6992.800000
1535.547567	7003.900000
1537.470904	7044.000000
1539.391994	7050.200000
1541.310840	7086.900000
1543.231076	7120.500000
1545.149069	7106.300000
1547.066635	7127.900000
1548.981959	7146.500000
1550.898673	7202.900000
1552.811332	7247.900000
1554.727195	7239.900000
1556.640818	7289.100000
1558.552203	7304.300000
1560.464978	7317.200000
1562.373703	7332.800000
1564.283817	7341.800000
1566.193508	7340.200000
1568.102776	7369.900000
1570.009810	7358.900000
1571.914611	7336.100000
1573.820801	7326.600000
1575.724759	7326.300000
1577.628296	7323.400000
1579.531413	7314.100000
1581.432300	7257.700000
1583.334576	7266.300000
1585.234624	7233.400000
1587.136059	7229.000000
1589.033461	7210.900000
1590.930444	7179.300000
1592.827009	7194.500000
1594.724962	7211.300000
1596.617080	7187.700000
1598.512391	7162.900000
1600.407285	7136.900000
1602.299957	7114.600000
1604.192212	7105.000000
1606.082248	7075.000000
1607.971868	7081.100000
1609.861073	7050.000000
1611.749863	7044.800000
1613.636435	7004.400000
1615.524395	7007.200000
1617.408338	6975.700000
1619.293668	6961.800000
1621.178585	6918.200000
1623.061288	6918.500000
1624.945378	6917.600000
1626.825456	6909.400000
1628.706922	6891.000000
1630.586177	6867.900000
1632.466818	6868.600000
1634.341655	6857.800000
1636.221473	6850.500000
1638.097287	6854.500000
1639.972690	6844.900000
1641.849479	6855.900000
1643.720472	6836.600000
1645.594646	6859.000000
1647.464821	6826.000000
1649.338178	6821.400000
1651.209331	6812.500000
1653.078282	6805.700000
1654.948618	6798.000000
1656.814962	6818.300000
1658.682691	6806.800000
1660.548221	6799.700000
1662.415137	6800.700000
1664.278064	6787.100000
1666.142376	6784.500000
1668.004492	6780.500000
1669.866203	6794.200000
1671.729300	6782.800000
1673.590201	6790.100000
1675.448910	6782.300000
1677.307215	6773.700000
1679.166905	6784.800000
1681.020827	6772.400000
1682.877923	6763.700000
1684.734616	6784.800000
1686.587332	6759.800000
1688.443220	6785.400000
1690.295134	6746.500000
1692.146647	6787.800000
1693.997759	6765.600000
1695.848471	6792.700000
1697.698782	6787.100000
1699.546908	6749.000000
1701.396419	6771.600000
1703.240181	6780.700000
1705.088892	6771.800000
1706.931857	6785.500000
1708.777989	6741.100000
1710.620158	6762.800000
1712.465493	6773.600000
1714.305087	6776.900000
1716.146065	6776.200000
1717.988426	6771.400000
1719.826831	6746.800000
1721.666619	6772.200000
1723.504232	6769.900000
1725.341449	6775.500000
1727.176493	6756.900000
1729.012920	6749.400000
1730.847175	6752.200000
1732.681035	6767.100000
1734.514501	6739.100000
1736.344022	6747.900000
1738.176701	6761.600000
1740.005436	6752.900000
1741.837328	6752.400000
1743.665278	6746.500000
1745.492837	6755.500000
1747.320003	6763.800000
1749.146778	6744.900000
1750.973161	6753.700000
1752.795608	6746.000000
1754.621210	6754.500000
1756.442877	6757.500000
1758.265926	6744.700000
1760.086813	6743.200000
1761.907312	6769.900000
1763.729191	6753.200000
1765.545372	6750.800000
1767.364704	6751.600000
1769.180109	6722.400000
1770.998664	6738.800000
1772.813294	6764.300000
1774.627537	6735.800000
1776.441394	6750.800000
1778.254864	6739.400000
1780.066181	6735.100000
1781.878878	6730.600000
1783.691190	6742.600000
1785.499584	6749.500000
1787.309358	6747.100000
1789.115218	6749.300000
1790.924223	6755.500000
1792.729315	6760.500000
1794.535788	6741.500000
1796.341877	6749.100000
1798.144055	6731.600000
1799.949378	6763.400000
1801.750792	6762.900000
1803.553586	6758.200000
1805.352474	6758.500000
1807.152743	6742.400000
1808.952630	6758.300000
1810.750375	6743.700000
1812.547740	6747.800000
1814.344725	6743.300000
1816.141329	6761.100000
1817.935794	6749.200000
1819.731638	6756.000000
1821.521827	6773.100000
1823.316913	6747.100000
1825.106347	6760.500000
1826.898917	6763.200000
1828.689352	6776.600000
1830.477653	6741.100000
1832.269089	6759.700000
1834.054879	6751.500000
1835.842049	6751.700000
1837.627087	6770.400000
1839.415259	6736.600000
1841.199545	6757.100000
1842.981701	6739.700000
1844.765237	6760.800000
1846.546644	6734.200000
1848.329430	6748.600000
1850.108335	6739.700000
1851.888620	6743.100000
1853.666778	6744.500000
1855.446315	6732.500000
1857.223727	6755.700000
1858.999015	6732.400000
1860.775681	6725.500000
1862.550225	6750.800000
1864.326147	6749.000000
1866.096448	6751.400000
1867.869877	6727.400000
1869.641186	6730.900000
1871.412124	6755.000000
1873.184440	6739.600000
1874.951142	6736.500000
1876.720970	6756.000000
1878.486934	6754.800000
1880.256021	6741.500000
1882.021247	6743.400000
1883.786105	6741.300000
1885.552340	6754.400000
1887.314716	6745.400000
1889.076725	6747.200000
1890.838366	6737.400000
1892.599641	6748.800000
1894.360548	6749.100000
1896.121089	6735.500000
1897.879520	6761.800000
1899.637585	6740.500000
1901.393543	6752.600000
1903.150877	6738.700000
1904.907846	6753.600000
1906.662708	6742.700000
1908.415466	6751.400000
1910.167859	6744.300000
1911.921629	6752.300000
1913.673295	6742.500000
1915.422859	6738.100000
1917.173798	6741.300000
1918.924375	6760.100000
1920.671112	6746.500000
1922.419226	6754.000000
1924.165240	6728.800000
1925.912629	6742.700000
1927.657921	6759.200000
1929.401115	6758.900000
1931.145684	6726.700000
1932.888158	6745.200000
1934.630271	6747.000000
1936.372024	6745.300000
1938.113417	6747.900000
1939.852717	6740.800000
1941.591658	6757.600000
1943.330240	6742.200000
1945.066731	6739.400000
1946.802864	6729.000000
1948.540371	6718.600000
1950.274056	6745.300000
1952.009116	6748.800000
1953.742087	6741.100000
1955.474702	6720.900000
1957.206961	6733.100000
1958.938863	6753.700000
1960.668679	6753.600000
1962.396410	6765.800000
1964.125516	6761.300000
1965.854267	6740.300000
1967.580934	6750.000000
1969.307247	6731.300000
1971.034933	6735.900000
1972.757083	6724.600000
1974.482334	6745.900000
1976.203778	6761.600000
1977.928323	6755.100000
1979.650787	6738.400000
1981.369449	6741.800000
1983.091209	6742.700000
1984.809167	6729.900000
1986.528498	6738.700000
1988.244030	6735.400000
1989.964382	6741.300000
1991.680936	6768.400000
1993.393693	6744.300000
1995.109546	6739.200000
1996.823327	6771.100000
1998.536758	6748.000000
2000.248118	6742.200000
2001.960850	6755.500000
2003.669792	6750.000000
2005.381826	6744.900000
2007.088352	6763.500000
2008.797969	6767.700000
2010.505520	6749.300000
2012.212722	6758.900000
2013.917859	6734.400000
2015.622650	6769.200000
2017.328812	6737.000000
2019.031192	6767.100000
2020.734943	6751.900000
2022.436632	6746.600000
2024.137976	6745.200000
2025.838974	6767.400000
2027.537911	6754.500000
2029.238220	6767.200000
2030.934754	6759.200000
2032.632659	6760.400000
2034.328505	6728.800000
2036.027437	6753.200000
2037.720883	6752.100000
2039.415700	6754.900000
2041.110175	6751.300000
2042.800881	6757.400000
2044.494671	6741.300000
2046.184694	6754.000000
2047.876088	6730.900000
2049.565429	6772.500000
2051.256140	6763.800000
2052.943088	6760.000000
2054.629697	6737.400000
2056.317675	6762.800000
2058.001894	6741.800000
2059.687484	6737.300000
2061.372734	6729.800000
2063.055935	6739.800000
2064.740507	6748.800000
2066.419616	6737.700000
2068.103510	6752.500000
2069.781943	6738.800000
2071.463454	6744.300000
2073.141213	6746.700000
2074.818636	6731.800000
2076.497428	6740.400000
2078.174178	6753.800000
2079.848886	6757.600000
2081.524963	6760.700000
2083.199000	6758.400000
2084.872701	6755.200000
2086.546067	6749.700000
2088.217394	6740.900000
2089.888387	6746.400000
2091.559046	6757.200000
2093.229371	6748.500000
2094.899362	6764.500000
2096.567317	6765.200000
2098.234939	6742.900000
2099.900526	6755.900000
2101.567482	6760.400000
2103.232405	6742.800000
2104.896996	6742.200000
2106.559555	6760.900000
2108.223482	6764.300000
2109.885378	6743.300000
2111.546944	6744.300000
2113.208178	6743.400000
2114.867384	6769.600000
2116.526259	6748.900000
2118.184805	6738.600000
2119.843020	6762.900000
2121.497513	6759.900000
2123.155070	6771.500000
2124.812298	6759.200000
2126.465804	6757.900000
2128.120678	6726.800000
2129.771833	6767.300000
2131.426051	6755.000000
2133.076552	6763.100000
2134.728419	6731.300000
2136.374878	6761.700000
2138.026092	6766.700000
2139.673592	6781.200000
2141.322459	6747.400000
2142.969307	6769.200000
2144.615830	6745.200000
2146.262027	6771.400000
2147.904516	6764.300000
2149.550063	6759.000000
2151.191903	6769.600000
2152.836800	6757.100000
2154.477991	6756.700000
2156.118860	6748.600000
2157.759404	6758.300000
2159.397936	6776.800000
2161.037834	6774.600000
2162.674032	6755.300000
2164.311596	6772.800000
2165.948838	6776.400000
2167.584070	6749.600000
2169.218981	6771.800000
2170.853569	6755.700000
2172.487837	6777.600000
2174.118411	6772.500000
2175.752037	6773.400000
2177.381971	6762.400000
2179.013270	6745.200000
2180.642564	6767.300000
2182.271539	6750.900000
2183.900194	6753.200000
2185.528530	6756.300000
2187.154864	6742.100000
2188.780879	6750.700000
2190.404892	6749.400000
2192.030271	6760.700000
2193.653649	6744.900000
2195.278392	6758.000000
2196.899454	6767.700000
2198.520199	6779.500000
2200.142309	6762.500000
2201.762421	6745.900000
2203.380536	6759.400000
2204.998336	6753.100000
2206.615821	6746.600000
2208.232990	6752.300000
2209.849844	6749.400000
2211.466382	6758.600000
2213.080928	6739.700000
2214.693481	6766.400000
2216.307398	6754.400000
2217.919324	6777.000000
2219.532613	6747.500000
2221.143912	6767.500000
2222.753221	6742.500000
2224.363894	6762.200000
2225.972578	6769.000000
2227.580949	6752.900000
2229.187334	6774.500000
2230.795082	6758.100000
2232.400843	6750.700000
2234.006293	6757.100000
2235.609758	6748.200000
2237.214586	6772.100000
2238.817430	6749.000000
2240.418291	6766.900000
2242.020515	6741.400000
2243.620757	6769.800000
2245.222361	6752.000000
2246.820312	6741.100000
2248.419626	6766.700000
2250.016960	6771.100000
2251.613986	6751.700000
2253.212374	6757.000000
2254.807113	6755.800000
2256.399875	6735.200000
2257.994000	6763.400000
2259.589486	6753.000000
2261.181327	6755.000000
2262.772862	6774.100000
2264.365759	6743.200000
2265.953346	6742.600000
2267.545629	6752.300000
2269.132606	6764.100000
2270.722610	6764.000000
2272.307310	6773.700000
2273.896704	6774.600000
2275.480796	6755.800000
2277.066248	6738.000000
2278.649732	6760.100000
2280.236241	6743.800000
2281.819117	6744.400000
2283.401690	6753.800000
2284.983959	6768.400000
2286.562598	6759.700000
2288.144262	6755.800000
2289.722297	6741.000000
2291.303355	6746.600000
2292.880786	6755.750000
2294.456254	6764.900000
2296.034744	6748.700000
2297.609610	6754.600000
2299.184175	6752.300000
2300.758440	6779.700000
2302.332404	6752.900000
2303.906067	6738.000000
2305.479431	6734.100000
2307.049176	6743.500000
2308.618622	6769.600000
2310.191086	6768.100000
2311.758276	6744.800000
2313.328484	6758.400000
2314.895077	6738.100000
2316.463030	6774.500000
2318.029027	6756.600000
2319.594727	6761.100000
2321.160129	6751.400000
2322.723578	6771.300000
2324.288386	6779.700000
2325.849586	6793.000000
2327.413800	6809.400000
2328.972752	6819.600000
2330.534719	6795.600000
2332.094734	6771.800000
2333.654455	6758.500000
2335.212226	6750.500000
2336.769702	6761.000000
2338.326884	6757.800000
2339.882118	6744.500000
2341.437059	6770.100000
2342.991705	6769.300000
2344.546058	6769.500000
2346.100118	6750.200000
2347.653883	6765.700000
2349.205704	6775.900000
2350.755583	6763.200000
2352.308469	6758.700000
2353.856112	6760.100000
2355.406764	6744.800000
2356.953824	6744.200000
2358.502242	6752.500000
2360.050369	6783.300000
2361.594907	6761.200000
2363.140803	6758.400000
2364.684761	6728.900000
2366.230076	6762.500000
2367.771806	6747.000000
2369.314893	6782.600000
2370.856044	6756.300000
2372.396906	6745.400000
2373.937479	6771.500000
2375.477763	6768.400000
2377.017758	6756.400000
2378.554175	6766.300000
2380.093593	6752.800000
2381.629433	6767.500000
2383.166631	6761.700000
2384.700253	6782.700000
2386.236875	6767.900000
2387.771567	6786.700000
2389.304329	6782.900000
2390.836804	6756.800000
2392.367351	6778.700000
2393.900896	6761.600000
2395.429230	6744.300000
2396.958921	6761.200000
2398.488325	6776.100000
2400.017445	6798.400000
2401.546280	6772.500000
2403.069909	6778.600000
2404.598174	6777.900000
2406.121237	6776.300000
2407.648933	6763.000000
2409.169790	6792.000000
2410.695280	6797.300000
2412.217209	6798.100000
2413.740494	6770.300000
2415.261857	6775.800000
2416.781301	6769.100000
2418.302100	6775.000000
2419.820981	6789.300000
2421.339579	6769.500000
2422.856260	6770.900000
2424.374295	6791.000000
2425.892049	6792.700000
2427.406252	6788.400000
2428.920174	6774.600000
2430.433816	6786.800000
2431.948813	6759.200000
2433.460261	6784.200000
2434.973064	6793.200000
2436.483953	6798.200000
2437.994564	6786.200000
2439.503263	6789.300000
2441.014948	6772.700000
2442.523090	6803.400000
2444.030954	6780.300000
2445.538540	6783.200000
2447.042585	6784.000000
2448.549615	6767.200000
2450.054737	6774.500000
2451.559582	6796.000000
2453.062520	6784.200000
2454.565182	6783.300000
2456.067567	6790.000000
2457.568047	6781.200000
2459.069880	6757.900000
2460.569808	6787.600000
2462.069461	6786.300000
2463.568839	6802.800000
2465.066314	6779.500000
2466.561887	6805.300000
2468.060440	6784.500000
2469.555465	6772.100000
2471.051842	6783.900000
2472.544693	6778.200000
2474.038897	6775.800000
2475.532827	6798.500000
2477.023233	6791.900000
2478.516617	6772.800000
2480.008103	6777.700000
2481.497692	6787.200000
2482.987009	6780.600000
2484.474430	6781.300000
2485.964827	6766.500000
2487.451706	6782.100000
2488.939936	6776.700000
2490.424649	6787.100000
2491.909093	6757.900000
2493.394887	6775.700000
2494.878790	6796.200000
2496.364043	6763.400000
2497.844163	6755.000000
2499.327256	6789.100000
2500.808458	6767.000000
2502.289391	6771.700000
2503.768435	6792.100000
2505.247210	6775.600000
2506.725717	6754.200000
2508.203956	6766.500000
2509.681926	6780.800000
2511.156391	6796.300000
2512.633826	6763.300000
2514.107757	6784.800000
2515.583038	6792.500000
2517.058052	6795.900000
2518.529565	6778.200000
2520.002429	6781.400000
2521.473410	6790.900000
2522.945741	6770.100000
2524.412958	6788.100000
2525.883142	6794.100000
2527.351445	6783.200000
2528.819483	6786.800000
2530.287256	6766.400000
2531.754764	6786.200000
2533.222007	6779.900000
2534.685758	6791.400000
2536.150859	6804.500000
2537.614083	6817.900000
2539.078656	6776.600000
2540.539741	6805.500000
2542.002175	6808.900000
2543.464346	6790.600000
2544.923031	6799.900000
2546.386287	6807.300000
2547.844448	6779.100000
2549.303957	6804.700000
2550.758372	6784.500000
2552.217358	6809.800000
2553.674472	6804.500000
2555.129715	6794.000000
2556.584696	6770.200000
2558.037809	6802.500000
2559.492270	6792.600000
2560.944861	6815.600000
2562.397193	6801.200000
2563.847658	6795.100000
2565.301078	6795.800000
2566.749416	6772.100000
2568.200709	6805.400000
2569.650137	6788.100000
2571.096092	6801.700000
2572.545002	6806.300000
2573.990442	6800.300000
2575.437229	6802.300000
2576.882154	6807.100000
2578.326820	6812.700000
2579.772834	6786.000000
2581.215382	6809.700000
2582.659277	6782.100000
2584.099707	6812.200000
2585.541484	6803.100000
2586.981402	6810.400000
2588.422667	6809.700000
2589.860470	6823.300000
2591.301223	6810.900000
2592.736914	6791.700000
2594.175554	6783.600000
2595.612336	6828.200000
2597.047263	6801.300000
2598.485137	6830.600000
2599.917954	6820.600000
2601.352118	6825.800000
2602.784428	6837.700000
2604.218084	6825.600000
2605.649887	6832.500000
2607.081436	6824.700000
2608.512733	6818.700000
2609.942177	6845.500000
2611.371369	6836.600000
2612.798711	6847.100000
2614.227398	6842.700000
2615.655834	6829.500000
2617.080822	6803.900000
2618.507157	6833.800000
2619.931643	6830.600000
2621.357475	6856.100000
2622.779863	6854.600000
2624.203597	6855.500000
2625.625484	6857.400000
2627.047122	6845.000000
2628.466914	6845.300000
2629.888052	6851.700000
2631.308940	6854.100000
2632.726390	6861.200000
2634.146779	6859.200000
2635.563731	6880.100000
2636.980434	6879.000000
2638.396889	6850.300000
2639.813096	6888.000000
2641.229055	6838.300000
2642.643173	6855.400000
2644.057043	6866.900000
2645.469075	6882.300000
2646.882450	6894.600000
2648.292396	6875.500000
2649.705278	6899.000000
2651.114731	6886.800000
2652.523938	6901.700000
2653.931309	6897.300000
2655.341614	6911.000000
2656.750084	6915.400000
2658.156718	6880.700000
2659.563107	6911.500000
2660.967662	6906.000000
2662.373561	6903.200000
2663.777627	6890.800000
2665.181448	6898.400000
2666.585025	6895.900000
2667.986771	6904.900000
2669.389860	6894.800000
2670.789531	6908.000000
2672.190546	6912.600000
2673.588145	6906.000000
2674.988674	6906.400000
2676.385787	6916.100000
2677.784244	6918.300000
2679.180874	6924.100000
2680.577261	6902.800000
2681.973406	6900.500000
2683.367725	6903.500000
2684.763387	6882.600000
2686.155640	6895.100000
2687.549235	6892.600000
2688.941006	6902.900000
2690.334120	6869.400000
2691.725410	6877.500000
2693.114877	6883.400000
2694.504104	6882.800000
2695.893092	6852.900000
2697.283421	6897.600000
2698.668767	6889.200000
2700.057036	6885.900000
2701.443485	6868.200000
2702.829695	6864.000000
2704.215666	6839.100000
2705.598239	6846.700000
2706.982154	6871.200000
2708.365831	6836.800000
2709.749269	6832.200000
2711.129313	6851.600000
2712.510697	6849.300000
2713.890267	6851.100000
2715.271177	6851.300000
2716.650273	6858.300000
2718.027555	6846.600000
2719.406178	6841.000000
2720.782988	6854.600000
2722.159561	6837.000000
2723.535899	6853.400000
2724.910426	6832.500000
2726.286293	6803.100000
2727.658773	6822.900000
2729.034169	6821.100000
2730.404605	6852.900000
2731.776382	6786.700000
2733.147924	6817.700000
2734.517658	6802.900000
2735.888733	6837.200000
2737.257999	6811.300000
2738.627032	6821.200000
2739.994259	6814.600000
2741.361252	6792.100000
2742.728013	6802.400000
2744.094542	6813.600000
2745.459265	6813.800000
2746.823756	6811.700000
2748.188016	6796.400000
2749.552043	6798.200000
2750.915839	6804.200000
2752.276261	6818.100000
2753.639593	6813.300000
2754.997983	6772.000000
2756.359283	6796.600000
2757.717213	6798.400000
2759.078051	6775.500000
2760.437090	6779.900000
2761.792760	6807.100000
2763.151338	6775.500000
2764.506549	6791.700000
2765.861531	6782.200000
2767.214717	6800.300000
2768.570809	6796.400000
2769.923536	6754.500000
2771.276036	6771.900000
2772.628307	6772.500000
2773.981916	6789.300000
2775.332165	6780.000000
2776.680619	6785.600000
2778.031979	6781.100000
2779.379979	6801.100000
2780.729317	6804.200000
2782.076863	6771.400000
2783.424183	6810.200000
2784.771276	6775.500000
2786.116578	6777.200000
2787.461653	6792.400000
2788.806503	6766.800000
2790.151127	6787.400000
2791.492399	6773.000000
2792.835009	6790.300000
2794.177393	6761.100000
2795.519552	6760.000000
2796.858362	6771.300000
2798.200072	6742.600000
2799.538434	6781.200000
2800.878132	6785.500000
2802.216046	6789.200000
2803.552175	6773.100000
2804.888080	6771.400000
2806.225323	6771.000000
2807.560782	6793.500000
2808.896018	6761.800000
2810.229471	6776.500000
2811.564261	6795.600000
2812.895711	6782.600000
2814.230056	6783.400000
2815.559503	6779.500000
2816.890287	6765.100000
2818.220849	6779.200000
2819.549632	6784.900000
2820.879751	6777.500000
2822.208092	6807.600000
2823.536212	6797.600000
2824.862554	6767.700000
2826.190233	6767.100000
2827.514578	6778.200000
2828.840260	6781.900000
2830.164166	6774.900000
2831.487853	6763.100000
2832.812875	6771.600000
2834.134567	6764.600000
2835.456041	6781.700000
2836.777296	6786.300000
2838.098332	6773.700000
2839.417595	6766.600000
2840.738194	6782.800000
2842.057022	6796.500000
2843.375631	6778.600000
2844.692469	6770.800000
2846.009090	6796.400000
2847.325494	6776.700000
2848.640128	6782.700000
2849.956098	6766.100000
2851.268747	6780.700000
2852.582731	6768.200000
2853.896499	6772.300000
2855.210050	6775.800000
2856.521835	6779.300000
2857.831853	6759.700000
2859.143206	6790.300000
2860.451244	6769.800000
2861.760616	6788.600000
2863.069774	6766.600000
2864.378716	6783.100000
2865.685894	6794.400000
2866.991310	6757.400000
2868.298060	6777.600000
2869.603047	6795.400000
2870.907821	6771.500000
2872.210833	6786.700000
2873.516726	6778.100000
2874.817765	6782.600000
2876.120138	6774.200000
2877.420751	6779.400000
2878.722698	6796.000000
2880.024431	6782.900000
2881.322861	6774.000000
2882.622624	6786.300000
2883.920630	6783.800000
2885.218424	6792.600000
2886.514462	6790.100000
2887.811833	6781.800000
2889.107448	6784.000000
2890.402852	6773.600000
2891.698045	6783.200000
2892.989941	6769.800000
2894.284713	6783.900000
2895.576188	6774.700000
2896.868996	6775.600000
2898.161594	6786.900000
2899.450898	6767.000000
2900.741534	6799.000000
2902.030419	6808.200000
2903.320636	6771.400000
2904.607562	6766.200000
2905.895820	6788.200000
2907.182329	6773.100000
2908.468629	6814.600000
2909.754722	6773.100000
2911.039066	6786.000000
2912.326281	6791.200000
2913.608670	6767.100000
2914.892391	6799.100000
2916.174366	6779.900000
2917.456133	6779.900000
2918.736156	6773.200000
2920.019048	6769.300000
2921.300195	6772.500000
2922.578060	6781.200000
2923.858794	6790.400000
2925.136247	6763.100000
2926.413494	6790.500000
2927.688999	6761.400000
2928.967372	6763.100000
2930.240931	6769.200000
2931.517357	6775.100000
2932.792042	6766.700000
2934.064986	6784.300000
2935.339262	6791.600000
2936.611798	6768.700000
2937.884129	6793.200000
2939.153188	6770.000000
2940.425112	6758.100000
2941.695298	6766.100000
2942.965280	6775.800000
2944.235059	6785.800000
2945.503102	6777.100000
2946.769408	6761.000000
2948.035513	6753.100000
2949.302947	6763.500000
2950.568647	6773.100000
2951.834144	6741.200000
2953.099439	6749.700000
2954.361469	6767.000000
2955.624829	6766.500000
2956.887988	6775.100000
2958.149415	6761.000000
2959.412171	6769.200000
2960.673195	6761.700000
2961.932489	6779.800000
2963.191583	6745.000000
2964.450476	6763.700000
2965.709169	6768.200000
2966.967662	6750.300000
2968.224426	6754.500000
2969.480990	6775.800000
2970.735827	6764.500000
2971.991992	6756.000000
2973.244903	6770.900000
2974.499143	6760.900000
2975.753184	6757.000000
2977.005499	6754.900000
2978.257615	6760.600000
2979.508007	6760.600000
2980.761254	6729.100000
2982.009724	6761.800000
2983.261049	6753.600000
2984.509124	6762.100000
2985.757003	6752.300000
2987.004684	6766.000000
2988.252168	6747.700000
2989.497931	6753.700000
2990.743498	6750.900000
2991.990392	6753.100000
2993.234042	6761.300000
2994.479020	6743.800000
2995.720754	6764.700000
2996.965340	6766.300000
2998.208207	6759.300000
2999.447833	6763.400000
3000.690309	6760.400000
3001.929545	6763.500000
3003.170109	6757.700000
3004.408957	6744.900000
3005.647609	6750.800000
3006.884546	6754.900000
3008.122811	6771.700000
3009.359360	6763.500000
3010.595716	6741.100000
3011.831878	6758.300000
3013.066326	6765.000000
3014.300582	6751.700000
3015.534644	6738.500000
3016.766994	6761.500000
3017.997632	6748.000000
3019.231116	6748.100000
3020.462888	6747.700000
3021.692950	6755.200000
3022.922819	6756.300000
3024.150980	6748.500000
3025.380466	6776.200000
3026.608243	6756.400000
3027.835829	6743.200000
3029.064742	6756.500000
3030.288912	6730.600000
3031.515925	6733.200000
3032.739714	6742.600000
3033.964830	6753.700000
3035.188239	6753.300000
3036.411458	6762.400000
3037.632972	6749.700000
3038.857327	6760.300000
3040.076947	6729.200000
3041.297893	6730.100000
3042.518650	6747.300000
3043.737703	6759.400000
3044.958081	6737.200000
3046.175243	6734.500000
3047.393731	6760.700000
3048.610516	6746.900000
3049.827114	6758.500000
3051.043523	6757.300000
3052.256720	6736.900000
3053.472754	6738.200000
3054.685576	6745.800000
3055.901235	6739.600000
3057.112171	6728.700000
3058.324432	6761.500000
3059.536507	6764.800000
3060.748394	6741.800000
3061.958585	6762.200000
3063.168589	6751.300000
3064.378407	6749.500000
3065.586529	6772.900000
3066.794466	6752.500000
3068.000707	6738.500000
3069.208273	6751.700000
3070.414144	6740.950000
3071.619831	6730.200000
3072.825332	6739.300000
3074.029140	6730.200000
3075.234272	6743.600000
3076.437711	6751.700000
3077.639459	6735.500000
3078.841022	6722.100000
3080.042402	6732.200000
3081.243598	6720.800000
3082.443104	6744.600000
3083.642427	6729.200000
3084.843073	6740.800000
3086.042029	6743.900000
3087.237791	6745.200000
3088.436382	6717.000000
3089.631779	6750.400000
3090.828499	6726.200000
3092.022027	6745.200000
3093.218383	6728.100000
3094.413053	6747.900000
3095.604532	6739.500000
3096.800342	6728.300000
3097.991458	6735.200000
3099.183898	6739.900000
3100.373150	6752.400000
3101.565227	6728.900000
3102.755621	6727.500000
3103.942829	6744.800000
3105.131360	6750.400000
3106.321212	6740.600000
3107.507881	6726.400000
3108.694369	6735.200000
3109.880679	6731.700000
3111.068310	6763.900000
3112.252759	6722.200000
3113.435529	6735.500000
3114.621121	6739.100000
3115.805034	6720.200000
3116.987268	6734.500000
3118.169323	6750.100000
3119.351200	6743.200000
3120.532899	6729.800000
3121.712921	6733.200000
3122.891266	6738.900000
3124.072431	6744.800000
3125.250421	6748.700000
3126.428235	6724.000000
3127.605871	6745.600000
3128.781832	6734.700000
3129.957616	6722.500000
3131.134722	6705.600000
3132.310153	6736.000000
3133.483911	6712.500000
3134.655996	6736.300000
3135.829403	6723.200000
3137.002633	6715.400000
3138.174192	6726.500000
3139.347071	6752.100000
3140.516783	6726.300000
3141.687816	6731.700000
3142.857179	6739.100000
3144.024871	6728.500000
3145.195379	6727.700000
3146.361229	6738.200000
3147.531387	6737.400000
3148.696889	6732.400000
3149.862216	6717.900000
3151.027370	6744.600000
3152.192351	6712.200000
3153.358651	6732.100000
3154.520299	6725.700000
3155.683266	6747.800000
3156.846061	6733.900000
3158.008683	6710.600000
3159.169640	6720.900000
3160.330424	6715.000000
3161.491036	6732.100000
3162.649984	6715.200000
3163.808761	6716.700000
3164.967366	6730.000000
3166.125798	6708.600000
3167.284060	6724.900000
3168.440659	6712.500000
3169.595597	6712.700000
3170.751854	6719.100000
3171.906450	6718.200000
3173.060876	6748.400000
3174.213642	6730.600000
3175.366237	6744.600000
3176.518663	6712.300000
3177.670919	6719.900000
3178.823004	6726.100000
3179.971944	6721.000000
3181.123690	6723.100000
3182.273778	6704.100000
3183.422210	6722.400000
3184.570472	6720.400000
3185.718566	6710.000000
3186.866491	6727.000000
3188.012760	6729.800000
3189.158861	6737.600000
3190.303308	6724.600000
3191.447587	6733.100000
3192.591698	6721.500000
3193.737126	6723.800000
3194.879416	6749.600000
3196.021539	6720.500000
3197.163494	6713.400000
3198.305282	6711.400000
3199.446903	6731.600000
3200.585389	6722.100000
3201.725192	6748.400000
3202.866313	6713.800000
3204.004299	6726.200000
3205.140636	6715.400000
3206.276807	6723.100000
3207.414295	6729.700000
3208.550135	6732.100000
3209.687292	6719.800000
3210.819836	6733.000000
3211.956662	6728.700000
3213.088876	6719.500000
3214.222407	6722.500000
3215.355774	6737.300000
3216.486013	6737.800000
3217.619050	6738.200000
3218.748961	6706.900000
3219.880188	6719.000000
3221.008291	6728.500000
3222.139190	6731.900000
3223.268445	6714.500000
3224.396057	6703.400000
3225.520546	6714.400000
3226.649311	6718.100000
3227.774954	6703.500000
3228.900435	6696.400000
3230.024274	6713.700000
3231.150907	6729.600000
3232.272943	6705.000000
3233.396295	6721.400000
3234.519485	6677.200000
3235.642512	6711.400000
3236.763901	6707.900000
3237.885127	6712.600000
3239.004716	6693.800000
3240.124143	6732.100000
3241.241932	6706.600000
3242.362513	6714.200000
3243.479981	6686.300000
3244.597288	6714.300000
3245.714435	6686.800000
3246.829946	6728.300000
3247.946771	6701.200000
3249.060487	6713.800000
3250.176992	6714.200000
3251.291863	6713.500000
3252.403625	6690.800000
3253.515227	6719.900000
3254.628145	6695.500000
3255.740903	6708.800000
3256.850555	6705.300000
3257.961522	6720.200000
3259.072330	6710.500000
3260.181506	6694.900000
3261.289052	6684.200000
3262.397911	6720.900000
3263.506613	6691.500000
3264.612212	6708.700000
3265.719125	6704.900000
3266.824409	6644.700000
3267.931007	6714.900000
3269.034505	6711.000000
3270.139318	6721.100000
3271.243973	6702.700000
3272.345529	6710.400000
3273.446929	6716.700000
3274.549643	6701.200000
3275.652201	6701.400000
3276.751662	6716.900000
3277.853907	6699.000000
3278.953056	6712.900000
3280.050581	6706.300000
3281.147950	6715.700000
3282.248101	6721.200000
3283.345160	6706.800000
3284.442063	6713.300000
3285.538811	6717.100000
3286.631001	6707.700000
3287.727439	6704.500000
3288.822255	6692.600000
3289.916917	6716.300000
3291.009957	6697.300000
3292.102842	6712.500000
3293.194108	6709.800000
3294.286685	6704.100000
3295.377643	6705.500000
3296.466981	6701.900000
3297.556166	6704.100000
3298.646664	6691.000000
3299.734077	6694.500000
3300.821337	6714.500000
3301.909910	6697.700000
3302.998331	6719.400000
3304.082204	6687.100000
3305.170319	6703.800000
3306.255352	6685.000000
3307.338770	6692.600000
3308.423500	6712.900000
3309.506614	6709.800000
3310.591041	6707.200000
3311.672389	6707.900000
3312.755049	6712.800000
3313.836095	6706.300000
3314.916990	6713.500000
3315.996271	6714.200000
3317.075402	6687.000000
3318.155845	6707.300000
3319.233213	6709.700000
3320.311893	6700.200000
3321.388961	6706.900000
3322.465880	6726.800000
3323.541187	6700.300000
3324.616345	6688.500000
3325.692814	6709.600000
3326.766213	6682.600000
3327.839463	6697.100000
3328.914023	6719.200000
3329.986975	6717.300000
3331.058318	6697.000000
3332.130972	6710.200000
3333.200560	6697.500000
3334.271458	6705.500000
3335.340749	6698.300000
3336.411351	6681.700000
3337.480346	6697.800000
3338.547735	6688.900000
3339.613519	6697.500000
3340.683529	6692.000000
3341.750476	6695.300000
3342.814361	6690.000000
3343.881014	6696.500000
3344.946062	6682.700000
3346.009507	6674.400000
3347.072806	6693.200000
3348.135958	6689.900000
3349.198964	6706.900000
3350.261824	6703.000000
3351.323082	6714.700000
3352.381283	6696.300000
3353.443704	6699.000000
3354.503070	6704.200000
3355.562290	6691.300000
3356.622820	6715.500000
3357.678840	6701.600000
3358.737624	6707.600000
3359.791901	6700.300000
3360.848942	6701.000000
3361.904384	6707.700000
3362.961136	6675.100000
3364.016289	6701.900000
3365.069845	6712.300000
3366.121805	6719.000000
3367.176526	6709.600000
3368.228198	6683.100000
3369.279727	6678.500000
3370.332564	6678.400000
3371.382354	6722.100000
3372.433453	6693.800000
3373.481506	6705.100000
3374.532318	6695.700000
3375.580086	6714.700000
3376.627711	6704.100000
3377.675193	6718.400000
3378.721083	6689.700000
3379.768281	6696.000000
3380.812437	6696.700000
3381.859351	6705.800000
3382.904673	6684.300000
3383.946954	6663.100000
3384.989095	6701.600000
3386.032543	6709.500000
3387.075850	6713.800000
3388.117568	6694.300000
3389.159144	6693.200000
3390.200579	6691.800000
3391.240426	6694.100000
3392.278684	6692.000000
3393.318250	6694.900000
3394.357676	6689.300000
3395.395514	6705.800000
3396.431765	6705.800000
3397.467877	6717.700000
3398.505296	6686.800000
3399.539682	6714.300000
3400.575375	6689.600000
3401.610929	6704.500000
3402.643452	6682.000000
3403.678728	6691.200000
3404.710973	6706.200000
3405.743080	6700.000000
3406.773603	6689.700000
3407.805433	6720.700000
3408.837125	6706.100000
3409.865789	6685.800000
3410.894316	6701.600000
3411.924149	6700.200000
3412.953845	6699.100000
3413.980515	6705.900000
3415.008492	6707.900000
3416.033444	6685.000000
3417.061146	6685.500000
3418.085825	6712.500000
3419.111810	6670.800000
3420.136215	6713.500000
3421.160484	6690.700000
3422.183174	6709.400000
3423.205728	6685.600000
3424.229588	6688.200000
3425.250428	6688.200000
3426.271132	6687.500000
3427.293143	6699.600000
3428.312135	6681.300000
3429.330991	6691.200000
3430.351154	6691.600000
3431.368300	6688.000000
