-117.888313	322.900000
-115.218713	355.800000
-112.552048	311.600000
-109.886135	325.600000
-107.223154	343.200000
-104.558744	339.900000
-101.897264	338.800000
-99.234355	325.700000
-96.576552	322.300000
-93.917320	340.700000
-91.258836	314.700000
-88.603276	348.200000
-85.946288	326.800000
-83.294398	350.700000
-80.641078	342.400000
-77.990677	340.500000
-75.338847	354.100000
-72.692108	341.000000
-70.043940	335.600000
-67.396514	342.400000
-64.752002	334.700000
-62.106062	337.100000
-59.465203	344.800000
-56.822915	339.100000
-54.183536	356.300000
-51.542727	351.100000
-48.902659	327.100000
-46.267663	381.700000
-43.631239	364.900000
-40.997717	347.500000
-38.362767	344.100000
-35.732882	369.100000
-33.099405	371.900000
-30.470990	375.100000
-27.843309	377.600000
-25.214199	374.400000
-22.590146	393.300000
-19.962504	418.500000
-17.339915	427.500000
-14.718058	459.600000
-12.096931	529.600000
-9.476534	780.100000
-6.859026	1685.400000
-4.240089	4652.700000
-1.624037	10197.100000
0.991286	11432.000000
3.605882	5255.100000
6.217595	978.900000
8.830737	516.300000
11.438845	441.000000
14.050535	441.300000
16.657194	446.800000
19.265281	434.500000
21.872644	419.400000
24.474982	431.100000
27.080898	455.000000
29.681792	436.800000
32.284114	481.300000
34.881419	449.100000
37.482299	475.900000
40.078164	481.800000
42.675458	521.100000
45.272032	509.200000
47.863597	516.200000
50.456590	488.900000
53.046722	520.100000
55.638282	519.100000
58.226982	516.200000
60.817109	511.900000
63.402237	553.800000
65.988793	543.000000
68.574635	578.700000
71.157623	581.900000
73.742037	563.700000
76.319323	606.600000
78.900175	607.300000
81.478178	596.400000
84.055471	617.700000
86.634190	640.700000
89.207927	677.000000
91.783092	666.200000
94.355413	727.500000
96.927026	718.600000
99.495799	781.600000
102.065999	794.600000
104.633361	869.800000
107.202148	958.100000
109.768099	1130.100000
112.331215	1237.600000
114.897887	1478.500000
117.455338	1800.500000
120.018474	2363.700000
122.576650	3244.500000
125.138381	4423.000000
127.695155	5955.000000
130.253356	6568.200000
132.806603	6626.000000
135.359153	6731.100000
137.915253	6798.100000
140.466405	6915.200000
143.016860	6999.600000
145.566617	7067.300000
148.113555	7109.700000
150.659798	7153.200000
153.207466	7156.000000
155.754438	7160.200000
158.296475	7153.000000
160.837818	7146.800000
163.378468	7123.400000
165.920544	7147.800000
168.459808	7152.900000
170.996264	7151.400000
173.532028	7167.700000
176.069218	7145.600000
178.605717	7134.800000
181.139410	7128.100000
183.670299	7149.400000
186.200501	7168.000000
188.732127	7115.400000
191.260952	7108.700000
193.786978	7133.800000
196.312318	7094.400000
198.839083	7143.600000
201.363052	7154.600000
203.886336	7128.600000
206.408935	7134.000000
208.928741	7121.000000
211.447864	7107.500000
213.966304	7140.700000
216.486168	7126.800000
218.999031	7096.500000
221.515425	7125.600000
224.031137	7125.600000
226.541959	7122.200000
229.054206	7155.200000
231.563671	7147.700000
234.072457	7109.300000
236.580564	7167.400000
239.090096	7123.900000
241.594747	7143.200000
244.098722	7158.800000
246.604121	7157.900000
249.104645	7160.900000
251.608693	7181.800000
254.105769	7171.400000
256.606369	7171.000000
259.104197	7187.100000
261.601352	7176.600000
264.097834	7191.100000
266.589453	7179.900000
269.084592	7180.600000
271.576964	7190.000000
274.068666	7191.500000
276.557605	7201.500000
279.047968	7167.300000
281.535568	7204.100000
284.020409	7188.300000
286.508765	7202.300000
288.990181	7211.000000
291.475111	7205.800000
293.955196	7214.300000
296.438793	7212.900000
298.917547	7217.300000
301.397725	7252.200000
303.875150	7227.600000
306.351912	7206.400000
308.828011	7255.000000
311.301361	7282.700000
313.774049	7292.200000
316.246076	7354.400000
318.717442	7455.200000
321.186063	7535.200000
323.654026	7527.500000
326.123410	7440.500000
328.587972	7337.100000
331.056038	7333.300000
333.519284	7284.000000
335.981872	7294.800000
338.443804	7250.500000
340.905079	7305.000000
343.363620	7241.400000
345.823583	7297.700000
348.280813	7262.300000
350.737389	7273.100000
353.193311	7288.200000
355.646503	7267.700000
358.101118	7289.400000
360.550931	7285.700000
363.004240	7281.700000
365.452751	7254.300000
367.900610	7268.100000
370.349892	7317.400000
372.794380	7259.200000
375.240290	7271.800000
377.685550	7258.400000
380.128092	7252.500000
382.569986	7285.800000
385.011233	7261.200000
387.449764	7277.000000
389.889717	7242.300000
392.326956	7261.500000
394.761483	7288.600000
397.199498	7289.900000
399.632736	7264.200000
402.067395	7262.000000
404.497282	7247.500000
406.930654	7255.400000
409.359256	7270.600000
411.787216	7259.000000
414.216598	7290.300000
416.641214	7292.100000
419.067252	7291.300000
421.492649	7292.100000
423.917406	7297.700000
426.337405	7291.400000
428.758825	7288.700000
431.177548	7300.500000
433.597692	7279.900000
436.015141	7299.100000
438.434010	7311.000000
440.850186	7302.000000
443.261614	7281.700000
445.676520	7281.600000
448.088735	7297.400000
450.500316	7254.300000
452.911263	7270.900000
455.319524	7273.900000
457.727152	7256.600000
460.134148	7262.300000
462.540513	7268.200000
464.944195	7231.000000
467.347247	7247.300000
469.749669	7230.600000
472.151461	7245.300000
474.550576	7238.500000
476.951110	7224.600000
479.351015	7223.400000
481.746197	7231.600000
484.144846	7236.500000
486.538775	7236.700000
488.932078	7218.300000
491.324755	7208.100000
493.716807	7193.600000
496.110277	7149.400000
498.499035	7159.500000
500.885127	7129.200000
503.272639	7078.900000
505.659528	7059.900000
508.043753	7069.000000
510.429396	7025.700000
512.812378	6977.300000
515.192699	6983.100000
517.574439	6965.300000
519.953520	6945.600000
522.334020	6934.100000
524.711862	6950.700000
527.087049	6947.100000
529.461618	6915.000000
531.837605	6902.600000
534.210940	6921.900000
536.585692	6911.000000
538.955759	6897.900000
541.325210	6916.200000
543.696079	6899.400000
546.062268	6890.800000
548.429875	6920.500000
550.794836	6875.100000
553.159184	6905.200000
555.522919	6883.200000
557.888072	6877.600000
560.248553	6892.100000
562.610452	6894.800000
564.969710	6890.100000
567.326331	6886.500000
569.686396	6877.500000
572.039770	6877.100000
574.396589	6866.300000
576.750773	6859.800000
579.104349	6851.000000
581.457316	6878.100000
583.807651	6857.000000
586.159404	6847.200000
588.504480	6857.300000
590.855020	6847.300000
593.198886	6841.400000
595.548214	6869.400000
597.892893	6848.800000
600.234948	6844.700000
602.578420	6843.800000
604.919269	6849.200000
607.259516	6839.800000
609.597142	6844.700000
611.938203	6826.800000
614.274626	6838.600000
616.612466	6829.200000
618.947689	6816.800000
621.280296	6838.000000
623.614319	6822.400000
625.945728	6804.100000
628.276539	6825.500000
630.606753	6814.000000
632.936368	6821.000000
635.261360	6812.900000
637.591794	6816.400000
639.917607	6793.900000
642.240812	6825.700000
644.565434	6791.100000
646.887450	6813.300000
649.208872	6801.200000
651.527692	6805.100000
653.847927	6786.700000
656.167569	6815.400000
658.484610	6805.800000
660.801059	6798.500000
663.114910	6786.700000
665.430177	6782.000000
667.742847	6787.000000
670.056932	6782.600000
672.366417	6787.300000
674.677318	6788.800000
676.985626	6778.000000
679.293346	6784.500000
681.602480	6757.300000
683.907022	6777.300000
686.210978	6764.700000
688.514348	6755.200000
690.819132	6770.800000
693.119330	6779.400000
695.420942	6751.200000
697.721970	6772.600000
700.018415	6749.600000
702.316276	6776.200000
704.613553	6749.300000
706.910247	6760.400000
709.202365	6737.000000
711.497894	6765.600000
713.788849	6764.800000
716.081219	6759.400000
718.371014	6751.600000
720.660228	6774.100000
722.948863	6761.000000
725.234925	6782.400000
727.522402	6761.300000
729.807307	6759.800000
732.091635	6776.800000
734.373394	6763.100000
736.656567	6754.100000
738.939163	6797.100000
741.217203	6764.200000
743.496658	6786.100000
745.775536	6766.100000
748.053840	6759.000000
750.327594	6773.500000
752.602761	6775.600000
754.877355	6773.600000
757.149390	6772.200000
759.422838	6791.500000
761.693728	6759.900000
763.962062	6779.500000
766.231809	6776.800000
768.499002	6791.900000
770.765624	6802.700000
773.031676	6779.500000
775.295177	6792.400000
777.560091	6785.100000
779.824435	6795.000000
782.084250	6789.100000
784.345477	6835.000000
786.606137	6806.000000
788.864251	6789.100000
791.119820	6793.000000
793.378780	6812.000000
795.631241	6798.700000
797.889068	6816.800000
800.142377	6817.300000
802.393146	6808.700000
804.645327	6792.300000
806.894969	6804.500000
809.146024	6763.200000
811.392567	6782.300000
813.640522	6794.600000
815.885943	6789.500000
818.132775	6798.100000
820.379046	6760.200000
822.620812	6760.400000
824.865962	6774.700000
827.104639	6785.700000
829.346698	6784.500000
831.584259	6765.600000
833.823232	6760.900000
836.059678	6771.300000
838.297535	6762.400000
840.532867	6753.700000
842.765676	6757.400000
844.999896	6749.900000
847.231593	6766.400000
849.462736	6737.400000
851.693324	6744.600000
853.923358	6750.200000
856.152838	6748.800000
858.377836	6745.800000
860.606209	6749.000000
862.830102	6749.400000
865.055407	6749.100000
867.276236	6725.700000
869.500437	6748.000000
871.720165	6741.400000
873.941303	6767.000000
876.161891	6766.000000
878.379970	6763.900000
880.599458	6766.200000
882.814480	6756.200000
885.028955	6770.700000
887.242881	6758.800000
889.456261	6764.900000
891.669093	6766.500000
893.881379	6749.000000
896.091162	6764.100000
898.300400	6747.900000
900.509093	6765.700000
902.715287	6745.500000
904.922890	6781.400000
907.127995	6771.900000
909.332557	6764.000000
911.534624	6759.700000
913.738100	6752.900000
915.939082	6747.200000
918.139522	6760.800000
920.341371	6759.000000
922.536829	6770.300000
924.735646	6755.900000
926.930024	6757.100000
929.127760	6747.900000
931.321060	6784.600000
933.515769	6755.500000
935.707992	6770.400000
937.899676	6755.800000
940.090823	6783.200000
942.279487	6760.100000
944.467615	6769.800000
946.653262	6778.300000
948.842261	6784.700000
951.026837	6794.300000
953.210878	6800.700000
955.398269	6795.100000
957.577356	6820.700000
959.759794	6810.200000
961.941698	6813.800000
964.121127	6797.300000
966.298084	6816.500000
968.476449	6810.400000
970.656221	6843.300000
972.829644	6853.800000
975.006413	6847.900000
977.178775	6847.500000
979.352545	6876.500000
981.521911	6866.500000
983.694621	6867.900000
985.864866	6858.100000
988.034582	6869.500000
990.203769	6885.600000
992.368559	6858.800000
994.536690	6888.800000
996.700427	6899.600000
998.865570	6877.600000
1001.028254	6896.400000
1003.190413	6898.900000
1005.350115	6930.600000
1007.509292	6893.400000
1009.669876	6904.100000
1011.828006	6925.500000
1013.985611	6918.100000
1016.142693	6925.100000
1018.299251	6949.800000
1020.451430	6929.200000
1022.605016	6942.300000
1024.758080	6929.300000
1026.908695	6930.100000
1029.060717	6935.100000
1031.208365	6961.000000
1033.359345	6952.700000
1035.505954	6961.000000
1037.652044	6958.800000
1039.797616	6981.700000
1041.944593	6973.800000
1044.085281	6962.000000
1046.229299	6963.300000
1048.370876	6990.600000
1050.511937	6962.400000
1052.654402	7004.600000
1054.790588	6997.700000
1056.930099	6991.200000
1059.065256	7001.600000
1061.203737	6995.100000
1063.337864	6975.100000
1065.471478	6985.700000
1067.606497	6991.000000
1069.737166	6970.800000
1071.869240	6984.200000
1073.998885	6972.300000
1076.128018	6956.300000
1078.256639	6983.500000
1080.384749	6963.900000
1082.510433	6956.100000
1084.635607	6931.100000
1086.762185	6950.600000
1088.884425	6928.300000
1091.008070	6934.400000
1093.127380	6919.500000
1095.251920	6929.000000
1097.370214	6906.900000
1099.489913	6906.100000
1101.607193	6904.400000
1103.723967	6926.200000
1105.840234	6904.100000
1107.954085	6900.200000
1110.069341	6893.200000
1112.180273	6903.100000
1114.294518	6861.600000
1116.404442	6897.100000
1118.515770	6872.200000
1120.626593	6871.500000
1122.733100	6875.400000
1124.842917	6895.500000
1126.948419	6861.500000
1129.055324	6860.800000
1131.156014	6842.300000
1133.261916	6878.500000
1135.363509	6870.300000
1137.466505	6844.700000
1139.569000	6852.200000
1141.665288	6842.700000
1143.766784	6840.000000
1145.863976	6871.400000
1147.960671	6820.500000
1150.056867	6862.300000
1152.152566	6820.100000
1154.247766	6851.000000
1156.340570	6831.100000
1158.434777	6837.400000
1160.522792	6819.500000
1162.616005	6852.100000
1164.703030	6834.600000
1166.793354	6807.300000
1168.879391	6841.200000
1170.968725	6858.900000
1173.051878	6839.700000
1175.136433	6844.400000
1177.222390	6846.500000
1179.304065	6842.400000
1181.387142	6835.000000
1183.467833	6866.000000
1185.548032	6833.200000
1187.627740	6842.600000
1189.706957	6841.400000
1191.783792	6848.200000
1193.858246	6829.700000
1195.935991	6840.900000
1198.009467	6848.800000
1200.084343	6829.100000
1202.154952	6832.900000
1204.226962	6831.300000
1206.296597	6839.800000
1208.367632	6841.200000
1210.438179	6824.500000
1212.504465	6842.600000
1214.572152	6825.000000
1216.637467	6822.300000
1218.704182	6812.100000
1220.766641	6850.600000
1222.832385	6837.100000
1224.893875	6832.700000
1226.956766	6812.300000
1229.017289	6843.900000
1231.077328	6813.900000
1233.136885	6826.000000
1235.194076	6826.100000
1237.250786	6845.000000
1239.305132	6846.000000
1241.362760	6846.900000
1243.418025	6827.100000
1245.469049	6841.600000
1247.521473	6836.100000
1249.573417	6850.700000
1251.623003	6829.400000
1253.672110	6848.100000
1255.720739	6834.500000
1257.768889	6867.600000
1259.816560	6868.300000
1261.860001	6881.600000
1263.906718	6866.200000
1265.951081	6860.800000
1267.994968	6868.100000
1270.036503	6878.000000
1272.075689	6864.600000
1274.118148	6894.600000
1276.156384	6904.900000
1278.196019	6872.900000
1280.235179	6886.500000
1282.270120	6931.500000
1284.306460	6932.700000
1286.340456	6910.000000
1288.375849	6924.000000
1290.407030	6945.800000
1292.439608	6932.300000
1294.471715	6954.600000
1296.501481	6966.300000
1298.532645	7005.600000
1300.559601	6989.700000
1302.587955	7003.600000
1304.612104	7016.500000
1306.639519	7049.500000
1308.662731	7053.100000
1310.687341	7098.700000
1312.709617	7108.000000
1314.733290	7126.200000
1316.754630	7144.300000
1318.775502	7170.300000
1320.795907	7183.800000
1322.812119	7231.500000
1324.829728	7231.800000
1326.845009	7231.400000
1328.863549	7255.700000
1330.877900	7296.100000
1332.889925	7268.600000
1334.905207	7301.500000
1336.916304	7278.000000
1338.928798	7293.800000
1340.937109	7267.000000
1342.948675	7247.100000
1344.954203	7233.800000
1346.962986	7234.100000
1348.967591	7211.000000
1350.975450	7158.000000
1352.982847	7130.200000
1354.984213	7121.600000
1356.986975	7099.400000
1358.989278	7086.700000
1360.991121	7056.500000
1362.992504	7042.500000
1364.991574	6999.300000
1366.990185	7017.400000
1368.988338	6958.600000
1370.986032	6957.600000
1372.979564	6949.100000
1374.974491	6966.300000
1376.968962	6932.100000
1378.962976	6938.200000
1380.954683	6894.000000
1382.945935	6921.400000
1384.934881	6900.200000
1386.925222	6894.500000
1388.915108	6864.700000
1390.902690	6898.900000
1392.889819	6884.400000
1394.874646	6894.400000
1396.860868	6852.000000
1398.844790	6841.000000
1400.828259	6841.300000
1402.811275	6860.900000
1404.791994	6855.400000
1406.774107	6865.700000
1408.753924	6841.300000
1410.733289	6842.900000
1412.708516	6833.000000
1414.686981	6844.300000
1416.663153	6830.400000
1418.638876	6849.700000
1420.614149	6843.400000
1422.587131	6844.700000
1424.559665	6815.000000
1426.531751	6829.300000
1428.503390	6821.100000
1430.470900	6836.100000
1432.443484	6836.800000
1434.408262	6841.300000
1436.378113	6811.000000
1438.343840	6826.500000
1440.310959	6828.400000
1442.275795	6837.600000
1444.236511	6809.600000
1446.202295	6858.500000
1448.162124	6828.100000
1450.123347	6822.600000
1452.085962	6827.100000
1454.044462	6829.300000
1456.002519	6834.400000
1457.960135	6843.600000
1459.917308	6797.000000
1461.872206	6851.700000
1463.828497	6837.400000
1465.782513	6836.500000
1467.736088	6818.200000
1469.687391	6850.100000
1471.640087	6811.700000
1473.590510	6831.700000
1475.540495	6815.400000
1477.490041	6837.600000
1479.437318	6833.600000
1481.382327	6824.500000
1483.328729	6818.800000
1485.274693	6820.600000
1487.220220	6812.800000
1489.163481	6831.900000
1491.106307	6813.400000
1493.046869	6825.200000
1494.988822	6831.900000
1496.928513	6856.400000
1498.867770	6832.500000
1500.806591	6855.100000
1502.743153	6834.800000
1504.681106	6845.700000
1506.616800	6856.500000
1508.552061	6880.900000
1510.485066	6854.600000
1512.417638	6846.700000
1514.349778	6850.700000
1516.281486	6844.900000
1518.210940	6853.800000
1520.141785	6885.900000
1522.072198	6847.800000
1523.998539	6904.500000
1525.926271	6877.100000
1527.851752	6887.800000
1529.776804	6906.400000
1531.701427	6930.500000
1533.625621	6918.100000
1535.547567	6940.800000
1537.470904	6922.900000
1539.391994	6953.400000
1541.310840	6965.200000
1543.231076	6996.800000
1545.149069	7002.900000
1547.066635	7010.800000
1548.981959	7032.900000
1550.898673	7089.700000
1552.811332	7125.000000
1554.727195	7124.000000
1556.640818	7158.900000
1558.552203	7158.300000
1560.464978	7170.200000
1562.373703	7184.600000
1564.283817	7209.000000
1566.193508	7204.700000
1568.102776	7189.300000
1570.009810	7232.600000
1571.914611	7191.000000
1573.820801	7188.000000
1575.724759	7192.800000
1577.628296	7193.000000
1579.531413	7135.100000
1581.432300	7150.900000
1583.334576	7128.700000
1585.234624	7119.900000
1587.136059	7074.000000
1589.033461	7078.800000
1590.930444	7055.200000
1592.827009	7076.200000
1594.724962	7032.900000
1596.617080	7060.300000
1598.512391	7021.700000
1600.407285	7024.300000
1602.299957	7002.100000
1604.192212	7015.300000
1606.082248	6982.800000
1607.971868	6986.900000
1609.861073	6947.000000
1611.749863	6957.000000
1613.636435	6929.200000
1615.524395	6934.900000
1617.408338	6910.500000
1619.293668	6901.600000
1621.178585	6891.000000
1623.061288	6872.500000
1624.945378	6889.800000
1626.825456	6864.000000
1628.706922	6826.200000
1630.586177	6846.500000
1632.466818	6828.000000
1634.341655	6832.800000
1636.221473	6841.200000
1638.097287	6822.300000
1639.972690	6807.200000
1641.849479	6805.200000
1643.720472	6810.700000
1645.594646	6812.600000
1647.464821	6808.600000
1649.338178	6815.600000
1651.209331	6792.200000
1653.078282	6797.000000
1654.948618	6780.600000
1656.814962	6824.300000
1658.682691	6788.600000
1660.548221	6798.000000
1662.415137	6781.400000
1664.278064	6795.600000
1666.142376	6779.500000
1668.004492	6801.800000
1669.866203	6759.600000
1671.729300	6790.900000
1673.590201	6752.300000
1675.448910	6797.200000
1677.307215	6772.000000
1679.166905	6808.900000
1681.020827	6788.900000
1682.877923	6798.600000
1684.734616	6769.900000
1686.587332	6784.000000
1688.443220	6767.900000
1690.295134	6787.700000
1692.146647	6771.500000
1693.997759	6769.600000
1695.848471	6774.900000
1697.698782	6771.900000
1699.546908	6769.500000
1701.396419	6764.000000
1703.240181	6769.400000
1705.088892	6786.800000
1706.931857	6757.200000
1708.777989	6755.400000
1710.620158	6769.700000
1712.465493	6768.000000
1714.305087	6765.200000
1716.146065	6775.200000
1717.988426	6742.400000
1719.826831	6755.200000
1721.666619	6751.400000
1723.504232	6760.400000
1725.341449	6764.100000
1727.176493	6767.700000
1729.012920	6757.800000
1730.847175	6767.400000
1732.681035	6758.400000
1734.514501	6792.700000
1736.344022	6730.100000
1738.176701	6789.200000
1740.005436	6767.800000
1741.837328	6767.100000
1743.665278	6768.000000
1745.492837	6776.700000
1747.320003	6761.700000
1749.146778	6768.800000
1750.973161	6762.600000
1752.795608	6775.600000
1754.621210	6751.300000
1756.442877	6750.100000
1758.265926	6759.500000
1760.086813	6756.000000
1761.907312	6771.500000
1763.729191	6771.600000
1765.545372	6749.200000
1767.364704	6755.300000
1769.180109	6775.300000
1770.998664	6776.100000
1772.813294	6757.800000
1774.627537	6762.700000
1776.441394	6761.600000
1778.254864	6795.400000
1780.066181	6743.600000
1781.878878	6757.200000
1783.691190	6746.900000
1785.499584	6763.900000
1787.309358	6755.100000
1789.115218	6753.200000
1790.924223	6773.600000
1792.729315	6777.100000
1794.535788	6756.200000
1796.341877	6780.500000
1798.144055	6765.400000
1799.949378	6781.700000
1801.750792	6752.500000
1803.553586	6781.700000
1805.352474	6755.900000
1807.152743	6778.600000
1808.952630	6757.600000
1810.750375	6764.100000
1812.547740	6750.400000
1814.344725	6773.200000
1816.141329	6756.200000
1817.935794	6766.200000
1819.731638	6755.000000
1821.521827	6779.000000
1823.316913	6758.200000
1825.106347	6772.100000
1826.898917	6757.600000
1828.689352	6766.700000
1830.477653	6756.800000
1832.269089	6796.000000
1834.054879	6750.500000
1835.842049	6760.300000
1837.627087	6758.400000
1839.415259	6768.300000
1841.199545	6774.300000
1842.981701	6771.900000
1844.765237	6776.900000
1846.546644	6774.300000
1848.329430	6763.400000
1850.108335	6787.200000
1851.888620	6762.700000
1853.666778	6762.000000
1855.446315	6753.400000
1857.223727	6778.400000
1858.999015	6767.300000
1860.775681	6777.800000
1862.550225	6760.700000
1864.326147	6777.300000
1866.096448	6775.300000
1867.869877	6769.700000
1869.641186	6751.800000
1871.412124	6766.200000
1873.184440	6760.700000
1874.951142	6786.700000
1876.720970	6759.100000
1878.486934	6776.400000
1880.256021	6786.900000
1882.021247	6755.500000
1883.786105	6738.100000
1885.552340	6763.800000
1887.314716	6758.200000
1889.076725	6768.700000
1890.838366	6755.300000
1892.599641	6761.600000
1894.360548	6763.500000
1896.121089	6778.500000
1897.879520	6748.600000
1899.637585	6786.400000
1901.393543	6777.000000
1903.150877	6765.200000
1904.907846	6761.600000
1906.662708	6774.600000
1908.415466	6755.600000
1910.167859	6775.700000
1911.921629	6747.500000
1913.673295	6768.100000
1915.422859	6759.600000
1917.173798	6747.300000
1918.924375	6763.500000
1920.671112	6750.400000
1922.419226	6760.200000
1924.165240	6760.500000
1925.912629	6763.000000
1927.657921	6769.400000
1929.401115	6752.800000
1931.145684	6758.200000
1932.888158	6756.900000
1934.630271	6779.800000
1936.372024	6779.500000
1938.113417	6768.300000
1939.852717	6769.800000
1941.591658	6753.200000
1943.330240	6760.300000
1945.066731	6755.200000
1946.802864	6767.850000
1948.540371	6780.500000
1950.274056	6761.000000
1952.009116	6784.100000
1953.742087	6743.200000
1955.474702	6779.800000
1957.206961	6755.900000
1958.938863	6781.000000
1960.668679	6786.000000
1962.396410	6771.800000
1964.125516	6767.900000
1965.854267	6783.400000
1967.580934	6764.400000
1969.307247	6753.600000
1971.034933	6762.600000
1972.757083	6783.400000
1974.482334	6767.400000
1976.203778	6774.000000
1977.928323	6772.700000
1979.650787	6769.700000
1981.369449	6754.700000
1983.091209	6805.400000
1984.809167	6761.400000
1986.528498	6764.600000
1988.244030	6770.700000
1989.964382	6780.000000
1991.680936	6761.400000
1993.393693	6780.200000
1995.109546	6777.500000
1996.823327	6779.600000
1998.536758	6765.900000
2000.248118	6782.100000
2001.960850	6766.000000
2003.669792	6767.400000
2005.381826	6784.100000
2007.088352	6789.100000
2008.797969	6773.500000
2010.505520	6786.200000
2012.212722	6762.500000
2013.917859	6775.000000
2015.622650	6768.000000
2017.328812	6753.100000
2019.031192	6788.800000
2020.734943	6778.100000
2022.436632	6775.200000
2024.137976	6806.500000
2025.838974	6758.000000
2027.537911	6785.200000
2029.238220	6758.300000
2030.934754	6753.300000
2032.632659	6798.400000
2034.328505	6794.000000
2036.027437	6782.800000
2037.720883	6774.600000
2039.415700	6771.300000
2041.110175	6790.500000
2042.800881	6783.100000
2044.494671	6788.100000
2046.184694	6769.200000
2047.876088	6780.100000
2049.565429	6779.500000
2051.256140	6771.100000
2052.943088	6774.700000
2054.629697	6787.600000
2056.317675	6770.900000
2058.001894	6781.900000
2059.687484	6773.200000
2061.372734	6785.300000
2063.055935	6774.600000
2064.740507	6771.000000
2066.419616	6781.300000
2068.103510	6778.700000
2069.781943	6779.100000
2071.463454	6788.900000
2073.141213	6794.000000
2074.818636	6792.600000
2076.497428	6771.600000
2078.174178	6784.300000
2079.848886	6772.000000
2081.524963	6778.800000
2083.199000	6777.200000
2084.872701	6778.200000
2086.546067	6759.500000
2088.217394	6761.700000
2089.888387	6771.100000
2091.559046	6771.500000
2093.229371	6786.700000
2094.899362	6786.800000
2096.567317	6779.700000
2098.234939	6787.000000
2099.900526	6756.200000
2101.567482	6779.200000
2103.232405	6784.900000
2104.896996	6779.900000
2106.559555	6785.600000
2108.223482	6768.600000
2109.885378	6765.800000
2111.546944	6786.500000
2113.208178	6794.000000
2114.867384	6786.900000
2116.526259	6780.900000
2118.184805	6791.600000
2119.843020	6808.600000
2121.497513	6778.400000
2123.155070	6771.800000
2124.812298	6787.500000
2126.465804	6790.800000
2128.120678	6788.800000
2129.771833	6784.300000
2131.426051	6788.300000
2133.076552	6767.500000
2134.728419	6765.500000
2136.374878	6761.700000
2138.026092	6788.900000
2139.673592	6782.600000
2141.322459	6792.100000
2142.969307	6772.100000
2144.615830	6801.100000
2146.262027	6776.400000
2147.904516	6786.100000
2149.550063	6788.900000
2151.191903	6805.900000
2152.836800	6780.100000
2154.477991	6802.000000
2156.118860	6782.200000
2157.759404	6790.900000
2159.397936	6784.900000
2161.037834	6810.100000
2162.674032	6799.900000
2164.311596	6787.600000
2165.948838	6768.900000
2167.584070	6792.500000
2169.218981	6778.200000
2170.853569	6786.600000
2172.487837	6792.900000
2174.118411	6816.200000
2175.752037	6788.600000
2177.381971	6788.000000
2179.013270	6795.300000
2180.642564	6784.700000
2182.271539	6788.600000
2183.900194	6778.400000
2185.528530	6792.500000
2187.154864	6798.700000
2188.780879	6769.100000
2190.404892	6768.900000
2192.030271	6773.000000
2193.653649	6785.000000
2195.278392	6770.000000
2196.899454	6766.700000
2198.520199	6788.500000
2200.142309	6779.300000
2201.762421	6764.100000
2203.380536	6784.000000
2204.998336	6778.300000
2206.615821	6797.500000
2208.232990	6759.300000
2209.849844	6801.000000
2211.466382	6788.300000
2213.080928	6791.100000
2214.693481	6779.000000
2216.307398	6793.300000
2217.919324	6790.500000
2219.532613	6788.900000
2221.143912	6788.500000
2222.753221	6779.500000
2224.363894	6777.600000
2225.972578	6791.800000
2227.580949	6768.800000
2229.187334	6791.700000
2230.795082	6803.200000
2232.400843	6784.700000
2234.006293	6791.000000
2235.609758	6807.300000
2237.214586	6792.700000
2238.817430	6800.900000
2240.418291	6779.100000
2242.020515	6788.600000
2243.620757	6795.200000
2245.222361	6809.900000
2246.820312	6805.700000
2248.419626	6805.400000
2250.016960	6787.700000
2251.613986	6798.200000
2253.212374	6801.300000
2254.807113	6791.300000
2256.399875	6789.300000
2257.994000	6781.600000
2259.589486	6786.000000
2261.181327	6783.500000
2262.772862	6807.400000
2264.365759	6789.500000
2265.953346	6798.700000
2267.545629	6802.300000
2269.132606	6777.800000
2270.722610	6783.100000
2272.307310	6792.300000
2273.896704	6778.900000
2275.480796	6768.500000
2277.066248	6792.300000
2278.649732	6787.600000
2280.236241	6803.200000
2281.819117	6773.600000
2283.401690	6788.800000
2284.983959	6765.700000
2286.562598	6791.700000
2288.144262	6784.800000
2289.722297	6783.600000
2291.303355	6761.000000
2292.880786	6770.700000
2294.456254	6780.400000
2296.034744	6781.200000
2297.609610	6782.900000
2299.184175	6785.500000
2300.758440	6770.700000
2302.332404	6800.500000
2303.906067	6778.800000
2305.479431	6768.200000
2307.049176	6793.300000
2308.618622	6803.500000
2310.191086	6766.500000
2311.758276	6771.200000
2313.328484	6767.200000
2314.895077	6781.900000
2316.463030	6783.200000
2318.029027	6796.800000
2319.594727	6793.200000
2321.160129	6804.100000
2322.723578	6800.500000
2324.288386	6821.500000
2325.849586	6822.600000
2327.413800	6854.500000
2328.972752	6854.700000
2330.534719	6820.400000
2332.094734	6799.300000
2333.654455	6802.100000
2335.212226	6789.200000
2336.769702	6788.600000
2338.326884	6801.600000
2339.882118	6803.700000
2341.437059	6790.100000
2342.991705	6798.500000
2344.546058	6789.400000
2346.100118	6795.700000
2347.653883	6776.800000
2349.205704	6802.000000
2350.755583	6793.500000
2352.308469	6804.400000
2353.856112	6790.000000
2355.406764	6821.100000
2356.953824	6804.000000
2358.502242	6815.100000
2360.050369	6810.400000
2361.594907	6820.200000
2363.140803	6793.300000
2364.684761	6800.200000
2366.230076	6795.500000
2367.771806	6817.000000
2369.314893	6784.500000
2370.856044	6820.100000
2372.396906	6792.400000
2373.937479	6794.500000
2375.477763	6783.400000
2377.017758	6802.900000
2378.554175	6791.600000
2380.093593	6806.600000
2381.629433	6798.200000
2383.166631	6811.000000
2384.700253	6808.300000
2386.236875	6810.400000
2387.771567	6803.300000
2389.304329	6816.600000
2390.836804	6808.100000
2392.367351	6807.900000
2393.900896	6789.200000
2395.429230	6822.800000
2396.958921	6776.300000
2398.488325	6809.000000
2400.017445	6811.600000
2401.546280	6818.300000
2403.069909	6809.800000
2404.598174	6834.200000
2406.121237	6807.900000
2407.648933	6827.800000
2409.169790	6802.600000
2410.695280	6816.300000
2412.217209	6801.000000
2413.740494	6828.400000
2415.261857	6804.800000
2416.781301	6820.200000
2418.302100	6829.600000
2419.820981	6828.200000
2421.339579	6823.000000
2422.856260	6820.300000
2424.374295	6803.200000
2425.892049	6825.000000
2427.406252	6819.500000
2428.920174	6818.300000
2430.433816	6816.700000
2431.948813	6817.600000
2433.460261	6811.100000
2434.973064	6822.400000
2436.483953	6800.700000
2437.994564	6824.800000
2439.503263	6825.100000
2441.014948	6798.000000
2442.523090	6816.300000
2444.030954	6811.800000
2445.538540	6826.300000
2447.042585	6822.000000
2448.549615	6809.000000
2450.054737	6848.800000
2451.559582	6797.100000
2453.062520	6827.600000
2454.565182	6814.900000
2456.067567	6816.300000
2457.568047	6808.300000
2459.069880	6817.600000
2460.569808	6812.300000
2462.069461	6825.300000
2463.568839	6814.800000
2465.066314	6830.900000
2466.561887	6813.900000
2468.060440	6823.100000
2469.555465	6801.600000
2471.051842	6817.500000
2472.544693	6803.400000
2474.038897	6798.300000
2475.532827	6799.000000
2477.023233	6815.700000
2478.516617	6801.600000
2480.008103	6805.700000
2481.497692	6827.900000
2482.987009	6818.300000
2484.474430	6793.200000
2485.964827	6815.400000
2487.451706	6800.000000
2488.939936	6824.600000
2490.424649	6790.600000
2491.909093	6797.700000
2493.394887	6815.100000
2494.878790	6823.000000
2496.364043	6812.700000
2497.844163	6828.000000
2499.327256	6807.300000
2500.808458	6811.300000
2502.289391	6820.000000
2503.768435	6819.800000
2505.247210	6816.800000
2506.725717	6822.900000
2508.203956	6806.200000
2509.681926	6835.700000
2511.156391	6789.800000
2512.633826	6826.700000
2514.107757	6817.500000
2515.583038	6804.500000
2517.058052	6827.000000
2518.529565	6833.900000
2520.002429	6803.800000
2521.473410	6830.800000
2522.945741	6831.300000
2524.412958	6828.900000
2525.883142	6818.800000
2527.351445	6810.200000
2528.819483	6815.500000
2530.287256	6831.500000
2531.754764	6824.600000
2533.222007	6828.400000
2534.685758	6843.700000
2536.150859	6846.300000
2537.614083	6815.600000
2539.078656	6851.900000
2540.539741	6829.500000
2542.002175	6845.900000
2543.464346	6817.800000
2544.923031	6846.700000
2546.386287	6813.900000
2547.844448	6853.300000
2549.303957	6827.800000
2550.758372	6848.000000
2552.217358	6828.000000
2553.674472	6836.400000
2555.129715	6829.700000
2556.584696	6858.500000
2558.037809	6834.100000
2559.492270	6845.700000
2560.944861	6826.900000
2562.397193	6820.700000
2563.847658	6836.900000
2565.301078	6840.700000
2566.749416	6822.100000
2568.200709	6845.500000
2569.650137	6823.900000
2571.096092	6837.000000
2572.545002	6823.500000
2573.990442	6828.100000
2575.437229	6836.200000
2576.882154	6839.000000
2578.326820	6837.100000
2579.772834	6833.900000
2581.215382	6826.600000
2582.659277	6825.500000
2584.099707	6833.800000
2585.541484	6830.800000
2586.981402	6835.000000
2588.422667	6834.100000
2589.860470	6838.400000
2591.301223	6854.800000
2592.736914	6826.700000
2594.175554	6859.400000
2595.612336	6841.300000
2597.047263	6849.000000
2598.485137	6844.900000
2599.917954	6862.600000
2601.352118	6844.700000
2602.784428	6849.700000
2604.218084	6855.100000
2605.649887	6866.800000
2607.081436	6844.900000
2608.512733	6872.500000
2609.942177	6854.500000
2611.371369	6872.900000
2612.798711	6866.700000
2614.227398	6868.800000
2615.655834	6878.600000
2617.080822	6880.000000
2618.507157	6874.600000
2619.931643	6882.900000
2621.357475	6868.900000
2622.779863	6859.800000
2624.203597	6896.500000
2625.625484	6901.600000
2627.047122	6891.800000
2628.466914	6916.100000
2629.888052	6899.200000
2631.308940	6904.900000
2632.726390	6887.400000
2634.146779	6910.000000
2635.563731	6895.600000
2636.980434	6915.700000
2638.396889	6886.500000
2639.813096	6909.600000
2641.229055	6893.400000
2642.643173	6919.800000
2644.057043	6925.300000
2645.469075	6897.300000
2646.882450	6906.200000
2648.292396	6928.900000
2649.705278	6924.500000
2651.114731	6908.300000
2652.523938	6919.200000
2653.931309	6923.800000
2655.341614	6931.700000
2656.750084	6947.700000
2658.156718	6926.500000
2659.563107	6948.400000
2660.967662	6908.700000
2662.373561	6925.300000
2663.777627	6920.200000
2665.181448	6948.000000
2666.585025	6931.000000
2667.986771	6949.500000
2669.389860	6927.000000
2670.789531	6925.400000
2672.190546	6955.400000
2673.588145	6950.900000
2674.988674	6913.800000
2676.385787	6977.500000
2677.784244	6922.900000
2679.180874	6917.000000
2680.577261	6941.100000
2681.973406	6940.100000
2683.367725	6925.400000
2684.763387	6914.300000
2686.155640	6929.300000
2687.549235	6948.900000
2688.941006	6926.400000
2690.334120	6918.700000
2691.725410	6913.500000
2693.114877	6922.400000
2694.504104	6898.900000
2695.893092	6912.300000
2697.283421	6900.600000
2698.668767	6925.100000
2700.057036	6881.700000
2701.443485	6897.800000
2702.829695	6908.400000
2704.215666	6907.900000
2705.598239	6890.100000
2706.982154	6906.300000
2708.365831	6889.100000
2709.749269	6881.600000
2711.129313	6906.500000
2712.510697	6878.600000
2713.890267	6874.500000
2715.271177	6899.800000
2716.650273	6873.100000
2718.027555	6890.900000
2719.406178	6880.200000
2720.782988	6869.800000
2722.159561	6870.500000
2723.535899	6857.600000
2724.910426	6867.500000
2726.286293	6859.200000
2727.658773	6843.500000
2729.034169	6848.800000
2730.404605	6864.100000
2731.776382	6857.800000
2733.147924	6860.400000
2734.517658	6857.800000
2735.888733	6854.800000
2737.257999	6845.300000
2738.627032	6854.900000
2739.994259	6860.300000
2741.361252	6854.900000
2742.728013	6852.500000
2744.094542	6858.200000
2745.459265	6854.100000
2746.823756	6843.600000
2748.188016	6816.800000
2749.552043	6844.500000
2750.915839	6827.900000
2752.276261	6838.100000
2753.639593	6828.000000
2754.997983	6824.600000
2756.359283	6852.500000
2757.717213	6821.800000
2759.078051	6824.500000
2760.437090	6818.400000
2761.792760	6840.300000
2763.151338	6830.900000
2764.506549	6838.700000
2765.861531	6844.100000
2767.214717	6839.900000
2768.570809	6809.200000
2769.923536	6790.700000
2771.276036	6826.700000
2772.628307	6811.800000
2773.981916	6814.400000
2775.332165	6842.600000
2776.680619	6839.600000
2778.031979	6842.400000
2779.379979	6849.300000
2780.729317	6844.300000
2782.076863	6808.800000
2783.424183	6839.100000
2784.771276	6818.600000
2786.116578	6814.800000
2787.461653	6815.300000
2788.806503	6807.700000
2790.151127	6811.400000
2791.492399	6814.500000
2792.835009	6822.500000
2794.177393	6832.700000
2795.519552	6797.500000
2796.858362	6835.800000
2798.200072	6818.400000
2799.538434	6809.600000
2800.878132	6820.300000
2802.216046	6827.200000
2803.552175	6842.800000
2804.888080	6838.900000
2806.225323	6826.900000
2807.560782	6854.600000
2808.896018	6817.400000
2810.229471	6828.300000
2811.564261	6824.500000
2812.895711	6819.000000
2814.230056	6833.600000
2815.559503	6834.000000
2816.890287	6823.700000
2818.220849	6819.300000
2819.549632	6812.300000
2820.879751	6840.400000
2822.208092	6826.300000
2823.536212	6829.500000
2824.862554	6821.500000
2826.190233	6834.700000
2827.514578	6828.400000
2828.840260	6841.100000
2830.164166	6832.400000
2831.487853	6839.000000
2832.812875	6829.100000
2834.134567	6835.800000
2835.456041	6798.600000
2836.777296	6844.400000
2838.098332	6809.000000
2839.417595	6854.200000
2840.738194	6804.600000
2842.057022	6824.400000
2843.375631	6821.800000
2844.692469	6815.900000
2846.009090	6829.800000
2847.325494	6826.100000
2848.640128	6804.400000
2849.956098	6831.500000
2851.268747	6789.300000
2852.582731	6819.400000
2853.896499	6818.000000
2855.210050	6827.600000
2856.521835	6805.400000
2857.831853	6831.000000
2859.143206	6812.400000
2860.451244	6833.600000
2861.760616	6816.900000
2863.069774	6845.800000
2864.378716	6829.900000
2865.685894	6842.700000
2866.991310	6818.300000
2868.298060	6826.000000
2869.603047	6825.100000
2870.907821	6824.400000
2872.210833	6852.500000
2873.516726	6840.300000
2874.817765	6812.300000
2876.120138	6855.900000
2877.420751	6821.600000
2878.722698	6869.700000
2880.024431	6837.300000
2881.322861	6840.600000
2882.622624	6830.600000
2883.920630	6846.700000
2885.218424	6820.300000
2886.514462	6845.600000
2887.811833	6836.300000
2889.107448	6842.200000
2890.402852	6824.000000
2891.698045	6848.400000
2892.989941	6816.400000
2894.284713	6847.400000
2895.576188	6835.000000
2896.868996	6848.900000
2898.161594	6811.100000
2899.450898	6837.300000
2900.741534	6814.400000
2902.030419	6864.000000
2903.320636	6822.000000
2904.607562	6869.800000
2905.895820	6834.400000
2907.182329	6846.200000
2908.468629	6836.900000
2909.754722	6841.000000
2911.039066	6841.200000
2912.326281	6821.800000
2913.608670	6825.600000
2914.892391	6830.200000
2916.174366	6830.100000
2917.456133	6840.900000
2918.736156	6821.900000
2920.019048	6839.900000
2921.300195	6809.300000
2922.578060	6827.800000
2923.858794	6839.500000
2925.136247	6826.900000
2926.413494	6814.800000
2927.688999	6817.900000
2928.967372	6806.400000
2930.240931	6809.700000
2931.517357	6824.400000
2932.792042	6831.600000
2934.064986	6800.500000
2935.339262	6825.200000
2936.611798	6822.400000
2937.884129	6840.000000
2939.153188	6818.500000
2940.425112	6835.300000
2941.695298	6828.100000
2942.965280	6828.000000
2944.235059	6813.600000
2945.503102	6818.900000
2946.769408	6796.000000
2948.035513	6815.800000
2949.302947	6805.700000
2950.568647	6813.900000
2951.834144	6818.100000
2953.099439	6822.200000
2954.361469	6793.500000
2955.624829	6829.400000
2956.887988	6807.400000
2958.149415	6826.900000
2959.412171	6804.400000
2960.673195	6839.600000
2961.932489	6813.500000
2963.191583	6810.400000
2964.450476	6810.500000
2965.709169	6826.300000
2966.967662	6813.200000
2968.224426	6815.500000
2969.480990	6784.200000
2970.735827	6803.100000
2971.991992	6818.800000
2973.244903	6788.800000
2974.499143	6806.900000
2975.753184	6792.600000
2977.005499	6810.100000
2978.257615	6805.300000
2979.508007	6806.800000
2980.761254	6789.900000
2982.009724	6799.300000
2983.261049	6804.900000
2984.509124	6796.100000
2985.757003	6784.200000
2987.004684	6807.900000
2988.252168	6821.000000
2989.497931	6798.100000
2990.743498	6794.200000
2991.990392	6800.600000
2993.234042	6786.600000
2994.479020	6808.300000
2995.720754	6816.400000
2996.965340	6814.600000
2998.208207	6791.900000
2999.447833	6794.400000
3000.690309	6826.000000
3001.929545	6785.500000
3003.170109	6793.800000
3004.408957	6796.200000
3005.647609	6782.000000
3006.884546	6785.300000
3008.122811	6806.400000
3009.359360	6807.100000
3010.595716	6803.300000
3011.831878	6787.700000
3013.066326	6787.700000
3014.300582	6791.900000
3015.534644	6786.700000
3016.766994	6793.000000
3017.997632	6806.700000
3019.231116	6801.700000
3020.462888	6792.700000
3021.692950	6808.200000
3022.922819	6790.200000
3024.150980	6784.500000
3025.380466	6802.000000
3026.608243	6812.300000
3027.835829	6804.800000
3029.064742	6809.300000
3030.288912	6810.800000
3031.515925	6792.500000
3032.739714	6821.700000
3033.964830	6792.800000
3035.188239	6808.800000
3036.411458	6801.000000
3037.632972	6810.000000
3038.857327	6805.800000
3040.076947	6802.600000
3041.297893	6789.700000
3042.518650	6812.200000
3043.737703	6812.000000
3044.958081	6796.600000
3046.175243	6801.100000
3047.393731	6795.500000
3048.610516	6812.800000
3049.827114	6799.100000
3051.043523	6816.300000
3052.256720	6824.600000
3053.472754	6779.600000
3054.685576	6811.300000
3055.901235	6799.600000
3057.112171	6785.100000
3058.324432	6800.600000
3059.536507	6780.200000
3060.748394	6789.700000
3061.958585	6826.300000
3063.168589	6808.200000
3064.378407	6791.600000
3065.586529	6801.100000
3066.794466	6798.800000
3068.000707	6802.800000
3069.208273	6801.200000
3070.414144	6790.650000
3071.619831	6780.100000
3072.825332	6787.200000
3074.029140	6782.700000
3075.234272	6787.300000
3076.437711	6805.400000
3077.639459	6773.100000
3078.841022	6783.000000
3080.042402	6804.400000
3081.243598	6805.800000
3082.443104	6784.500000
3083.642427	6798.300000
3084.843073	6798.600000
3086.042029	6801.400000
3087.237791	6781.700000
3088.436382	6822.900000
3089.631779	6766.900000
3090.828499	6800.700000
3092.022027	6799.900000
3093.218383	6798.200000
3094.413053	6800.700000
3095.604532	6797.100000
3096.800342	6770.600000
3097.991458	6791.500000
3099.183898	6793.500000
3100.373150	6788.600000
3101.565227	6775.100000
3102.755621	6778.200000
3103.942829	6788.300000
3105.131360	6799.900000
3106.321212	6787.300000
3107.507881	6794.300000
3108.694369	6773.200000
3109.880679	6805.700000
3111.068310	6786.300000
3112.252759	6786.300000
3113.435529	6791.900000
3114.621121	6802.500000
3115.805034	6766.800000
3116.987268	6794.000000
3118.169323	6787.700000
3119.351200	6784.500000
3120.532899	6758.300000
3121.712921	6782.400000
3122.891266	6776.700000
3124.072431	6774.000000
3125.250421	6757.900000
3126.428235	6801.600000
3127.605871	6773.300000
3128.781832	6789.900000
3129.957616	6787.800000
3131.134722	6771.200000
3132.310153	6790.600000
3133.483911	6766.000000
3134.655996	6772.200000
3135.829403	6772.800000
3137.002633	6776.300000
3138.174192	6783.500000
3139.347071	6777.100000
3140.516783	6793.600000
3141.687816	6781.400000
3142.857179	6795.300000
3144.024871	6785.700000
3145.195379	6807.500000
3146.361229	6782.200000
3147.531387	6802.100000
3148.696889	6780.100000
3149.862216	6773.700000
3151.027370	6798.800000
3152.192351	6799.100000
3153.358651	6785.200000
3154.520299	6790.000000
3155.683266	6775.900000
3156.846061	6770.100000
3158.008683	6772.000000
3159.169640	6748.400000
3160.330424	6792.900000
3161.491036	6779.800000
3162.649984	6749.400000
3163.808761	6766.100000
3164.967366	6754.000000
3166.125798	6798.500000
3167.284060	6752.800000
3168.440659	6800.200000
3169.595597	6734.800000
3170.751854	6803.500000
3171.906450	6769.400000
3173.060876	6790.800000
3174.213642	6774.700000
3175.366237	6784.100000
3176.518663	6784.800000
3177.670919	6791.800000
3178.823004	6762.600000
3179.971944	6808.000000
3181.123690	6770.700000
3182.273778	6785.100000
3183.422210	6771.500000
3184.570472	6801.900000
3185.718566	6795.700000
3186.866491	6784.200000
3188.012760	6788.700000
3189.158861	6817.200000
3190.303308	6803.700000
3191.447587	6788.500000
3192.591698	6793.200000
3193.737126	6784.600000
3194.879416	6786.000000
3196.021539	6794.500000
3197.163494	6791.100000
3198.305282	6780.800000
3199.446903	6785.900000
3200.585389	6797.100000
3201.725192	6792.900000
3202.866313	6796.500000
3204.004299	6781.800000
3205.140636	6786.200000
3206.276807	6782.600000
3207.414295	6791.900000
3208.550135	6782.400000
3209.687292	6791.600000
3210.819836	6783.300000
3211.956662	6804.700000
3213.088876	6776.900000
3214.222407	6794.100000
3215.355774	6798.000000
3216.486013	6801.400000
3217.619050	6788.100000
3218.748961	6773.900000
3219.880188	6777.400000
3221.008291	6766.900000
3222.139190	6774.200000
3223.268445	6807.600000
3224.396057	6759.100000
3225.520546	6762.000000
3226.649311	6785.200000
3227.774954	6769.400000
3228.900435	6762.600000
3230.024274	6777.100000
3231.150907	6769.400000
3232.272943	6776.300000
3233.396295	6766.500000
3234.519485	6753.600000
3235.642512	6771.700000
3236.763901	6779.300000
3237.885127	6765.600000
3239.004716	6799.600000
3240.124143	6771.800000
3241.241932	6792.500000
3242.362513	6765.700000
3243.479981	6811.900000
3244.597288	6763.500000
3245.714435	6801.200000
3246.829946	6768.600000
3247.946771	6806.200000
3249.060487	6768.500000
3250.176992	6803.000000
3251.291863	6776.700000
3252.403625	6783.300000
3253.515227	6789.300000
3254.628145	6803.300000
3255.740903	6777.900000
3256.850555	6768.700000
3257.961522	6794.900000
3259.072330	6784.600000
3260.181506	6756.500000
3261.289052	6761.800000
3262.397911	6777.900000
3263.506613	6783.700000
3264.612212	6777.000000
3265.719125	6801.700000
3266.824409	6766.600000
3267.931007	6785.700000
3269.034505	6793.500000
3270.139318	6782.500000
3271.243973	6780.200000
3272.345529	6770.100000
3273.446929	6764.400000
3274.549643	6782.600000
3275.652201	6752.000000
3276.751662	6778.600000
3277.853907	6761.400000
3278.953056	6765.200000
3280.050581	6771.100000
3281.147950	6771.400000
3282.248101	6776.300000
3283.345160	6784.100000
3284.442063	6763.700000
3285.538811	6783.900000
3286.631001	6794.800000
3287.727439	6777.600000
3288.822255	6744.100000
3289.916917	6784.800000
3291.009957	6765.400000
3292.102842	6759.500000
3293.194108	6749.300000
3294.286685	6751.100000
3295.377643	6777.200000
3296.466981	6800.000000
3297.556166	6764.600000
3298.646664	6778.400000
3299.734077	6754.200000
3300.821337	6772.000000
3301.909910	6783.300000
3302.998331	6772.000000
3304.082204	6750.800000
3305.170319	6782.400000
3306.255352	6760.200000
3307.338770	6773.400000
3308.423500	6768.800000
3309.506614	6772.600000
3310.591041	6762.400000
3311.672389	6778.500000
3312.755049	6761.100000
3313.836095	6757.800000
3314.916990	6773.300000
3315.996271	6750.800000
3317.075402	6750.200000
3318.155845	6767.100000
3319.233213	6767.200000
3320.311893	6774.500000
3321.388961	6742.200000
3322.465880	6771.200000
3323.541187	6787.100000
3324.616345	6782.600000
3325.692814	6763.400000
3326.766213	6782.400000
3327.839463	6786.100000
3328.914023	6763.300000
3329.986975	6765.100000
3331.058318	6781.400000
3332.130972	6760.500000
3333.200560	6782.400000
3334.271458	6756.500000
3335.340749	6745.900000
3336.411351	6773.600000
3337.480346	6782.200000
3338.547735	6761.300000
3339.613519	6731.900000
3340.683529	6771.700000
3341.750476	6782.200000
3342.814361	6737.100000
3343.881014	6769.500000
3344.946062	6758.200000
3346.009507	6740.600000
3347.072806	6744.700000
3348.135958	6762.600000
3349.198964	6742.100000
3350.261824	6759.500000
3351.323082	6733.400000
3352.381283	6759.900000
3353.443704	6741.400000
3354.503070	6753.500000
3355.562290	6746.100000
3356.622820	6765.700000
3357.678840	6755.000000
3358.737624	6771.200000
3359.791901	6762.500000
3360.848942	6783.500000
3361.904384	6774.500000
3362.961136	6776.300000
3364.016289	6755.200000
3365.069845	6774.900000
3366.121805	6755.700000
3367.176526	6765.800000
3368.228198	6779.100000
3369.279727	6753.300000
3370.332564	6758.300000
3371.382354	6754.400000
3372.433453	6749.400000
3373.481506	6768.400000
3374.532318	6776.900000
3375.580086	6765.400000
3376.627711	6770.400000
3377.675193	6776.700000
3378.721083	6769.500000
3379.768281	6766.100000
3380.812437	6772.600000
3381.859351	6770.300000
3382.904673	6756.300000
3383.946954	6767.700000
3384.989095	6758.000000
3386.032543	6790.400000
3387.075850	6759.600000
3388.117568	6768.600000
3389.159144	6751.500000
3390.200579	6776.400000
3391.240426	6767.300000
3392.278684	6760.800000
3393.318250	6767.400000
3394.357676	6779.700000
3395.395514	6761.600000
3396.431765	6767.300000
3397.467877	6757.800000
3398.505296	6767.600000
3399.539682	6757.100000
3400.575375	6766.000000
3401.610929	6753.400000
3402.643452	6790.900000
3403.678728	6749.600000
3404.710973	6746.600000
3405.743080	6766.700000
3406.773603	6758.100000
3407.805433	6747.600000
3408.837125	6770.900000
3409.865789	6741.400000
3410.894316	6768.600000
3411.924149	6741.400000
3412.953845	6760.200000
3413.980515	6758.400000
3415.008492	6759.500000
3416.033444	6759.900000
3417.061146	6773.400000
3418.085825	6736.700000
3419.111810	6765.100000
3420.136215	6787.200000
3421.160484	6746.600000
3422.183174	6751.500000
3423.205728	6759.200000
3424.229588	6740.300000
3425.250428	6761.000000
3426.271132	6752.700000
3427.293143	6761.400000
3428.312135	6721.500000
3429.330991	6761.700000
3430.351154	6740.100000
3431.368300	6759.400000
