-118.155753	5.763736
-115.486152	1.474725
-112.819487	-2.064935
-110.153575	-4.809790
-107.490594	-6.714386
-104.826183	-7.733267
-102.164703	-7.820979
-99.501794	-6.549650
-96.843992	-0.990210
-94.184759	5.022378
-91.526275	1.023776
-88.870716	7.369231
-86.213728	1.587413
-83.561837	-1.018182
-80.908517	0.664336
-78.258117	1.383217
-75.606287	1.774825
-72.959548	3.504895
-70.311379	-1.806993
-67.663954	2.142657
-65.019442	4.188811
-62.373501	5.448951
-59.732643	1.774825
-57.090354	3.134266
-54.450975	-4.155245
-51.810167	-3.027972
-49.170098	-6.244755
-46.535103	-1.963636
-43.898678	-1.295105
-41.265157	1.565035
-38.630206	2.402797
-36.000322	8.735664
-33.366844	10.172028
-30.738429	8.251748
-28.110748	9.613986
-25.481639	7.953846
-22.857586	-21.541259
-20.229944	-116.230769
-17.607355	-314.132867
-14.985497	-478.165035
-12.364370	215.226573
-9.743974	1561.675524
-7.126465	2689.506294
-4.507528	3487.288112
-1.891477	3945.254545
0.723846	4063.455944
3.338442	3846.770629
5.950156	3293.937063
8.563297	2417.893706
11.171405	1285.594406
13.783095	119.805594
16.389754	-642.986014
18.997841	-450.867133
21.605204	-43.027972
24.207542	6.184615
26.813458	8.342657
29.414353	5.944056
32.016675	7.206993
34.613979	3.893706
37.214859	3.535664
39.810725	1.222378
42.408018	-4.448951
45.004592	-3.490909
47.596157	-5.116084
50.189150	-7.791608
52.779282	-9.646154
55.370842	-5.772028
57.959542	-4.714685
60.549670	-10.058741
63.134798	-9.486713
65.721354	-10.960839
68.307195	-11.384615
70.890183	-8.145455
73.474598	-2.302098
76.051883	-2.461538
78.632735	1.746853
81.210738	-0.541259
83.788031	1.809790
86.366750	4.952448
88.940488	2.111888
91.515652	-1.973427
94.087973	-3.237762
96.659587	-1.959441
99.228360	-2.864336
101.798560	-0.612587
104.365921	3.206993
106.934709	-2.671329
109.500659	-0.875524
112.063775	-4.650350
114.630448	-4.546853
117.187898	-1.688112
119.751034	2.432168
122.309211	10.461538
124.870942	24.535664
127.427716	44.779021
129.985916	78.411189
132.539164	119.904895
135.091713	177.669930
137.647814	237.081119
140.198966	305.590210
142.749420	368.352448
145.299178	431.272727
147.846116	480.622378
150.392358	516.247552
152.940027	537.260140
155.486999	550.047552
158.029035	552.885315
160.570378	549.055944
163.111029	540.758042
165.653104	538.062937
168.192369	528.827972
170.728824	526.816783
173.264589	522.499301
175.801779	519.696503
178.338277	510.079720
180.871971	512.004196
183.402860	507.381818
185.933061	505.327273
188.464687	504.227972
190.993513	499.555245
193.519539	499.780420
196.044879	499.393007
198.571644	497.160839
201.095613	495.303497
203.618896	492.293706
206.141495	492.120280
208.661301	492.292308
211.180424	494.193007
213.698864	491.695105
216.218728	492.728671
218.731591	501.650350
221.247985	508.127273
223.763698	517.632168
226.274520	524.583217
228.786767	534.251748
231.296231	540.123077
233.805017	547.455944
236.313125	558.739860
238.822657	554.138462
241.327308	547.503497
243.831283	544.083916
246.336682	544.552448
248.837206	540.257343
251.341253	540.802797
253.838330	541.756643
256.338929	539.370629
258.836757	535.846154
261.333912	535.467133
263.830394	534.068531
266.322014	536.714685
268.817152	526.967832
271.309525	525.430769
273.801227	526.934266
276.290166	535.837762
278.780528	534.209790
281.268129	548.394406
283.752970	546.253147
286.241325	549.560839
288.722742	553.538462
291.207672	572.548252
293.687756	581.369231
296.171353	595.134266
298.650108	604.018182
301.130285	609.069930
303.607711	609.248951
306.084473	606.457343
308.560571	599.120280
311.033921	598.446154
313.506610	585.725874
315.978637	586.383217
318.450002	585.556643
320.918624	586.433566
323.386586	578.689510
325.855971	574.286713
328.320533	566.211189
330.788598	553.218182
333.251844	542.071329
335.714433	530.538462
338.176364	525.581818
340.637639	522.096503
343.096180	517.373427
345.556143	515.527273
348.013374	507.064336
350.469950	498.752448
352.925871	489.556643
355.379064	481.290909
357.833679	473.958042
360.283492	470.586014
362.736801	467.281119
365.185311	464.359441
367.633171	463.559441
370.082452	462.223776
372.526940	459.899301
374.972850	458.096503
377.418111	453.053147
379.860653	450.703497
382.302547	446.071329
384.743793	442.127273
387.182324	437.088112
389.622277	435.841958
392.059516	427.723077
394.494043	427.847552
396.932058	427.970629
399.365296	426.822378
401.799956	428.662937
404.229843	429.111888
406.663215	427.662937
409.091816	429.606993
411.519777	429.720280
413.949158	428.146853
416.373775	425.441958
418.799812	421.818182
421.225210	415.600000
423.649967	415.486713
426.069965	412.130070
428.491385	405.911888
430.910108	399.162238
433.330252	386.906294
435.747701	377.499301
438.166570	373.464336
440.582746	365.483916
442.994175	359.967832
445.409080	356.776224
447.821295	351.773427
450.232876	346.402797
452.643823	341.517483
455.052084	336.748252
457.459713	330.924476
459.866709	324.577622
462.273073	321.812587
464.676756	320.496503
467.079808	314.938462
469.482230	315.963636
471.884022	317.156643
474.283136	318.345455
476.683670	323.324476
479.083575	320.102098
481.478757	324.492308
483.877406	329.974825
486.271335	334.959441
488.664638	347.260140
491.057315	359.047552
493.449367	372.650350
495.842838	394.956643
498.231596	436.875524
500.617688	511.902098
503.005200	665.909091
505.392088	953.593007
507.776313	1381.296503
510.161957	1911.630769
512.544938	2455.141259
514.925259	2933.530070
517.306999	3274.601399
519.686080	3436.166434
522.066580	3412.660140
524.444422	3197.092308
526.819609	2835.641958
529.194178	2389.627972
531.570166	1958.794406
533.943500	1612.690909
536.318253	1375.349650
538.688319	1220.257343
541.057770	1114.709091
543.428640	1036.503497
545.794828	965.816783
548.162435	904.067133
550.527396	855.534266
552.891744	804.439161
555.255480	765.050350
557.620633	721.994406
559.981114	691.341259
562.343012	657.910490
564.702271	630.714685
567.058891	607.362238
569.418957	587.118881
571.772331	572.858741
574.129150	561.552448
576.483334	547.717483
578.836909	536.250350
581.189876	523.763636
583.540212	510.832168
585.891964	497.665734
588.237040	486.661538
590.587580	475.422378
592.931447	464.465734
595.280775	451.172028
597.625454	444.737063
599.967509	442.615385
602.310981	444.163636
604.651830	447.725874
606.992076	455.632168
609.329702	473.194406
611.670763	490.393007
614.007187	506.671329
616.345027	515.774825
618.680249	520.542657
621.012856	515.465734
623.346880	503.479720
625.678289	490.069930
628.009100	474.339860
630.339313	456.787413
632.668929	448.372028
634.993921	438.325874
637.324355	439.844755
639.650167	434.234965
641.973373	424.977622
644.297995	418.025175
646.620011	414.402797
648.941433	409.096503
651.260252	405.527273
653.580487	400.871329
655.900129	395.496503
658.217170	393.013986
660.533620	391.082517
662.847471	390.602797
665.162737	393.991608
667.475407	389.374825
669.789492	388.251748
672.098978	391.006993
674.409878	394.895105
676.718186	398.825175
679.025906	397.591608
681.335041	391.690909
683.639583	384.826573
685.943539	381.264336
688.246908	374.113287
690.551692	375.521678
692.851890	370.882517
695.153503	366.096503
697.454530	362.057343
699.750976	354.166434
702.048836	350.060140
704.346114	343.917483
706.642807	335.081119
708.934925	331.307692
711.230454	328.156643
713.521410	331.044755
715.813780	333.015385
718.103574	341.321678
720.392789	340.648951
722.681423	343.138462
724.967486	343.958042
727.254962	340.078322
729.539868	339.212587
731.824195	337.934266
734.105955	334.609790
736.389128	335.068531
738.671724	331.800000
740.949764	332.172028
743.229218	333.448951
745.508097	334.184615
747.786400	328.097902
750.060154	330.179021
752.335322	328.535664
754.609916	322.041958
756.881951	321.307692
759.155399	320.165035
761.426289	319.882517
763.694622	320.679720
765.964370	320.878322
768.231562	322.323077
770.498184	325.745455
772.764237	323.202797
775.027738	323.647552
777.292651	327.507692
779.556996	323.572028
781.816810	320.896503
784.078038	324.037762
786.338698	321.095105
788.596811	322.974825
790.852380	321.556643
793.111340	318.527273
795.363801	317.542657
797.621629	321.572028
799.874938	316.889510
802.125706	322.777622
804.377887	321.328671
806.627530	320.886713
808.878584	320.983217
811.125127	322.401399
813.373083	315.548252
815.618503	319.830769
817.865336	315.861538
820.111606	310.907692
822.353373	309.359441
824.598522	310.128671
826.837199	306.279720
829.079259	304.790210
831.316820	300.202797
833.555792	304.447552
835.792238	299.036364
838.030096	296.779021
840.265428	295.121678
842.498236	301.475524
844.732456	295.074126
846.964154	292.011189
849.195297	287.892308
851.425885	286.483916
853.655919	280.816783
855.885398	278.121678
858.110397	281.976224
860.338769	284.260140
862.562663	281.304895
864.787967	281.509091
867.008796	284.855944
869.232997	287.637762
871.452725	284.099301
873.673864	287.479720
875.894452	284.776224
878.112531	285.695105
880.332019	284.521678
882.547041	286.334266
884.761515	287.132867
886.975442	285.492308
889.188821	283.317483
891.401654	277.072727
893.613939	277.134266
895.823723	278.132867
898.032961	274.844755
900.241653	278.432168
902.447847	276.869930
904.655450	280.734266
906.860556	284.367832
909.065118	290.569231
911.267185	292.106294
913.470661	292.692308
915.671643	295.742657
917.872083	297.349650
920.073932	307.513287
922.269390	321.416783
924.468206	333.395804
926.662585	359.278322
928.860321	392.261538
931.053621	432.597203
933.248329	476.959441
935.440552	519.332867
937.632237	550.795804
939.823384	577.818182
942.012048	599.314685
944.200175	616.548252
946.385822	622.510490
948.574821	624.935664
950.759397	618.339860
952.943438	617.362238
955.130829	619.015385
957.309917	617.653147
959.492354	622.798601
961.674258	619.604196
963.853688	619.668531
966.030645	617.149650
968.209010	617.246154
970.388781	617.600000
972.562204	614.348252
974.738973	614.152448
976.911336	620.100699
979.085106	617.118881
981.254472	606.752448
983.427182	593.565035
985.597426	576.867133
987.767142	546.493706
989.936329	518.641958
992.101119	482.078322
994.269251	449.165035
996.432987	420.019580
998.598131	392.353846
1000.760815	377.367832
1002.922974	371.341259
1005.082675	358.215385
1007.241853	349.509091
1009.402437	347.247552
1011.560566	341.995804
1013.718171	340.640559
1015.875253	337.474126
1018.031812	333.474126
1020.183991	328.616783
1022.337577	323.774825
1024.490640	309.020979
1026.641256	304.573427
1028.793277	296.756643
1030.940925	289.205594
1033.091905	285.555245
1035.238515	281.958042
1037.384605	278.576224
1039.530177	281.662937
1041.677153	281.292308
1043.817842	279.986014
1045.961859	276.762238
1048.103437	279.393007
1050.244497	279.822378
1052.386962	280.629371
1054.523148	279.184615
1056.662660	281.096503
1058.797816	283.791608
1060.936297	286.391608
1063.070425	288.176224
1065.204039	289.930070
1067.339057	286.681119
1069.469726	280.486713
1071.601801	277.177622
1073.731445	278.590210
1075.860578	274.013986
1077.989200	269.892308
1080.117310	270.965035
1082.242994	270.218182
1084.368168	270.058741
1086.494745	271.110490
1088.616986	271.709091
1090.740631	270.395804
1092.859941	268.360839
1094.984480	268.295105
1097.102775	268.071329
1099.222473	268.841958
1101.339753	260.510490
1103.456527	261.860140
1105.572794	265.271329
1107.686646	263.121678
1109.801901	262.716084
1111.912834	260.788811
1114.027078	257.769231
1116.137003	258.986014
1118.248330	256.640559
1120.359154	253.809790
1122.465661	252.855944
1124.575477	251.174825
1126.680979	245.829371
1128.787885	247.036364
1130.888574	248.006993
1132.994476	248.686713
1135.096069	245.513287
1137.199065	246.634965
1139.301560	241.742657
1141.397849	241.328671
1143.499344	234.344056
1145.596537	232.703497
1147.693231	233.667133
1149.789428	231.751049
1151.885126	233.341259
1153.980327	239.261538
1156.073131	242.839161
1158.167337	245.541259
1160.255352	250.860140
1162.348565	254.117483
1164.435590	248.251748
1166.525915	246.704895
1168.611951	241.990210
1170.701285	244.779021
1172.784438	235.552448
1174.868994	234.551049
1176.954950	233.749650
1179.036625	235.334266
1181.119702	235.366434
1183.200393	239.493706
1185.280593	244.781818
1187.360301	244.583217
1189.439518	245.720280
1191.516352	247.779021
1193.590806	247.692308
1195.668552	252.611189
1197.742027	247.247552
1199.816904	253.388811
1201.887513	250.520280
1203.959523	251.591608
1206.029157	251.604196
1208.100192	253.005594
1210.170739	250.397203
1212.237025	250.786014
1214.304712	249.576224
1216.370027	244.293706
1218.436742	238.844755
1220.499201	236.262937
1222.564946	231.250350
1224.626436	231.128671
1226.689326	230.071329
1228.749849	227.938462
1230.809889	228.493706
1232.869445	234.023776
1234.926637	235.678322
1236.983346	237.854545
1239.037693	241.321678
1241.095320	244.206993
1243.150585	246.058741
1245.201609	245.261538
1247.254033	244.583217
1249.305978	246.121678
1251.355564	246.402797
1253.404671	245.300699
1255.453299	249.790210
1257.501449	250.520280
1259.549121	248.559441
1261.592562	249.903497
1263.639278	252.889510
1265.683642	255.454545
1267.727528	255.605594
1269.769064	253.082517
1271.808250	254.085315
1273.850708	256.756643
1275.888945	256.517483
1277.928579	259.008392
1279.967739	255.225175
1282.002681	251.655944
1284.039021	249.194406
1286.073016	248.009790
1288.108410	243.521678
1290.139590	241.339860
1292.172169	238.725874
1294.204275	236.889510
1296.234041	237.725874
1298.265205	239.309091
1300.292161	238.913287
1302.320515	243.355245
1304.344665	242.900699
1306.372080	246.411189
1308.395292	245.076923
1310.419902	247.344056
1312.442177	247.344056
1314.465850	253.064336
1316.487190	251.878322
1318.508063	252.777622
1320.528468	251.974825
1322.544679	250.787413
1324.562289	251.475524
1326.577570	256.946853
1328.596110	257.492308
1330.610460	256.520280
1332.622485	254.962238
1334.637768	257.573427
1336.648865	259.188811
1338.661358	265.394406
1340.669669	264.953846
1342.681236	271.742657
1344.686764	271.142657
1346.695546	268.556643
1348.700152	269.384615
1350.708011	270.632168
1352.715407	263.794406
1354.716773	258.716084
1356.719536	255.606993
1358.721839	253.790210
1360.723681	252.276923
1362.725065	254.016783
1364.724134	252.653147
1366.722745	255.816783
1368.720898	252.563636
1370.718593	245.244755
1372.712124	243.532867
1374.707052	239.714685
1376.701523	232.468531
1378.695537	234.359441
1380.687244	232.324476
1382.678495	233.767832
1384.667441	233.841958
1386.657782	235.103497
1388.647668	231.429371
1390.635251	233.109091
1392.622380	232.092308
1394.607207	230.363636
1396.593429	226.300699
1398.577350	228.289510
1400.560819	228.006993
1402.543836	232.721678
1404.524555	228.131469
1406.506668	227.518881
1408.486484	225.436364
1410.465850	229.272727
1412.441077	226.121678
1414.419542	227.186014
1416.395714	226.289510
1418.371436	229.166434
1420.346709	228.742657
1422.319691	234.433566
1424.292226	234.696503
1426.264312	234.606993
1428.235950	229.032168
1430.203461	227.977622
1432.176045	231.876923
1434.140823	235.967832
1436.110674	234.737063
1438.076400	236.779021
1440.043520	235.172028
1442.008356	240.153846
1443.969072	239.576224
1445.934856	236.847552
1447.894685	233.559441
1449.855907	234.934266
1451.818522	234.177622
1453.777022	234.116084
1455.735080	239.352448
1457.692695	242.022378
1459.649869	244.972028
1461.604767	251.261538
1463.561057	249.335664
1465.515073	256.013986
1467.468649	256.027972
1469.419952	260.226573
1471.372647	264.453147
1473.323071	269.134266
1475.273056	265.692308
1477.222601	264.179021
1479.169878	263.769231
1481.114888	260.606993
1483.061290	258.577622
1485.007254	259.269930
1486.952780	255.731469
1488.896042	257.917483
1490.838867	258.323077
1492.779429	255.146853
1494.721382	250.180420
1496.661074	243.786014
1498.600330	239.165035
1500.539152	235.465734
1502.475714	231.826573
1504.413666	234.640559
1506.349361	236.655944
1508.284622	246.374825
1510.217626	252.229371
1512.150198	259.451748
1514.082338	261.020979
1516.014046	259.297902
1517.943501	262.282517
1519.874345	259.744056
1521.804759	258.500699
1523.731100	260.854545
1525.658831	259.047552
1527.584312	263.258741
1529.509364	267.602797
1531.433987	278.432168
1533.358181	284.781818
1535.280128	295.598601
1537.203464	302.777622
1539.124555	314.390210
1541.043401	326.507692
1542.963637	333.356643
1544.881629	350.476923
1546.799195	366.232168
1548.714519	378.846154
1550.631233	402.580420
1552.543892	422.693706
1554.459755	453.012587
1556.373379	480.000000
1558.284764	522.762238
1560.197538	577.723077
1562.106263	640.786014
1564.016378	725.893706
1565.926069	850.419580
1567.835336	1022.945455
1569.742370	1250.006993
1571.647171	1550.071329
1573.553361	1915.973427
1575.457319	2286.253147
1577.360857	2639.188811
1579.263973	2901.481119
1581.164861	3055.125874
1583.067137	3065.510490
1584.967184	2923.089510
1586.868620	2656.123077
1588.766021	2312.953846
1590.663005	1927.909091
1592.559570	1559.408392
1594.457522	1250.514685
1596.349640	1013.239161
1598.244952	833.688112
1600.139845	714.324476
1602.032517	629.216783
1603.924773	566.292308
1605.814809	521.352448
1607.704429	477.352448
1609.593634	440.355245
1611.482423	419.890909
1613.368996	401.878322
1615.256955	389.166434
1617.140899	381.840559
1619.026229	368.433566
1620.911146	357.110490
1622.793849	346.009790
1624.677938	338.453147
1626.558017	323.690909
1628.439482	309.920280
1630.318737	292.085315
1632.199378	275.124476
1634.074215	267.451748
1635.954034	259.012587
1637.829847	250.976224
1639.705251	247.054545
1641.582040	240.351049
1643.453032	235.454545
1645.327206	236.379021
1647.197382	235.220979
1649.070738	230.265734
1650.941891	225.525874
1652.810842	221.784615
1654.681179	216.483916
1656.547522	216.429371
1658.415252	210.883916
1660.280782	208.923077
1662.147697	207.261538
1664.010624	206.413986
1665.874936	202.928671
1667.737053	207.426573
1669.598764	207.132867
1671.461860	206.718881
1673.322762	208.834965
1675.181470	208.327273
1677.039775	207.469930
1678.899465	209.509091
1680.753388	201.586014
1682.610483	199.952448
1684.467176	194.215385
1686.319893	192.033566
1688.175781	188.551049
1690.027695	192.029371
1691.879208	191.823776
1693.730320	195.110490
1695.581031	194.923077
1697.431342	192.482517
1699.279469	192.248951
1701.128979	192.297902
1702.972741	188.188811
1704.821453	193.000000
1706.664418	197.932867
1708.510549	202.812587
1710.352719	199.286713
1712.198053	197.525874
1714.037647	196.801399
1715.878625	193.934266
1717.720986	186.972028
1719.559391	181.517483
1721.399179	176.679720
1723.236792	176.285315
1725.074009	177.078322
1726.909053	180.395804
1728.745480	182.086713
1730.579735	183.697902
1732.413596	181.644755
1734.247062	182.079720
1736.076582	180.745455
1737.909261	177.692308
1739.737996	176.587413
1741.569889	173.600000
1743.397839	171.899301
1745.225397	175.692308
1747.052564	177.137063
1748.879338	181.100699
1750.705722	179.400000
1752.528169	184.755245
1754.353770	185.309091
1756.175437	183.983217
1757.998486	181.485315
1759.819374	183.248951
1761.639872	178.065734
1763.461752	174.548252
1765.277932	169.969231
1767.097264	168.492308
1768.912669	165.751049
1770.731225	167.174825
1772.545855	161.822378
1774.360098	166.906294
1776.173955	162.076923
1777.987425	163.405594
1779.798741	165.201399
1781.611439	169.465734
1783.423750	165.314685
1785.232144	168.823776
1787.041919	165.041958
1788.847778	165.292308
1790.656784	166.172028
1792.461876	171.798601
1794.268348	171.925874
1796.074437	173.986014
1797.876616	169.647552
1799.681938	172.662937
1801.483352	174.144056
1803.286146	173.911888
1805.085035	170.275524
1806.885303	167.675524
1808.685191	166.517483
1810.482936	167.047552
1812.280301	166.135664
1814.077285	169.464336
1815.873889	168.393007
1817.668354	165.486713
1819.464199	167.682517
1821.254388	170.668531
1823.049474	169.441958
1824.838907	165.909091
1826.631478	163.791608
1828.421913	161.483916
1830.210213	166.567832
1832.001649	166.002797
1833.787440	160.918881
1835.574609	162.240559
1837.359647	159.784615
1839.147819	155.118881
1840.932105	160.521678
1842.714262	162.755245
1844.497797	162.325874
1846.279205	163.605594
1848.061990	170.074126
1849.840896	171.075524
1851.621180	174.840559
1853.399339	178.813986
1855.178875	175.504895
1856.956287	180.166434
1858.731575	175.451748
1860.508242	173.857343
1862.282786	177.160839
1864.058707	180.563636
1865.829009	176.395804
1867.602438	174.132867
1869.373747	173.772028
1871.144685	170.279720
1872.917000	175.127273
1874.683703	181.397203
1876.453530	182.514685
1878.219494	184.324476
1879.988582	179.864336
1881.753808	177.979021
1883.518666	176.882517
1885.284900	176.774825
1887.047276	168.406993
1888.809285	170.144056
1890.570927	171.103497
1892.332201	175.753846
1894.093109	177.181818
1895.853649	176.096503
1897.612080	172.937063
1899.370146	167.853147
1901.126104	163.181818
1902.883438	157.306294
1904.640406	153.338462
1906.395269	153.667133
1908.148026	153.434965
1909.900420	157.166434
1911.654190	158.152448
1913.405856	159.962238
1915.155419	157.918881
1916.906359	157.226573
1918.656935	153.955245
1920.403673	155.493706
1922.151786	153.732867
1923.897800	156.542657
1925.645190	154.514685
1927.390481	162.426573
1929.133675	160.974825
1930.878245	161.667133
1932.620718	161.485315
1934.362831	164.765035
1936.104585	164.921678
1937.845978	162.116084
1939.585278	164.633566
1941.324219	167.626573
1943.062801	164.868531
1944.799291	168.699301
1946.535424	166.653147
1948.272931	170.064336
1950.006617	167.988811
1951.741677	167.507692
1953.474648	163.682517
1955.207263	159.951049
1956.939521	154.800000
1958.671423	153.355245
1960.401239	158.450350
1962.128971	154.468531
1963.858077	153.913287
1965.586827	157.682517
1967.313494	155.489510
1969.039807	158.664336
1970.767493	161.805594
1972.489643	165.651748
1974.214895	165.513287
1975.936339	164.254545
1977.660883	164.289510
1979.383348	166.506294
1981.102009	167.111888
1982.823769	161.400000
1984.541727	160.932867
1986.261059	157.520280
1987.976590	149.492308
1989.696943	152.191608
1991.413496	152.892308
1993.126254	157.827972
1994.842107	157.923077
1996.555888	160.349650
1998.269318	161.953846
1999.980678	168.351049
2001.693411	168.174825
2003.402352	164.537063
2005.114387	157.770629
2006.820912	152.271329
2008.530530	145.675524
2010.238080	145.400000
2011.945283	144.734266
2013.650420	148.330070
2015.355210	152.100699
2017.061372	151.450350
2018.763752	153.911888
2020.467504	158.717483
2022.169193	160.401399
2023.870536	161.044755
2025.571534	154.397203
2027.270472	157.760839
2028.970781	158.046154
2030.667314	159.911888
2032.365219	159.356643
2034.061066	166.720280
2035.759998	167.225175
2037.453444	161.981818
2039.148261	164.381818
2040.842735	164.139860
2042.533441	162.728671
2044.227231	159.518881
2045.917254	155.317483
2047.608648	158.307692
2049.297989	156.468531
2050.988700	151.934266
2052.675649	149.895105
2054.362257	154.552448
2056.050236	150.832168
2057.734455	153.759441
2059.420044	157.899301
2061.105294	156.600000
2062.788496	154.650350
2064.473068	156.037762
2066.152176	155.432168
2067.836070	155.572028
2069.514504	155.075524
2071.196015	153.039161
2072.873774	154.703497
2074.551197	156.783217
2076.229989	155.868531
2077.906738	161.134266
2079.581446	159.544056
2081.257523	157.342657
2082.931560	151.460140
2084.605261	150.274126
2086.278627	145.881119
2087.949955	142.064336
2089.620948	136.748252
2091.291607	138.527273
2092.961932	138.467133
2094.631922	143.602797
2096.299877	145.816783
2097.967499	154.001399
2099.633087	155.822378
2101.300043	162.702098
2102.964966	162.541259
2104.629556	168.290909
2106.292115	162.981818
2107.956043	160.584615
2109.617939	157.956643
2111.279504	159.860140
2112.940739	157.069930
2114.599944	154.876923
2116.258820	151.230769
2117.917365	149.559441
2119.575581	148.373427
2121.230074	150.426573
2122.887631	149.220979
2124.544858	150.286713
2126.198365	145.162238
2127.853239	146.415385
2129.504394	143.278322
2131.158612	145.001399
2132.809112	143.918881
2134.460980	142.220979
2136.107439	141.881119
2137.758652	140.676923
2139.406153	139.253147
2141.055020	144.156643
2142.701868	147.627972
2144.348391	150.923077
2145.994588	151.111888
2147.637076	151.413986
2149.282623	151.324476
2150.924463	152.099301
2152.569360	149.432168
2154.210552	150.678322
2155.851420	145.784615
2157.491965	144.897902
2159.130497	144.030769
2160.770395	149.813986
2162.406593	149.283916
2164.044157	152.118881
2165.681399	151.276923
2167.316631	152.758042
2168.951541	151.917483
2170.586130	149.131469
2172.220398	146.806993
2173.850972	145.413986
2175.484597	142.640559
2177.114531	147.023776
2178.745830	147.882517
2180.375125	150.460140
2182.004099	152.488112
2183.632755	152.744056
2185.261091	148.071329
2186.887424	146.997203
2188.513439	141.948252
2190.137453	140.468531
2191.762832	135.939860
2193.386210	135.299301
2195.010953	137.206993
2196.632014	142.330070
2198.252760	139.166434
2199.874869	142.567832
2201.494981	144.794406
2203.113097	144.227972
2204.730897	146.262937
2206.348381	145.948252
2207.965550	148.244755
2209.582404	152.281119
2211.198943	151.945455
2212.813488	154.165035
2214.426042	155.637762
2216.039959	154.534266
2217.651884	150.588811
2219.265174	153.878322
2220.876472	153.535664
2222.485782	154.454545
2224.096454	153.716084
2225.705138	148.888112
2227.313510	148.330070
2228.919894	146.896503
2230.527642	147.955245
2232.133403	142.872727
2233.738853	140.815385
2235.342319	139.745455
2236.947147	138.897902
2238.549991	140.139860
2240.150852	137.516084
2241.753076	135.099301
2243.353317	132.766434
2244.954922	132.847552
2246.552873	132.914685
2248.152187	137.311888
2249.749521	143.090909
2251.346547	141.186014
2252.944934	143.665734
2254.539673	147.282517
2256.132436	147.560839
2257.726560	149.234965
2259.322046	151.286713
2260.913888	150.679720
2262.505423	148.219580
2264.098319	148.138462
2265.685906	145.125874
2267.278190	145.710490
2268.865166	145.200000
2270.455171	143.539860
2272.039871	142.019580
2273.629265	145.916084
2275.213356	147.012587
2276.798809	149.413986
2278.382293	147.342657
2279.968802	144.787413
2281.551678	138.159441
2283.134250	137.346853
2284.716520	136.844755
2286.295159	140.742657
2287.876822	138.174825
2289.454858	137.678322
2291.035916	135.437762
2292.613347	137.131469
2294.188815	138.177622
2295.767305	138.118881
2297.342170	134.187413
2298.916735	135.267133
2300.491000	132.804196
2302.064964	135.495105
2303.638628	140.334266
2305.211991	142.311888
2306.781736	138.090909
2308.351182	141.274126
2309.923647	139.509091
2311.490837	139.899301
2313.061044	139.686713
2314.627637	141.686713
2316.195590	139.206993
2317.761588	142.374825
2319.327288	141.089510
2320.892690	143.980420
2322.456139	138.640559
2324.020947	141.260140
2325.582146	137.956643
2327.146360	144.876923
2328.705313	140.703497
2330.267279	141.815385
2331.827295	139.439161
2333.387015	140.011189
2334.944786	134.296503
2336.502263	135.885315
2338.059444	129.302098
2339.614679	127.766434
2341.169619	120.699301
2342.724266	127.626573
2344.278619	126.083916
2345.832678	131.074126
2347.386444	128.398601
2348.938265	136.676923
2350.488143	137.889510
2352.041029	142.172028
2353.588673	139.900699
2355.139324	139.938462
2356.686385	139.725874
2358.234803	139.559441
2359.782929	138.172028
2361.327468	138.878322
2362.873364	137.311888
2364.417321	135.541259
2365.962636	135.320280
2367.504366	139.728671
2369.047454	138.439161
2370.588605	140.735664
2372.129467	137.648951
2373.670040	136.204196
2375.210324	138.262937
2376.750319	137.475524
2378.286735	130.401399
2379.826153	128.667133
2381.361994	126.299301
2382.899191	127.064336
2384.432814	127.993007
2385.969436	132.655944
2387.504127	137.746853
2389.036889	143.697902
2390.569365	146.879720
2392.099912	150.622378
2393.633457	152.331469
2395.161791	153.951049
2396.691481	147.875524
2398.220886	147.972028
2399.750006	139.994406
2401.278840	137.917483
2402.802470	132.699301
2404.330735	130.311888
2405.853797	130.006993
2407.381494	131.520280
2408.902350	132.237762
2410.427840	136.269930
2411.949770	134.278322
2413.473054	136.872727
2414.994418	137.027972
2416.513862	136.759441
2418.034661	131.969231
2419.553541	136.425175
2421.072139	135.695105
2422.588820	139.093706
2424.106856	146.265734
2425.624610	153.981818
2427.138812	156.236364
2428.652734	163.170629
2430.166377	160.288112
2431.681373	162.623776
2433.192821	161.758042
2434.705624	161.506294
2436.216514	157.530070
2437.727124	155.723077
2439.235823	153.583217
2440.747509	157.988811
2442.255651	159.786014
2443.763514	160.457343
2445.271100	157.300699
2446.775146	164.250350
2448.282176	164.618182
2449.787298	170.787413
2451.292143	171.770629
2452.795081	175.144056
2454.297742	174.289510
2455.800127	172.983217
2457.300607	172.545455
2458.802440	171.840559
2460.302369	169.215385
2461.802022	167.899301
2463.301400	162.158042
2464.798875	168.243357
2466.294448	164.920280
2467.793001	166.223776
2469.288026	162.067133
2470.784403	162.274126
2472.277254	162.200000
2473.771457	162.264336
2475.265387	158.418182
2476.755794	159.627972
2478.249178	161.549650
2479.740663	158.795804
2481.230252	155.716084
2482.719570	155.289510
2484.206991	150.944056
2485.697388	152.337063
2487.184266	149.983217
2488.672496	151.725874
2490.157210	153.524476
2491.641653	157.586014
2493.127448	155.753846
2494.611350	158.823776
2496.096604	157.346853
2497.576724	152.704895
2499.059816	148.170629
2500.541018	142.951049
2502.021951	141.812587
2503.500995	142.941259
2504.979771	141.581818
2506.458278	144.696503
2507.936516	142.264336
2509.414486	144.313287
2510.888952	142.118881
2512.366386	145.302098
2513.840317	144.896503
2515.315599	143.047552
2516.790613	141.135664
2518.262126	143.089510
2519.734990	144.634965
2521.205971	145.393007
2522.678301	141.419580
2524.145519	142.004196
2525.615703	137.172028
2527.084005	138.931469
2528.552043	138.681119
2530.019816	138.647552
2531.487324	137.156643
2532.954567	138.654545
2534.418319	137.602797
2535.883420	136.839161
2537.346644	135.355245
2538.811217	133.464336
2540.272301	127.222378
2541.734736	131.647552
2543.196907	133.159441
2544.655591	139.528671
2546.118848	140.057343
2547.577008	141.209790
2549.036517	138.457343
2550.490933	137.937063
2551.949919	130.267133
2553.407032	123.089510
2554.862275	118.363636
2556.317257	115.795804
2557.770369	114.875524
2559.224830	122.330070
2560.677422	127.020979
2562.129754	136.464336
2563.580218	138.359441
2565.033638	143.639161
2566.481976	140.079720
2567.933270	141.448951
2569.382697	136.191608
2570.828653	135.848951
2572.277563	135.225175
2573.723002	137.619580
2575.169790	139.586014
2576.614714	141.711888
2578.059381	143.565035
2579.505395	145.640559
2580.947942	143.809790
2582.391837	140.809790
2583.832267	135.546853
2585.274045	134.230769
2586.713963	134.418182
2588.155228	140.699301
2589.593031	138.798601
2591.033784	143.349650
2592.469474	143.180420
2593.908114	147.909091
2595.344897	146.415385
2596.779823	151.962238
2598.217698	150.006993
2599.650515	148.811189
2601.084679	148.860140
2602.516988	148.970629
2603.950644	148.931469
2605.382447	149.460140
2606.813997	144.906294
2608.245293	146.241958
2609.674738	143.883916
2611.103930	145.096503
2612.531271	144.000000
2613.959959	149.500699
2615.388394	147.483916
2616.813383	151.765035
2618.239717	153.446154
2619.664203	157.556643
2621.090035	157.311888
2622.512423	159.402797
2623.936157	158.721678
2625.358045	163.089510
2626.779682	163.695105
2628.199474	166.316084
2629.620612	171.418182
2631.041500	178.542657
2632.458950	183.518881
2633.879339	188.226573
2635.296291	191.023776
2636.712995	195.843357
2638.129450	198.509091
2639.545657	202.514685
2640.961615	206.079720
2642.375733	212.331469
2643.789604	215.668531
2645.201635	220.854545
2646.615011	226.015385
2648.024957	238.124476
2649.437839	242.423776
2650.847292	251.766434
2652.256499	261.854545
2653.663870	272.332867
2655.074175	286.653147
2656.482644	300.223776
2657.889278	313.363636
2659.295667	326.709091
2660.700222	343.556643
2662.106121	357.825175
2663.510187	369.121678
2664.914009	389.612587
2666.317586	410.766434
2667.719331	437.064336
2669.122420	460.198601
2670.522092	485.579021
2671.923107	516.692308
2673.320705	553.314685
2674.721234	585.475524
2676.118348	624.689510
2677.516805	662.016783
2678.913434	695.167832
2680.309822	727.569231
2681.705967	763.906294
2683.100286	796.625175
2684.495948	816.892308
2685.888200	827.781818
2687.281796	836.485315
2688.673567	835.495105
2690.066680	828.186014
2691.457970	812.018182
2692.847437	793.844755
2694.236665	763.237762
2695.625652	730.848951
2697.015982	699.097902
2698.401327	667.524476
2699.789597	637.148252
2701.176046	603.001399
2702.562256	571.141259
2703.948227	542.135664
2705.330800	512.262937
2706.714714	489.573427
2708.098391	466.383217
2709.481830	445.302098
2710.861873	417.735664
2712.243258	397.882517
2713.622827	378.450350
2715.003738	365.159441
2716.382834	349.942657
2717.760115	332.337063
2719.138738	315.469930
2720.515548	298.369231
2721.892122	284.016783
2723.268460	275.360839
2724.642986	262.788811
2726.018853	252.751049
2727.391333	241.118881
2728.766730	237.476923
2730.137165	230.562238
2731.508942	228.383217
2732.880485	218.693706
2734.250219	211.290909
2735.621293	205.289510
2736.990560	198.629371
2738.359593	189.271329
2739.726819	186.165035
2741.093813	177.843357
2742.460574	173.002797
2743.827102	169.500699
2745.191826	167.951049
2746.556317	163.579021
2747.920576	162.601399
2749.284604	156.553846
2750.648399	157.448951
2752.008821	157.805594
2753.372154	157.248951
2754.730544	151.166434
2756.091844	147.345455
2757.449773	142.762238
2758.810612	141.310490
2760.169650	137.167832
2761.525320	140.532867
2762.883899	137.146853
2764.239110	138.690909
2765.594092	137.409790
2766.947277	139.760839
2768.303369	141.616783
2769.656097	142.560839
2771.008596	135.874126
2772.360867	135.447552
2773.714477	130.420979
2775.064725	126.772028
2776.413180	125.211189
2777.764539	126.061538
2779.112539	123.030769
2780.461878	123.012587
2781.809424	120.932867
2783.156743	123.373427
2784.503836	122.226573
2785.849138	123.518881
2787.194214	122.430769
2788.539064	128.855944
2789.883688	124.093706
2791.224959	130.535664
2792.567569	131.864336
2793.909954	130.246154
2795.252113	128.135664
2796.590923	123.443357
2797.932633	121.216783
2799.270994	120.923077
2800.610693	118.202797
2801.948606	120.027972
2803.284735	118.327273
2804.620641	122.303497
2805.957883	120.060140
2807.293342	125.071329
2808.628578	122.563636
2809.962032	122.236364
2811.296822	122.023776
2812.628271	122.609790
2813.962616	124.881119
2815.292063	124.696503
2816.622847	125.944056
2817.953409	124.818182
2819.282192	120.851748
2820.612312	117.448951
2821.940652	112.516084
2823.268772	108.780420
2824.595115	108.282517
2825.922793	111.365035
2827.247139	114.534266
2828.572820	117.406993
2829.896727	115.830769
2831.220413	115.363636
2832.545435	117.093706
2833.867128	116.202797
2835.188601	112.247552
2836.509856	111.033566
2837.830892	110.676923
2839.150156	109.763636
2840.470755	110.907692
2841.789582	113.773427
2843.108191	115.584615
2844.425030	118.911888
2845.741651	117.972028
2847.058054	118.436364
2848.372689	120.714685
2849.688658	121.053147
2851.001307	118.433566
2852.315292	115.672727
2853.629060	109.504895
2854.942611	104.123077
2856.254395	98.134266
2857.564414	97.397203
2858.875767	99.335664
2860.183804	101.700699
2861.493177	101.454545
2862.802334	103.358042
2864.111276	107.356643
2865.418455	113.102098
2866.723870	114.241958
2868.030620	111.061538
2869.335607	105.885315
2870.640381	108.518881
2871.943393	110.027972
2873.249287	108.886713
2874.550326	108.693706
2875.852698	104.917483
2877.153311	105.769231
2878.455258	106.486713
2879.756992	103.781818
2881.055422	107.200000
2882.355185	101.475524
2883.653191	96.779021
2884.950985	98.002797
2886.247022	106.615385
2887.544393	106.745455
2888.840008	107.786014
2890.135413	108.840559
2891.430606	107.198601
2892.722501	107.994406
2894.017273	109.380420
2895.308749	105.216783
2896.601557	106.612587
2897.894155	103.186014
2899.183458	100.001399
2900.474094	101.173427
2901.762980	101.735664
2903.053197	99.869930
2904.340123	103.640559
2905.628381	98.437762
2906.914890	95.397203
2908.201190	96.509091
2909.487282	98.114685
2910.771626	92.409790
2912.058842	93.832168
2913.341231	93.630769
2914.624952	93.916084
2915.906926	95.555245
2917.188694	97.658741
2918.468716	99.187413
2919.751608	102.773427
2921.032755	101.078322
2922.310620	101.794406
2923.591354	103.674126
2924.868807	98.977622
2926.146055	94.994406
2927.421560	97.253147
2928.699933	99.086713
2929.973491	99.513287
2931.249917	95.535664
2932.524602	95.772028
2933.797547	96.744056
2935.071822	101.609790
2936.344358	102.155245
2937.616690	102.682517
2938.885749	104.461538
2940.157673	102.001399
2941.427859	101.351049
2942.697841	104.998601
2943.967620	104.019580
2945.235662	101.047552
2946.501969	100.373427
2947.768073	100.019580
2949.035508	96.043357
2950.301207	94.784615
2951.566704	90.083916
2952.831999	91.067133
2954.094030	91.546853
2955.357390	90.058741
2956.620549	88.450350
2957.881975	96.274126
2959.144731	97.913287
2960.405756	100.015385
2961.665050	104.777622
2962.924143	104.209790
2964.183036	98.808392
2965.441729	100.390210
2966.700222	99.234965
2967.956986	98.991608
2969.213551	96.783217
2970.468387	94.390210
2971.724553	88.801399
2972.977463	90.528671
2974.231703	86.009790
2975.485744	87.688112
2976.738059	89.200000
2977.990176	89.120280
2979.240568	88.640559
2980.493815	93.137063
2981.742285	94.457343
2982.993609	91.386014
2984.241685	89.243357
2985.489563	86.904895
2986.737244	80.786014
2987.984729	81.714685
2989.230492	82.318881
2990.476058	87.352448
2991.722953	84.636364
2992.966602	86.447552
2994.211580	85.995804
2995.453315	90.234965
2996.697901	93.237762
2997.940768	95.783217
2999.180393	94.615385
3000.422870	94.591608
3001.662106	87.770629
3002.902670	88.742657
3004.141517	87.586014
3005.380170	88.865734
3006.617107	86.331469
3007.855371	87.434965
3009.091921	84.441958
3010.328277	86.455944
3011.564439	89.608392
3012.798887	95.875524
3014.033142	91.327273
3015.267204	88.506294
3016.499554	84.351049
3017.730192	89.608392
3018.963676	89.881119
3020.195449	92.890909
3021.425510	92.668531
3022.655380	94.696503
3023.883540	93.455944
3025.113027	93.811189
3026.340804	96.179021
3027.568390	94.074126
3028.797302	87.497902
3030.021472	83.068531
3031.248485	83.179021
3032.472275	84.654545
3033.697390	80.763636
3034.920799	80.018182
3036.144019	79.475524
3037.365533	85.345455
3038.589888	87.227972
3039.809508	87.930070
3041.030454	89.324476
3042.251210	84.037762
3043.470263	81.605594
3044.690642	82.095105
3045.907804	85.662937
3047.126291	85.704895
3048.343077	83.418182
3049.559674	83.172028
3050.776084	81.208392
3051.989280	84.637762
3053.205314	80.386014
3054.418136	81.386014
3055.633795	81.174825
3056.844731	82.591608
3058.056993	83.818182
3059.269067	87.829371
3060.480955	87.183217
3061.691145	86.689510
3062.901150	86.815385
3064.110968	86.902098
3065.319090	86.328671
3066.527026	90.176224
3067.733268	87.234965
3068.940834	89.146853
3070.146705	89.376224
3071.352391	93.600000
3072.557893	92.867133
3073.761701	92.486713
3074.966833	90.285315
3076.170272	92.439161
3077.372019	89.808392
3078.573583	88.563636
3079.774963	87.426573
3080.976159	85.432168
3082.175665	81.236364
3083.374987	77.423776
3084.575633	76.300699
3085.774590	74.096503
3086.970351	76.219580
3088.168942	76.724476
3089.364339	75.078322
3090.561060	80.187413
3091.754588	76.489510
3092.950944	77.493706
3094.145613	78.606993
3095.337092	77.387413
3096.532902	78.265734
3097.724019	77.429371
3098.916459	78.123077
3100.105710	78.619580
3101.297788	84.302098
3102.488182	85.069930
3103.675389	85.618182
3104.863920	91.048951
3106.053773	87.639161
3107.240441	91.295105
3108.426930	91.050350
3109.613239	83.825175
3110.800871	78.566434
3111.985320	75.082517
3113.168089	74.406993
3114.353682	80.011189
3115.537594	78.620979
3116.719828	76.408392
3117.901884	78.036364
3119.083761	79.432168
3120.265460	78.257343
3121.445482	82.918881
3122.623826	81.227972
3123.804992	75.937063
3124.982982	74.511888
3126.160795	73.426573
3127.338431	74.648951
3128.514392	76.562238
3129.690177	70.439161
3130.867282	68.639161
3132.042714	68.787413
3133.216472	69.004196
3134.388557	67.011189
3135.561963	66.956643
3136.735194	66.384615
3137.906752	66.931469
3139.079632	68.097902
3140.249344	70.237762
3141.420377	72.956643
3142.589739	74.825175
3143.757432	76.394406
3144.927940	78.471329
3146.093789	78.011189
3147.263948	82.271329
3148.429449	82.450350
3149.594777	81.323077
3150.759931	84.860140
3151.924912	85.511888
3153.091212	85.780420
3154.252859	87.327273
3155.415827	83.910490
3156.578621	84.394406
3157.741243	81.380420
3158.902200	80.888112
3160.062984	79.062937
3161.223597	83.544056
3162.382545	86.026573
3163.541321	85.865734
3164.699926	86.246154
3165.858359	84.967832
3167.016620	84.366434
3168.173219	85.984615
3169.328157	79.535664
3170.484414	78.707692
3171.639011	75.068531
3172.793436	77.274126
3173.946202	76.907692
3175.098798	77.825175
3176.251224	78.902098
3177.403479	78.973427
3178.555565	77.618182
3179.704504	80.303497
3180.856250	81.341259
3182.006339	81.043357
3183.154770	77.742657
3184.303033	79.574825
3185.451127	79.197203
3186.599052	80.123077
3187.745321	80.646154
3188.891422	80.513287
3190.035869	79.986014
3191.180147	81.415385
3192.324258	79.412587
3193.469687	84.288112
3194.611977	85.264336
3195.754099	82.697902
3196.896055	85.481119
3198.037843	83.490909
3199.179464	78.558042
3200.317949	79.144056
3201.457753	78.760839
3202.598873	74.565035
3203.736859	70.668531
3204.873196	70.200000
3206.009367	70.275524
3207.146856	77.110490
3208.282696	74.001399
3209.419852	72.355245
3210.552397	72.111888
3211.689222	68.177622
3212.821436	70.103497
3213.954968	76.648951
3215.088334	76.156643
3216.218573	73.917483
3217.351611	72.762238
3218.481521	72.295105
3219.612749	72.847552
3220.740851	74.623776
3221.871751	71.123077
3223.001006	72.300699
3224.128617	73.286713
3225.253107	74.201399
3226.381872	74.413986
3227.507515	77.627972
3228.632995	79.468531
3229.756834	78.531469
3230.883468	77.296503
3232.005503	81.109091
3233.128855	84.025175
3234.252045	89.409790
3235.375073	92.402797
3236.496461	94.986014
3237.617688	97.261538
3238.737276	93.545455
3239.856703	86.644755
3240.974493	90.441958
3242.095074	90.731469
3243.212542	89.082517
3244.329849	85.808392
3245.446995	89.395804
3246.562506	89.029371
3247.679332	90.167832
3248.793047	88.388811
3249.909553	84.044755
3251.024423	78.398601
3252.136185	72.695105
3253.247788	71.781818
3254.360706	73.671329
3255.473464	68.381818
3256.583116	68.925874
3257.694083	65.409790
3258.804891	68.296503
3259.914067	64.160839
3261.021612	64.441958
3262.130472	62.248951
3263.239173	58.139860
3264.344772	57.854545
3265.451686	62.406993
3266.556970	71.938462
3267.663568	76.215385
3268.767066	77.444755
3269.871878	79.412587
3270.976533	77.328671
3272.078090	78.209790
3273.179490	70.864336
3274.282204	74.012587
3275.384761	67.696503
3276.484223	65.006993
3277.586467	63.323077
3278.685617	64.149650
3279.783141	64.506294
3280.880510	65.316084
3281.980662	62.613986
3283.077720	59.241958
3284.174624	58.009790
3285.271372	58.832168
3286.363561	58.321678
3287.460000	67.955245
3288.554816	64.092308
3289.649477	67.770629
3290.742517	70.299301
3291.835403	72.020979
3292.926668	67.776224
3294.019246	68.834965
3295.110204	64.763636
3296.199542	61.801399
3297.288727	60.744056
3298.379224	62.173427
3299.466637	62.742657
3300.553898	63.993007
3301.642471	60.373427
3302.730891	61.047552
3303.814764	64.335664
3304.902879	63.194406
3305.987913	61.121678
3307.071331	60.359441
3308.156061	57.323077
3309.239175	54.876923
3310.323601	54.321678
3311.404949	54.993007
3312.487609	52.541259
3313.568655	52.658741
3314.649550	50.064336
3315.728832	50.772028
3316.807963	55.686713
3317.888406	60.181818
3318.965774	64.496503
3320.044454	67.956643
3321.121522	70.216783
3322.198440	69.293706
3323.273748	69.939860
3324.348906	70.841958
3325.425375	68.060140
3326.498773	67.811189
3327.572023	60.351049
3328.646584	55.342657
3329.719535	54.331469
3330.790879	54.041958
3331.863533	51.918881
3332.933120	55.180420
3334.004018	57.276923
3335.073309	61.467133
3336.143911	61.955245
3337.212906	64.458741
3338.280295	65.180420
3339.346079	66.584615
3340.416089	67.064336
3341.483036	65.903497
3342.546921	67.637762
3343.613574	67.446154
3344.678623	66.706294
3345.742068	68.345455
3346.805366	65.793007
3347.868519	64.458741
3348.931525	57.009790
3349.994384	57.067133
3351.055642	53.830769
3352.113843	53.857343
3353.176265	54.841958
3354.235630	53.753846
3355.294851	52.419580
3356.355380	55.404196
3357.411400	56.820979
3358.470185	60.436364
3359.524462	58.665734
3360.581503	60.878322
3361.636945	61.590210
3362.693696	65.162238
3363.748850	65.318881
3364.802406	67.751049
3365.854365	61.962238
3366.909086	61.213986
3367.960759	59.530070
3369.012287	58.216783
3370.065125	54.176224
3371.114915	55.549650
3372.166014	52.546853
3373.214066	52.341259
3374.264879	53.332867
3375.312646	52.681119
3376.360271	53.786014
3377.407754	52.855944
3378.453643	48.506294
3379.500842	50.141259
3380.544997	50.566434
3381.591911	50.183217
3382.637233	50.372028
3383.679515	54.945455
3384.721655	53.386014
3385.765104	54.634965
3386.808411	54.843357
3387.850128	52.427972
3388.891704	51.174825
3389.933140	49.773427
3390.972987	45.488112
3392.011245	46.144056
3393.050811	45.728671
3394.090237	43.883916
3395.128075	41.513287
3396.164326	42.482517
3397.200437	40.398601
3398.237856	42.454545
3399.272242	42.029371
3400.307936	41.619580
3401.343490	42.096503
3402.376012	49.117483
3403.411288	49.660140
3404.443533	56.041958
3405.475640	57.288112
3406.506163	61.286713
3407.537994	62.109091
3408.569686	64.032168
3409.598350	63.995804
3410.626877	65.930070
3411.656710	64.016783
3412.686406	62.022378
3413.713075	59.130070
3414.741052	59.669930
3415.766004	55.269930
3416.793706	56.067133
3417.818385	54.602797
3418.844370	55.032168
3419.868776	50.931469
3420.893044	45.527273
3421.915734	44.142657
3422.938289	48.646154
3423.962148	48.206993
3424.982989	49.397203
3426.003693	51.579820
3427.025703	54.169980
3428.044695	57.025375
3429.063552	60.003696
3430.083715	62.962637
3431.100860	65.759890
