-118.155753	15.800000
-115.486152	6.400000
-112.819487	-1.000000
-110.153575	-26.800000
-107.490594	2.000000
-104.826183	6.000000
-102.164703	4.200000
-99.501794	7.000000
-96.843992	5.000000
-94.184759	-15.000000
-91.526275	6.200000
-88.870716	-7.400000
-86.213728	21.000000
-83.561837	11.200000
-80.908517	-5.600000
-78.258117	3.600000
-75.606287	42.200000
-72.959548	-11.800000
-70.311379	7.000000
-67.663954	16.200000
-65.019442	4.800000
-62.373501	14.000000
-59.732643	-9.400000
-57.090354	-13.800000
-54.450975	7.600000
-51.810167	-2.200000
-49.170098	4.800000
-46.535103	-12.600000
-43.898678	-0.200000
-41.265157	-13.400000
-38.630206	6.200000
-36.000322	12.800000
-33.366844	35.200000
-30.738429	0.000000
-28.110748	42.000000
-25.481639	22.200000
-22.857586	15.400000
-20.229944	0.200000
-17.607355	33.400000
-14.985497	73.000000
-12.364370	63.400000
-9.743974	137.200000
-7.126465	520.600000
-4.507528	1897.400000
-1.891477	4706.800000
0.723846	8444.600000
3.338442	4791.600000
5.950156	744.000000
8.563297	87.000000
11.171405	48.200000
13.783095	33.200000
16.389754	20.200000
18.997841	20.000000
21.605204	13.000000
24.207542	7.000000
26.813458	38.600000
29.414353	6.400000
32.016675	12.200000
34.613979	16.200000
37.214859	1.800000
39.810725	12.000000
42.408018	-16.000000
45.004592	-10.000000
47.596157	-21.000000
50.189150	-3.200000
52.779282	10.400000
55.370842	-10.400000
57.959542	-3.200000
60.549670	7.000000
63.134798	-26.800000
65.721354	33.600000
68.307195	15.000000
70.890183	-31.600000
73.474598	6.800000
76.051883	18.600000
78.632735	-1.800000
81.210738	1.600000
83.788031	27.800000
86.366750	6.600000
88.940488	-5.600000
91.515652	15.200000
94.087973	25.400000
96.659587	21.800000
99.228360	-1.000000
101.798560	11.000000
104.365921	20.600000
106.934709	-9.600000
109.500659	-4.000000
112.063775	21.400000
114.630448	4.800000
117.187898	27.400000
119.751034	15.600000
122.309211	24.800000
124.870942	20.800000
127.427716	57.200000
129.985916	73.600000
132.539164	99.200000
135.091713	190.600000
137.647814	247.600000
140.198966	302.400000
142.749420	381.600000
145.299178	418.400000
147.846116	521.800000
150.392358	528.800000
152.940027	528.200000
155.486999	576.600000
158.029035	553.200000
160.570378	514.800000
163.111029	557.800000
165.653104	523.800000
168.192369	545.200000
170.728824	529.600000
173.264589	513.400000
175.801779	527.000000
178.338277	514.800000
180.871971	526.600000
183.402860	514.400000
185.933061	492.400000
188.464687	496.000000
190.993513	513.400000
193.519539	514.400000
196.044879	493.600000
198.571644	508.200000
201.095613	515.600000
203.618896	502.600000
206.141495	475.600000
208.661301	501.800000
211.180424	522.800000
213.698864	515.200000
216.218728	514.200000
218.731591	522.800000
221.247985	519.400000
223.763698	510.800000
226.274520	552.200000
228.786767	547.200000
231.296231	565.400000
233.805017	550.000000
236.313125	535.600000
238.822657	561.000000
241.327308	570.800000
243.831283	514.200000
246.336682	526.200000
248.837206	554.400000
251.341253	542.000000
253.838330	545.200000
256.338929	527.600000
258.836757	581.400000
261.333912	548.200000
263.830394	541.800000
266.322014	520.200000
268.817152	538.000000
271.309525	499.600000
273.801227	561.600000
276.290166	541.000000
278.780528	529.400000
281.268129	557.000000
283.752970	547.800000
286.241325	590.200000
288.722742	563.000000
291.207672	576.000000
293.687756	567.600000
296.171353	580.000000
298.650108	623.800000
301.130285	637.200000
303.607711	635.600000
306.084473	583.800000
308.560571	624.200000
311.033921	595.600000
313.506610	552.600000
315.978637	558.600000
318.450002	629.800000
320.918624	622.400000
323.386586	591.400000
325.855971	574.600000
328.320533	558.200000
330.788598	559.000000
333.251844	563.000000
335.714433	524.600000
338.176364	529.200000
340.637639	503.600000
343.096180	560.000000
345.556143	534.600000
348.013374	499.000000
350.469950	522.600000
352.925871	506.600000
355.379064	474.800000
357.833679	489.200000
360.283492	463.600000
362.736801	479.000000
365.185311	477.600000
367.633171	498.800000
370.082452	479.600000
372.526940	477.000000
374.972850	460.200000
377.418111	473.200000
379.860653	466.000000
382.302547	452.600000
384.743793	445.200000
387.182324	431.200000
389.622277	422.800000
392.059516	420.200000
394.494043	403.000000
396.932058	406.200000
399.365296	422.200000
401.799956	413.000000
404.229843	397.000000
406.663215	442.000000
409.091816	437.000000
411.519777	428.200000
413.949158	433.800000
416.373775	443.000000
418.799812	430.800000
421.225210	436.000000
423.649967	413.400000
426.069965	434.200000
428.491385	392.200000
430.910108	409.200000
433.330252	395.400000
435.747701	398.800000
438.166570	367.200000
440.582746	376.000000
442.994175	367.800000
445.409080	357.400000
447.821295	350.200000
450.232876	366.600000
452.643823	326.800000
455.052084	369.600000
457.459713	334.000000
459.866709	317.000000
462.273073	323.600000
464.676756	352.800000
467.079808	351.800000
469.482230	341.600000
471.884022	326.600000
474.283136	329.800000
476.683670	333.600000
479.083575	324.200000
481.478757	329.800000
483.877406	311.400000
486.271335	352.800000
488.664638	359.400000
491.057315	348.800000
493.449367	438.200000
495.842838	424.200000
498.231596	474.200000
500.617688	535.400000
503.005200	694.800000
505.392088	863.800000
507.776313	1166.200000
510.161957	1603.800000
512.544938	2273.400000
514.925259	3024.400000
517.306999	3759.200000
519.686080	4003.200000
522.066580	3708.000000
524.444422	3163.800000
526.819609	2622.800000
529.194178	2180.800000
531.570166	1869.200000
533.943500	1609.200000
536.318253	1389.800000
538.688319	1241.800000
541.057770	1167.600000
543.428640	1087.000000
545.794828	997.400000
548.162435	898.400000
550.527396	856.200000
552.891744	782.000000
555.255480	769.400000
557.620633	759.200000
559.981114	669.200000
562.343012	673.000000
564.702271	654.400000
567.058891	597.800000
569.418957	618.600000
571.772331	603.800000
574.129150	564.800000
576.483334	556.600000
578.836909	530.800000
581.189876	528.800000
583.540212	529.400000
585.891964	516.800000
588.237040	507.800000
590.587580	471.400000
592.931447	487.600000
595.280775	469.200000
597.625454	491.600000
599.967509	443.600000
602.310981	457.600000
604.651830	443.800000
606.992076	467.800000
609.329702	486.600000
611.670763	493.200000
614.007187	505.200000
616.345027	564.800000
618.680249	537.000000
621.012856	532.400000
623.346880	517.800000
625.678289	474.600000
628.009100	460.000000
630.339313	488.600000
632.668929	432.000000
634.993921	457.200000
637.324355	459.200000
639.650167	470.600000
641.973373	414.400000
644.297995	440.400000
646.620011	422.200000
648.941433	398.200000
651.260252	414.000000
653.580487	432.400000
655.900129	416.200000
658.217170	422.600000
660.533620	412.200000
662.847471	411.000000
665.162737	410.600000
667.475407	391.000000
669.789492	415.400000
672.098978	414.000000
674.409878	421.800000
676.718186	413.200000
679.025906	398.800000
681.335041	406.400000
683.639583	367.000000
685.943539	409.200000
688.246908	402.200000
690.551692	363.800000
692.851890	364.400000
695.153503	388.800000
697.454530	383.200000
699.750976	365.800000
702.048836	398.400000
704.346114	338.200000
706.642807	332.000000
708.934925	337.400000
711.230454	340.200000
713.521410	349.200000
715.813780	330.800000
718.103574	310.800000
720.392789	360.400000
722.681423	363.800000
724.967486	378.400000
727.254962	365.400000
729.539868	326.400000
731.824195	349.800000
734.105955	365.400000
736.389128	340.000000
738.671724	310.600000
740.949764	359.600000
743.229218	340.800000
745.508097	337.000000
747.786400	333.000000
750.060154	311.000000
752.335322	354.000000
754.609916	355.000000
756.881951	317.000000
759.155399	327.400000
761.426289	333.200000
763.694622	303.200000
765.964370	308.200000
768.231562	328.600000
770.498184	338.000000
772.764237	322.600000
775.027738	332.400000
777.292651	335.800000
779.556996	307.800000
781.816810	321.000000
784.078038	331.600000
786.338698	325.600000
788.596811	345.600000
790.852380	330.200000
793.111340	332.800000
795.363801	318.000000
797.621629	343.000000
799.874938	332.200000
802.125706	329.000000
804.377887	322.800000
806.627530	320.000000
808.878584	363.000000
811.125127	314.600000
813.373083	333.000000
815.618503	334.800000
817.865336	321.800000
820.111606	301.600000
822.353373	320.000000
824.598522	312.600000
826.837199	341.000000
829.079259	288.000000
831.316820	282.600000
833.555792	303.400000
835.792238	288.200000
838.030096	304.600000
840.265428	307.800000
842.498236	297.600000
844.732456	308.400000
846.964154	298.400000
849.195297	293.800000
851.425885	294.600000
853.655919	291.400000
855.885398	287.800000
858.110397	274.400000
860.338769	295.000000
862.562663	287.000000
864.787967	292.600000
867.008796	280.400000
869.232997	269.400000
871.452725	294.400000
873.673864	290.400000
875.894452	263.400000
878.112531	298.400000
880.332019	284.400000
882.547041	270.000000
884.761515	314.600000
886.975442	313.600000
889.188821	276.800000
891.401654	274.200000
893.613939	304.600000
895.823723	289.000000
898.032961	323.000000
900.241653	260.200000
902.447847	303.800000
904.655450	321.600000
906.860556	276.600000
909.065118	302.800000
911.267185	309.600000
913.470661	293.800000
915.671643	310.600000
917.872083	328.000000
920.073932	330.200000
922.269390	327.600000
924.468206	342.000000
926.662585	384.400000
928.860321	373.200000
931.053621	408.600000
933.248329	481.400000
935.440552	532.800000
937.632237	545.200000
939.823384	593.200000
942.012048	613.800000
944.200175	620.200000
946.385822	613.600000
948.574821	635.600000
950.759397	622.400000
952.943438	643.400000
955.130829	634.800000
957.309917	612.200000
959.492354	628.400000
961.674258	614.000000
963.853688	603.400000
966.030645	651.600000
968.209010	652.800000
970.388781	639.000000
972.562204	595.600000
974.738973	649.800000
976.911336	641.200000
979.085106	631.000000
981.254472	635.800000
983.427182	596.400000
985.597426	591.800000
987.767142	577.800000
989.936329	497.800000
992.101119	485.800000
994.269251	461.600000
996.432987	426.200000
998.598131	431.400000
1000.760815	388.600000
1002.922974	371.200000
1005.082675	380.600000
1007.241853	364.200000
1009.402437	342.800000
1011.560566	378.800000
1013.718171	347.600000
1015.875253	365.600000
1018.031812	317.600000
1020.183991	331.600000
1022.337577	306.200000
1024.490640	298.600000
1026.641256	287.800000
1028.793277	274.800000
1030.940925	296.400000
1033.091905	292.800000
1035.238515	286.400000
1037.384605	283.000000
1039.530177	292.000000
1041.677153	286.200000
1043.817842	291.200000
1045.961859	284.400000
1048.103437	269.000000
1050.244497	313.400000
1052.386962	300.000000
1054.523148	282.800000
1056.662660	297.600000
1058.797816	291.000000
1060.936297	283.400000
1063.070425	291.600000
1065.204039	280.400000
1067.339057	290.400000
1069.469726	279.000000
1071.601801	294.600000
1073.731445	285.800000
1075.860578	267.400000
1077.989200	269.800000
1080.117310	252.600000
1082.242994	272.800000
1084.368168	278.600000
1086.494745	264.000000
1088.616986	291.800000
1090.740631	273.000000
1092.859941	250.000000
1094.984480	284.800000
1097.102775	299.000000
1099.222473	252.000000
1101.339753	261.000000
1103.456527	273.800000
1105.572794	243.400000
1107.686646	259.800000
1109.801901	251.200000
1111.912834	234.600000
1114.027078	281.400000
1116.137003	251.000000
1118.248330	281.400000
1120.359154	261.000000
1122.465661	265.200000
1124.575477	249.600000
1126.680979	253.200000
1128.787885	245.800000
1130.888574	255.200000
1132.994476	267.800000
1135.096069	244.200000
1137.199065	231.600000
1139.301560	228.400000
1141.397849	244.600000
1143.499344	247.200000
1145.596537	228.000000
1147.693231	278.200000
1149.789428	249.600000
1151.885126	254.200000
1153.980327	240.400000
1156.073131	237.800000
1158.167337	254.800000
1160.255352	269.600000
1162.348565	255.000000
1164.435590	256.000000
1166.525915	244.800000
1168.611951	265.800000
1170.701285	275.400000
1172.784438	233.800000
1174.868994	223.800000
1176.954950	270.400000
1179.036625	232.200000
1181.119702	262.000000
1183.200393	239.200000
1185.280593	270.200000
1187.360301	230.800000
1189.439518	250.000000
1191.516352	260.800000
1193.590806	270.000000
1195.668552	248.000000
1197.742027	266.600000
1199.816904	268.200000
1201.887513	279.400000
1203.959523	255.800000
1206.029157	286.400000
1208.100192	279.200000
1210.170739	246.000000
1212.237025	252.000000
1214.304712	244.800000
1216.370027	228.200000
1218.436742	237.800000
1220.499201	218.800000
1222.564946	246.200000
1224.626436	241.600000
1226.689326	255.800000
1228.749849	256.400000
1230.809889	262.400000
1232.869445	228.800000
1234.926637	247.600000
1236.983346	240.200000
1239.037693	200.000000
1241.095320	244.800000
1243.150585	267.400000
1245.201609	245.400000
1247.254033	262.600000
1249.305978	252.000000
1251.355564	267.000000
1253.404671	244.600000
1255.453299	251.400000
1257.501449	237.600000
1259.549121	255.600000
1261.592562	219.400000
1263.639278	248.600000
1265.683642	258.800000
1267.727528	246.400000
1269.769064	264.600000
1271.808250	266.600000
1273.850708	242.600000
1275.888945	236.400000
1277.928579	261.800000
1279.967739	288.000000
1282.002681	260.600000
1284.039021	264.400000
1286.073016	236.800000
1288.108410	228.400000
1290.139590	226.200000
1292.172169	264.200000
1294.204275	231.800000
1296.234041	252.400000
1298.265205	237.200000
1300.292161	237.000000
1302.320515	253.000000
1304.344665	233.800000
1306.372080	244.800000
1308.395292	250.200000
1310.419902	231.200000
1312.442177	260.200000
1314.465850	242.400000
1316.487190	247.800000
1318.508063	279.800000
1320.528468	270.200000
1322.544679	267.200000
1324.562289	273.800000
1326.577570	239.400000
1328.596110	278.600000
1330.610460	262.800000
1332.622485	266.200000
1334.637768	253.000000
1336.648865	287.000000
1338.661358	277.400000
1340.669669	279.000000
1342.681236	302.200000
1344.686764	289.600000
1346.695546	269.400000
1348.700152	305.800000
1350.708011	264.600000
1352.715407	271.600000
1354.716773	233.400000
1356.719536	261.000000
1358.721839	278.600000
1360.723681	286.200000
1362.725065	261.200000
1364.724134	300.200000
1366.722745	274.600000
1368.720898	264.000000
1370.718593	238.400000
1372.712124	259.000000
1374.707052	225.400000
1376.701523	238.400000
1378.695537	221.600000
1380.687244	229.400000
1382.678495	249.600000
1384.667441	247.600000
1386.657782	252.000000
1388.647668	237.800000
1390.635251	197.200000
1392.622380	261.200000
1394.607207	220.200000
1396.593429	242.200000
1398.577350	207.600000
1400.560819	222.400000
1402.543836	237.000000
1404.524555	237.600000
1406.506668	225.400000
1408.486484	239.200000
1410.465850	220.800000
1412.441077	235.600000
1414.419542	200.200000
1416.395714	234.800000
1418.371436	227.000000
1420.346709	255.600000
1422.319691	227.400000
1424.292226	236.800000
1426.264312	214.800000
1428.235950	246.800000
1430.203461	255.000000
1432.176045	233.400000
1434.140823	240.800000
1436.110674	234.800000
1438.076400	226.800000
1440.043520	261.000000
1442.008356	245.200000
1443.969072	263.400000
1445.934856	224.000000
1447.894685	241.600000
1449.855907	229.000000
1451.818522	236.200000
1453.777022	212.800000
1455.735080	252.600000
1457.692695	230.200000
1459.649869	280.400000
1461.604767	239.400000
1463.561057	256.200000
1465.515073	274.200000
1467.468649	268.600000
1469.419952	223.600000
1471.372647	266.600000
1473.323071	273.000000
1475.273056	260.200000
1477.222601	262.000000
1479.169878	242.200000
1481.114888	273.800000
1483.061290	270.600000
1485.007254	266.000000
1486.952780	278.200000
1488.896042	265.800000
1490.838867	265.200000
1492.779429	263.600000
1494.721382	284.600000
1496.661074	248.800000
1498.600330	273.600000
1500.539152	237.600000
1502.475714	250.800000
1504.413666	256.400000
1506.349361	254.800000
1508.284622	228.200000
1510.217626	242.400000
1512.150198	242.200000
1514.082338	281.600000
1516.014046	274.400000
1517.943501	277.800000
1519.874345	266.600000
1521.804759	281.600000
1523.731100	245.200000
1525.658831	276.600000
1527.584312	259.000000
1529.509364	268.000000
1531.433987	294.000000
1533.358181	318.400000
1535.280128	271.800000
1537.203464	329.200000
1539.124555	314.000000
1541.043401	328.800000
1542.963637	365.000000
1544.881629	375.200000
1546.799195	348.000000
1548.714519	411.600000
1550.631233	421.400000
1552.543892	426.000000
1554.459755	461.400000
1556.373379	507.800000
1558.284764	552.400000
1560.197538	611.200000
1562.106263	661.000000
1564.016378	789.200000
1565.926069	873.800000
1567.835336	1030.400000
1569.742370	1259.800000
1571.647171	1504.800000
1573.553361	1820.200000
1575.457319	2187.800000
1577.360857	2591.400000
1579.263973	2964.400000
1581.164861	3194.400000
1583.067137	3243.800000
1584.967184	2935.800000
1586.868620	2630.400000
1588.766021	2161.600000
1590.663005	1803.400000
1592.559570	1437.800000
1594.457522	1200.000000
1596.349640	995.400000
1598.244952	859.200000
1600.139845	768.400000
1602.032517	645.400000
1603.924773	562.400000
1605.814809	526.800000
1607.704429	505.400000
1609.593634	437.000000
1611.482423	439.800000
1613.368996	380.600000
1615.256955	397.400000
1617.140899	360.400000
1619.026229	367.000000
1620.911146	385.400000
1622.793849	343.400000
1624.677938	356.800000
1626.558017	311.800000
1628.439482	270.400000
1630.318737	289.000000
1632.199378	282.800000
1634.074215	273.000000
1635.954034	257.600000
1637.829847	231.200000
1639.705251	265.000000
1641.582040	252.000000
1643.453032	253.200000
1645.327206	240.400000
1647.197382	217.200000
1649.070738	226.800000
1650.941891	228.600000
1652.810842	218.200000
1654.681179	234.000000
1656.547522	229.200000
1658.415252	230.600000
1660.280782	226.800000
1662.147697	206.400000
1664.010624	201.000000
1665.874936	221.800000
1667.737053	204.800000
1669.598764	203.400000
1671.461860	211.000000
1673.322762	214.200000
1675.181470	212.200000
1677.039775	221.000000
1678.899465	187.600000
1680.753388	210.400000
1682.610483	194.800000
1684.467176	190.400000
1686.319893	155.000000
1688.175781	210.000000
1690.027695	165.600000
1691.879208	218.600000
1693.730320	207.800000
1695.581031	192.800000
1697.431342	199.800000
1699.279469	194.800000
1701.128979	176.000000
1702.972741	206.000000
1704.821453	176.800000
1706.664418	217.000000
1708.510549	191.600000
1710.352719	197.600000
1712.198053	183.200000
1714.037647	201.400000
1715.878625	184.000000
1717.720986	188.800000
1719.559391	170.600000
1721.399179	189.800000
1723.236792	182.200000
1725.074009	198.000000
1726.909053	192.600000
1728.745480	187.600000
1730.579735	179.600000
1732.413596	179.200000
1734.247062	181.800000
1736.076582	188.000000
1737.909261	161.200000
1739.737996	199.000000
1741.569889	188.000000
1743.397839	177.000000
1745.225397	175.600000
1747.052564	173.800000
1748.879338	198.000000
1750.705722	182.400000
1752.528169	174.600000
1754.353770	197.000000
1756.175437	187.600000
1757.998486	208.000000
1759.819374	171.200000
1761.639872	187.400000
1763.461752	165.000000
1765.277932	180.200000
1767.097264	177.600000
1768.912669	173.400000
1770.731225	163.600000
1772.545855	191.800000
1774.360098	155.800000
1776.173955	157.200000
1777.987425	168.400000
1779.798741	192.800000
1781.611439	157.600000
1783.423750	178.600000
1785.232144	159.800000
1787.041919	175.800000
1788.847778	171.000000
1790.656784	192.800000
1792.461876	176.800000
1794.268348	179.400000
1796.074437	168.400000
1797.876616	217.800000
1799.681938	171.800000
1801.483352	201.000000
1803.286146	164.600000
1805.085035	163.000000
1806.885303	179.400000
1808.685191	197.200000
1810.482936	149.800000
1812.280301	161.000000
1814.077285	176.000000
1815.873889	166.800000
1817.668354	166.200000
1819.464199	157.000000
1821.254388	166.000000
1823.049474	157.400000
1824.838907	159.800000
1826.631478	171.400000
1828.421913	192.800000
1830.210213	135.400000
1832.001649	148.600000
1833.787440	173.200000
1835.574609	172.000000
1837.359647	149.800000
1839.147819	168.800000
1840.932105	150.200000
1842.714262	152.000000
1844.497797	156.400000
1846.279205	167.200000
1848.061990	161.800000
1849.840896	180.000000
1851.621180	178.400000
1853.399339	164.000000
1855.178875	175.800000
1856.956287	184.000000
1858.731575	185.800000
1860.508242	163.600000
1862.282786	189.200000
1864.058707	174.000000
1865.829009	180.600000
1867.602438	174.600000
1869.373747	189.600000
1871.144685	178.800000
1872.917000	187.600000
1874.683703	165.000000
1876.453530	194.400000
1878.219494	187.200000
1879.988582	209.800000
1881.753808	195.000000
1883.518666	162.000000
1885.284900	157.400000
1887.047276	182.600000
1888.809285	165.600000
1890.570927	164.800000
1892.332201	180.200000
1894.093109	177.400000
1895.853649	184.400000
1897.612080	183.400000
1899.370146	160.200000
1901.126104	146.800000
1902.883438	153.400000
1904.640406	159.800000
1906.395269	177.000000
1908.148026	194.800000
1909.900420	163.400000
1911.654190	166.600000
1913.405856	149.800000
1915.155419	194.800000
1916.906359	124.000000
1918.656935	162.800000
1920.403673	165.400000
1922.151786	180.800000
1923.897800	160.800000
1925.645190	161.600000
1927.390481	154.000000
1929.133675	158.200000
1930.878245	140.400000
1932.620718	152.200000
1934.362831	152.000000
1936.104585	160.400000
1937.845978	130.400000
1939.585278	164.800000
1941.324219	173.200000
1943.062801	162.400000
1944.799291	176.600000
1946.535424	174.300000
1948.272931	172.000000
1950.006617	168.000000
1951.741677	187.400000
1953.474648	157.000000
1955.207263	176.200000
1956.939521	200.600000
1958.671423	167.400000
1960.401239	144.000000
1962.128971	159.200000
1963.858077	156.600000
1965.586827	169.200000
1967.313494	157.800000
1969.039807	178.400000
1970.767493	167.000000
1972.489643	161.400000
1974.214895	159.600000
1975.936339	143.000000
1977.660883	201.200000
1979.383348	142.800000
1981.102009	164.000000
1982.823769	157.000000
1984.541727	161.400000
1986.261059	162.400000
1987.976590	162.200000
1989.696943	146.800000
1991.413496	167.800000
1993.126254	169.400000
1994.842107	162.400000
1996.555888	154.000000
1998.269318	153.000000
1999.980678	177.000000
2001.693411	156.400000
2003.402352	144.800000
2005.114387	187.800000
2006.820912	161.000000
2008.530530	173.000000
2010.238080	160.800000
2011.945283	162.400000
2013.650420	152.400000
2015.355210	163.800000
2017.061372	153.200000
2018.763752	189.400000
2020.467504	163.000000
2022.169193	139.800000
2023.870536	170.400000
2025.571534	141.200000
2027.270472	170.200000
2028.970781	159.000000
2030.667314	147.600000
2032.365219	159.200000
2034.061066	153.000000
2035.759998	181.200000
2037.453444	150.600000
2039.148261	164.400000
2040.842735	153.000000
2042.533441	168.800000
2044.227231	135.000000
2045.917254	156.600000
2047.608648	160.600000
2049.297989	142.600000
2050.988700	162.200000
2052.675649	155.800000
2054.362257	135.600000
2056.050236	146.200000
2057.734455	154.000000
2059.420044	167.800000
2061.105294	151.000000
2062.788496	174.600000
2064.473068	167.600000
2066.152176	176.200000
2067.836070	151.600000
2069.514504	137.800000
2071.196015	137.200000
2072.873774	143.200000
2074.551197	167.800000
2076.229989	150.600000
2077.906738	140.600000
2079.581446	168.600000
2081.257523	171.400000
2082.931560	157.200000
2084.605261	134.200000
2086.278627	169.200000
2087.949955	131.600000
2089.620948	121.600000
2091.291607	154.200000
2092.961932	180.400000
2094.631922	146.200000
2096.299877	147.800000
2097.967499	149.600000
2099.633087	149.800000
2101.300043	143.800000
2102.964966	182.400000
2104.629556	150.600000
2106.292115	151.800000
2107.956043	164.200000
2109.617939	170.400000
2111.279504	141.200000
2112.940739	142.200000
2114.599944	167.400000
2116.258820	160.800000
2117.917365	142.000000
2119.575581	160.200000
2121.230074	147.600000
2122.887631	157.800000
2124.544858	169.200000
2126.198365	162.600000
2127.853239	159.000000
2129.504394	153.200000
2131.158612	171.000000
2132.809112	134.800000
2134.460980	149.600000
2136.107439	158.000000
2137.758652	144.000000
2139.406153	154.000000
2141.055020	158.800000
2142.701868	165.200000
2144.348391	127.400000
2145.994588	145.000000
2147.637076	151.400000
2149.282623	172.400000
2150.924463	137.000000
2152.569360	140.800000
2154.210552	149.800000
2155.851420	175.600000
2157.491965	138.400000
2159.130497	161.800000
2160.770395	177.800000
2162.406593	179.000000
2164.044157	146.000000
2165.681399	170.000000
2167.316631	142.000000
2168.951541	129.400000
2170.586130	152.800000
2172.220398	149.000000
2173.850972	124.400000
2175.484597	148.400000
2177.114531	156.800000
2178.745830	153.200000
2180.375125	153.000000
2182.004099	165.800000
2183.632755	147.800000
2185.261091	153.400000
2186.887424	128.800000
2188.513439	155.800000
2190.137453	134.600000
2191.762832	128.600000
2193.386210	143.200000
2195.010953	156.000000
2196.632014	147.000000
2198.252760	145.800000
2199.874869	145.400000
2201.494981	137.800000
2203.113097	149.000000
2204.730897	137.800000
2206.348381	158.400000
2207.965550	150.600000
2209.582404	135.400000
2211.198943	156.400000
2212.813488	155.800000
2214.426042	152.400000
2216.039959	181.800000
2217.651884	163.800000
2219.265174	145.400000
2220.876472	134.000000
2222.485782	162.200000
2224.096454	164.800000
2225.705138	161.600000
2227.313510	141.400000
2228.919894	139.000000
2230.527642	156.200000
2232.133403	122.400000
2233.738853	133.800000
2235.342319	142.600000
2236.947147	142.000000
2238.549991	149.600000
2240.150852	111.600000
2241.753076	164.600000
2243.353317	146.800000
2244.954922	137.600000
2246.552873	151.600000
2248.152187	124.800000
2249.749521	177.400000
2251.346547	151.400000
2252.944934	161.600000
2254.539673	159.800000
2256.132436	146.200000
2257.726560	132.000000
2259.322046	147.400000
2260.913888	150.000000
2262.505423	157.200000
2264.098319	137.400000
2265.685906	161.800000
2267.278190	133.000000
2268.865166	128.400000
2270.455171	139.200000
2272.039871	138.400000
2273.629265	158.200000
2275.213356	170.600000
2276.798809	115.000000
2278.382293	154.400000
2279.968802	120.400000
2281.551678	142.200000
2283.134250	125.600000
2284.716520	122.200000
2286.295159	147.000000
2287.876822	136.800000
2289.454858	123.600000
2291.035916	141.200000
2292.613347	136.600000
2294.188815	132.000000
2295.767305	117.400000
2297.342170	153.200000
2298.916735	143.200000
2300.491000	161.000000
2302.064964	138.200000
2303.638628	129.000000
2305.211991	150.600000
2306.781736	159.400000
2308.351182	146.600000
2309.923647	142.200000
2311.490837	139.400000
2313.061044	141.400000
2314.627637	143.400000
2316.195590	146.800000
2317.761588	119.600000
2319.327288	135.800000
2320.892690	140.800000
2322.456139	140.400000
2324.020947	128.200000
2325.582146	153.400000
2327.146360	138.400000
2328.705313	132.400000
2330.267279	137.400000
2331.827295	172.000000
2333.387015	148.000000
2334.944786	158.400000
2336.502263	127.000000
2338.059444	146.200000
2339.614679	123.200000
2341.169619	120.800000
2342.724266	139.200000
2344.278619	140.800000
2345.832678	139.200000
2347.386444	157.200000
2348.938265	146.400000
2350.488143	167.800000
2352.041029	133.000000
2353.588673	150.800000
2355.139324	146.400000
2356.686385	160.000000
2358.234803	138.800000
2359.782929	123.800000
2361.327468	140.400000
2362.873364	142.600000
2364.417321	140.000000
2365.962636	146.400000
2367.504366	110.800000
2369.047454	145.000000
2370.588605	136.600000
2372.129467	141.000000
2373.670040	129.200000
2375.210324	171.000000
2376.750319	138.200000
2378.286735	129.200000
2379.826153	142.800000
2381.361994	134.400000
2382.899191	138.800000
2384.432814	116.200000
2385.969436	128.200000
2387.504127	145.600000
2389.036889	139.800000
2390.569365	159.400000
2392.099912	145.600000
2393.633457	149.000000
2395.161791	138.000000
2396.691481	135.800000
2398.220886	145.400000
2399.750006	137.600000
2401.278840	151.400000
2402.802470	167.000000
2404.330735	153.800000
2405.853797	149.800000
2407.381494	127.400000
2408.902350	160.400000
2410.427840	127.600000
2411.949770	137.600000
2413.473054	141.800000
2414.994418	157.400000
2416.513862	123.600000
2418.034661	151.400000
2419.553541	137.800000
2421.072139	154.800000
2422.588820	141.600000
2424.106856	142.800000
2425.624610	147.200000
2427.138812	161.200000
2428.652734	167.400000
2430.166377	166.200000
2431.681373	168.400000
2433.192821	162.800000
2434.705624	147.600000
2436.216514	170.000000
2437.727124	156.200000
2439.235823	158.000000
2440.747509	174.400000
2442.255651	181.000000
2443.763514	157.000000
2445.271100	146.600000
2446.775146	169.400000
2448.282176	197.000000
2449.787298	180.000000
2451.292143	172.800000
2452.795081	171.600000
2454.297742	202.000000
2455.800127	176.600000
2457.300607	179.800000
2458.802440	158.400000
2460.302369	159.200000
2461.802022	182.600000
2463.301400	162.600000
2464.798875	177.200000
2466.294448	176.200000
2467.793001	169.800000
2469.288026	156.800000
2470.784403	165.800000
2472.277254	171.600000
2473.771457	145.600000
2475.265387	153.200000
2476.755794	151.400000
2478.249178	145.000000
2479.740663	169.600000
2481.230252	154.000000
2482.719570	144.600000
2484.206991	161.400000
2485.697388	137.000000
2487.184266	141.600000
2488.672496	137.800000
2490.157210	146.600000
2491.641653	148.000000
2493.127448	158.200000
2494.611350	140.000000
2496.096604	134.600000
2497.576724	157.600000
2499.059816	158.800000
2500.541018	137.200000
2502.021951	167.600000
2503.500995	149.200000
2504.979771	123.400000
2506.458278	156.400000
2507.936516	129.000000
2509.414486	140.600000
2510.888952	133.400000
2512.366386	130.800000
2513.840317	163.800000
2515.315599	138.800000
2516.790613	125.800000
2518.262126	115.800000
2519.734990	163.000000
2521.205971	138.800000
2522.678301	149.600000
2524.145519	142.400000
2525.615703	160.400000
2527.084005	129.000000
2528.552043	132.200000
2530.019816	130.200000
2531.487324	160.800000
2532.954567	126.200000
2534.418319	146.800000
2535.883420	126.800000
2537.346644	135.400000
2538.811217	152.400000
2540.272301	143.000000
2541.734736	102.400000
2543.196907	152.600000
2544.655591	115.800000
2546.118848	154.400000
2547.577008	133.000000
2549.036517	171.400000
2550.490933	132.800000
2551.949919	125.800000
2553.407032	123.800000
2554.862275	152.200000
2556.317257	114.600000
2557.770369	136.400000
2559.224830	109.400000
2560.677422	141.000000
2562.129754	151.800000
2563.580218	137.000000
2565.033638	124.400000
2566.481976	158.600000
2567.933270	137.600000
2569.382697	141.600000
2570.828653	142.400000
2572.277563	150.600000
2573.723002	124.600000
2575.169790	138.200000
2576.614714	155.600000
2578.059381	166.800000
2579.505395	138.400000
2580.947942	175.200000
2582.391837	149.600000
2583.832267	136.800000
2585.274045	148.400000
2586.713963	146.600000
2588.155228	149.600000
2589.593031	160.200000
2591.033784	150.000000
2592.469474	144.400000
2593.908114	171.400000
2595.344897	149.600000
2596.779823	139.400000
2598.217698	150.000000
2599.650515	143.800000
2601.084679	165.200000
2602.516988	118.600000
2603.950644	180.200000
2605.382447	134.600000
2606.813997	135.800000
2608.245293	144.600000
2609.674738	121.800000
2611.103930	163.000000
2612.531271	142.000000
2613.959959	150.800000
2615.388394	134.000000
2616.813383	138.400000
2618.239717	161.800000
2619.664203	133.200000
2621.090035	171.400000
2622.512423	135.800000
2623.936157	180.000000
2625.358045	154.800000
2626.779682	157.200000
2628.199474	161.400000
2629.620612	204.200000
2631.041500	182.600000
2632.458950	192.200000
2633.879339	188.600000
2635.296291	196.800000
2636.712995	205.400000
2638.129450	213.200000
2639.545657	218.000000
2640.961615	202.000000
2642.375733	180.800000
2643.789604	227.800000
2645.201635	257.000000
2646.615011	231.400000
2648.024957	259.600000
2649.437839	267.400000
2650.847292	228.000000
2652.256499	258.600000
2653.663870	248.800000
2655.074175	273.200000
2656.482644	283.000000
2657.889278	320.200000
2659.295667	321.400000
2660.700222	348.600000
2662.106121	352.200000
2663.510187	373.600000
2664.914009	417.200000
2666.317586	395.400000
2667.719331	434.000000
2669.122420	458.600000
2670.522092	475.200000
2671.923107	527.800000
2673.320705	546.400000
2674.721234	583.800000
2676.118348	597.000000
2677.516805	650.200000
2678.913434	699.000000
2680.309822	744.400000
2681.705967	738.600000
2683.100286	757.800000
2684.495948	785.400000
2685.888200	809.600000
2687.281796	791.600000
2688.673567	848.200000
2690.066680	791.800000
2691.457970	775.600000
2692.847437	743.200000
2694.236665	783.000000
2695.625652	715.000000
2697.015982	714.400000
2698.401327	673.200000
2699.789597	629.800000
2701.176046	603.000000
2702.562256	569.800000
2703.948227	535.000000
2705.330800	520.200000
2706.714714	506.000000
2708.098391	455.400000
2709.481830	451.200000
2710.861873	447.400000
2712.243258	413.200000
2713.622827	389.600000
2715.003738	341.400000
2716.382834	337.800000
2717.760115	312.200000
2719.138738	356.400000
2720.515548	297.800000
2721.892122	287.600000
2723.268460	256.200000
2724.642986	269.200000
2726.018853	253.000000
2727.391333	262.400000
2728.766730	251.400000
2730.137165	242.400000
2731.508942	211.400000
2732.880485	262.600000
2734.250219	207.600000
2735.621293	192.800000
2736.990560	196.200000
2738.359593	180.400000
2739.726819	173.800000
2741.093813	197.000000
2742.460574	162.200000
2743.827102	200.400000
2745.191826	159.600000
2746.556317	204.600000
2747.920576	162.600000
2749.284604	172.600000
2750.648399	135.600000
2752.008821	149.400000
2753.372154	149.400000
2754.730544	158.200000
2756.091844	155.400000
2757.449773	161.400000
2758.810612	148.600000
2760.169650	129.800000
2761.525320	108.600000
2762.883899	139.600000
2764.239110	152.400000
2765.594092	150.200000
2766.947277	172.400000
2768.303369	153.200000
2769.656097	124.600000
2771.008596	154.800000
2772.360867	128.200000
2773.714477	122.600000
2775.064725	121.000000
2776.413180	111.600000
2777.764539	113.000000
2779.112539	119.400000
2780.461878	101.400000
2781.809424	147.600000
2783.156743	124.000000
2784.503836	103.000000
2785.849138	127.600000
2787.194214	136.400000
2788.539064	141.200000
2789.883688	147.200000
2791.224959	114.400000
2792.567569	141.800000
2793.909954	133.800000
2795.252113	138.400000
2796.590923	125.600000
2797.932633	155.200000
2799.270994	98.000000
2800.610693	138.000000
2801.948606	143.800000
2803.284735	124.000000
2804.620641	136.600000
2805.957883	139.800000
2807.293342	132.000000
2808.628578	145.600000
2809.962032	102.200000
2811.296822	137.400000
2812.628271	122.600000
2813.962616	123.600000
2815.292063	118.800000
2816.622847	145.600000
2817.953409	161.800000
2819.282192	125.600000
2820.612312	120.800000
2821.940652	89.400000
2823.268772	107.400000
2824.595115	157.600000
2825.922793	118.200000
2827.247139	120.200000
2828.572820	114.800000
2829.896727	135.600000
2831.220413	104.600000
2832.545435	138.400000
2833.867128	137.400000
2835.188601	108.800000
2836.509856	123.600000
2837.830892	135.800000
2839.150156	140.400000
2840.470755	112.600000
2841.789582	106.600000
2843.108191	116.600000
2844.425030	121.400000
2845.741651	101.800000
2847.058054	121.800000
2848.372689	110.000000
2849.688658	121.600000
2851.001307	130.000000
2852.315292	109.800000
2853.629060	110.400000
2854.942611	102.800000
2856.254395	106.400000
2857.564414	102.400000
2858.875767	111.800000
2860.183804	96.800000
2861.493177	108.000000
2862.802334	97.000000
2864.111276	112.600000
2865.418455	99.600000
2866.723870	115.600000
2868.030620	121.600000
2869.335607	105.000000
2870.640381	124.800000
2871.943393	123.000000
2873.249287	103.600000
2874.550326	102.000000
2875.852698	106.000000
2877.153311	125.800000
2878.455258	109.000000
2879.756992	99.000000
2881.055422	108.600000
2882.355185	96.400000
2883.653191	110.800000
2884.950985	101.400000
2886.247022	112.400000
2887.544393	120.600000
2888.840008	106.000000
2890.135413	100.000000
2891.430606	125.200000
2892.722501	81.800000
2894.017273	112.800000
2895.308749	121.400000
2896.601557	106.200000
2897.894155	98.200000
2899.183458	112.400000
2900.474094	123.000000
2901.762980	99.000000
2903.053197	109.600000
2904.340123	81.000000
2905.628381	100.200000
2906.914890	95.000000
2908.201190	101.000000
2909.487282	93.600000
2910.771626	79.400000
2912.058842	117.000000
2913.341231	143.600000
2914.624952	108.000000
2915.906926	97.000000
2917.188694	108.600000
2918.468716	121.200000
2919.751608	105.000000
2921.032755	117.800000
2922.310620	104.400000
2923.591354	104.600000
2924.868807	101.200000
2926.146055	113.800000
2927.421560	99.000000
2928.699933	91.200000
2929.973491	110.800000
2931.249917	110.800000
2932.524602	92.800000
2933.797547	122.800000
2935.071822	73.800000
2936.344358	87.200000
2937.616690	125.400000
2938.885749	106.000000
2940.157673	97.600000
2941.427859	102.800000
2942.697841	73.000000
2943.967620	114.400000
2945.235662	100.600000
2946.501969	102.800000
2947.768073	95.600000
2949.035508	135.200000
2950.301207	86.000000
2951.566704	92.800000
2952.831999	88.200000
2954.094030	87.400000
2955.357390	86.400000
2956.620549	97.200000
2957.881975	99.000000
2959.144731	120.200000
2960.405756	85.200000
2961.665050	102.000000
2962.924143	119.800000
2964.183036	112.000000
2965.441729	87.000000
2966.700222	108.200000
2967.956986	93.600000
2969.213551	105.400000
2970.468387	79.800000
2971.724553	133.600000
2972.977463	85.000000
2974.231703	83.800000
2975.485744	121.600000
2976.738059	81.400000
2977.990176	73.600000
2979.240568	100.800000
2980.493815	81.800000
2981.742285	100.600000
2982.993609	95.200000
2984.241685	99.400000
2985.489563	94.800000
2986.737244	104.600000
2987.984729	87.200000
2989.230492	88.600000
2990.476058	81.200000
2991.722953	100.400000
2992.966602	95.000000
2994.211580	92.000000
2995.453315	94.000000
2996.697901	93.600000
2997.940768	88.400000
2999.180393	108.000000
3000.422870	90.800000
3001.662106	86.000000
3002.902670	96.800000
3004.141517	110.000000
3005.380170	57.800000
3006.617107	87.200000
3007.855371	62.800000
3009.091921	112.200000
3010.328277	100.000000
3011.564439	119.600000
3012.798887	77.800000
3014.033142	85.800000
3015.267204	90.200000
3016.499554	105.000000
3017.730192	106.600000
3018.963676	103.600000
3020.195449	90.400000
3021.425510	116.000000
3022.655380	103.600000
3023.883540	107.400000
3025.113027	86.800000
3026.340804	102.000000
3027.568390	100.400000
3028.797302	112.400000
3030.021472	61.600000
3031.248485	100.000000
3032.472275	93.000000
3033.697390	94.400000
3034.920799	87.600000
3036.144019	88.400000
3037.365533	96.400000
3038.589888	88.000000
3039.809508	78.000000
3041.030454	80.600000
3042.251210	87.800000
3043.470263	109.600000
3044.690642	69.600000
3045.907804	80.600000
3047.126291	94.600000
3048.343077	89.000000
3049.559674	86.000000
3050.776084	98.200000
3051.989280	106.800000
3053.205314	90.400000
3054.418136	86.600000
3055.633795	66.800000
3056.844731	91.200000
3058.056993	79.600000
3059.269067	73.800000
3060.480955	94.400000
3061.691145	78.800000
3062.901150	105.400000
3064.110968	99.600000
3065.319090	75.200000
3066.527026	75.200000
3067.733268	95.400000
3068.940834	72.200000
3070.146705	80.200000
3071.352391	88.200000
3072.557893	100.000000
3073.761701	95.000000
3074.966833	81.000000
3076.170272	97.800000
3077.372019	61.600000
3078.573583	95.000000
3079.774963	102.800000
3080.976159	87.600000
3082.175665	125.600000
3083.374987	90.000000
3084.575633	75.400000
3085.774590	99.400000
3086.970351	79.200000
3088.168942	104.400000
3089.364339	77.200000
3090.561060	88.800000
3091.754588	101.600000
3092.950944	108.600000
3094.145613	88.600000
3095.337092	77.000000
3096.532902	99.200000
3097.724019	64.400000
3098.916459	98.600000
3100.105710	82.600000
3101.297788	80.000000
3102.488182	76.600000
3103.675389	77.800000
3104.863920	66.400000
3106.053773	77.800000
3107.240441	98.000000
3108.426930	68.600000
3109.613239	72.400000
3110.800871	81.000000
3111.985320	85.400000
3113.168089	86.000000
3114.353682	84.200000
3115.537594	69.400000
3116.719828	104.400000
3117.901884	79.200000
3119.083761	100.600000
3120.265460	87.800000
3121.445482	91.800000
3122.623826	99.400000
3123.804992	106.600000
3124.982982	92.800000
3126.160795	73.000000
3127.338431	103.600000
3128.514392	85.200000
3129.690177	96.400000
3130.867282	92.800000
3132.042714	81.600000
3133.216472	72.600000
3134.388557	83.800000
3135.561963	96.600000
3136.735194	77.000000
3137.906752	92.000000
3139.079632	78.400000
3140.249344	82.400000
3141.420377	86.000000
3142.589739	94.800000
3143.757432	73.000000
3144.927940	86.800000
3146.093789	82.600000
3147.263948	60.600000
3148.429449	61.600000
3149.594777	91.200000
3150.759931	81.000000
3151.924912	76.400000
3153.091212	110.600000
3154.252859	71.200000
3155.415827	73.400000
3156.578621	103.600000
3157.741243	77.600000
3158.902200	93.800000
3160.062984	62.600000
3161.223597	76.200000
3162.382545	104.800000
3163.541321	67.000000
3164.699926	87.800000
3165.858359	119.400000
3167.016620	80.800000
3168.173219	70.800000
3169.328157	64.600000
3170.484414	92.400000
3171.639011	88.600000
3172.793436	84.000000
3173.946202	108.000000
3175.098798	66.200000
3176.251224	89.600000
3177.403479	67.600000
3178.555565	84.600000
3179.704504	52.600000
3180.856250	106.200000
3182.006339	103.000000
3183.154770	92.800000
3184.303033	65.600000
3185.451127	76.600000
3186.599052	70.600000
3187.745321	101.000000
3188.891422	95.600000
3190.035869	84.400000
3191.180147	73.800000
3192.324258	78.600000
3193.469687	85.000000
3194.611977	69.600000
3195.754099	64.000000
3196.896055	77.000000
3198.037843	59.000000
3199.179464	87.200000
3200.317949	78.400000
3201.457753	82.000000
3202.598873	52.800000
3203.736859	91.200000
3204.873196	81.400000
3206.009367	72.600000
3207.146856	72.800000
3208.282696	55.000000
3209.419852	79.000000
3210.552397	81.600000
3211.689222	85.400000
3212.821436	71.400000
3213.954968	70.600000
3215.088334	78.600000
3216.218573	72.800000
3217.351611	99.400000
3218.481521	83.800000
3219.612749	80.200000
3220.740851	78.200000
3221.871751	75.600000
3223.001006	92.600000
3224.128617	68.400000
3225.253107	74.600000
3226.381872	101.800000
3227.507515	80.000000
3228.632995	79.600000
3229.756834	87.800000
3230.883468	83.800000
3232.005503	78.800000
3233.128855	81.200000
3234.252045	102.400000
3235.375073	95.600000
3236.496461	91.200000
3237.617688	82.800000
3238.737276	82.200000
3239.856703	101.200000
3240.974493	81.000000
3242.095074	109.600000
3243.212542	76.000000
3244.329849	88.200000
3245.446995	82.800000
3246.562506	102.200000
3247.679332	83.200000
3248.793047	84.200000
3249.909553	69.800000
3251.024423	97.200000
3252.136185	100.800000
3253.247788	77.800000
3254.360706	66.800000
3255.473464	74.600000
3256.583116	76.400000
3257.694083	106.200000
3258.804891	72.200000
3259.914067	72.800000
3261.021612	63.200000
3262.130472	76.400000
3263.239173	55.800000
3264.344772	73.600000
3265.451686	67.400000
3266.556970	66.600000
3267.663568	41.600000
3268.767066	61.200000
3269.871878	104.000000
3270.976533	86.200000
3272.078090	76.600000
3273.179490	70.200000
3274.282204	88.800000
3275.384761	62.800000
3276.484223	85.800000
3277.586467	73.600000
3278.685617	63.200000
3279.783141	96.200000
3280.880510	65.800000
3281.980662	73.800000
3283.077720	71.200000
3284.174624	69.600000
3285.271372	64.200000
3286.363561	73.800000
3287.460000	73.800000
3288.554816	80.000000
3289.649477	74.600000
3290.742517	68.800000
3291.835403	62.800000
3292.926668	83.800000
3294.019246	50.200000
3295.110204	79.000000
3296.199542	66.600000
3297.288727	85.400000
3298.379224	58.600000
3299.466637	70.200000
3300.553898	58.000000
3301.642471	83.200000
3302.730891	53.600000
3303.814764	73.600000
3304.902879	68.200000
3305.987913	75.800000
3307.071331	70.600000
3308.156061	69.800000
3309.239175	75.200000
3310.323601	51.800000
3311.404949	61.800000
3312.487609	85.400000
3313.568655	57.200000
3314.649550	62.200000
3315.728832	73.200000
3316.807963	63.200000
3317.888406	63.800000
3318.965774	78.600000
3320.044454	34.800000
3321.121522	73.600000
3322.198440	80.800000
3323.273748	82.000000
3324.348906	77.400000
3325.425375	76.200000
3326.498773	68.600000
3327.572023	90.400000
3328.646584	57.400000
3329.719535	50.200000
3330.790879	60.600000
3331.863533	96.400000
3332.933120	77.400000
3334.004018	49.200000
3335.073309	67.600000
3336.143911	47.400000
3337.212906	65.800000
3338.280295	78.400000
3339.346079	68.600000
3340.416089	61.200000
3341.483036	32.000000
3342.546921	105.800000
3343.613574	53.600000
3344.678623	77.000000
3345.742068	60.200000
3346.805366	79.200000
3347.868519	65.000000
3348.931525	82.200000
3349.994384	50.200000
3351.055642	51.800000
3352.113843	47.600000
3353.176265	69.200000
3354.235630	65.000000
3355.294851	89.800000
3356.355380	63.600000
3357.411400	57.800000
3358.470185	64.000000
3359.524462	82.400000
3360.581503	94.600000
3361.636945	82.400000
3362.693696	66.800000
3363.748850	67.000000
3364.802406	57.200000
3365.854365	88.000000
3366.909086	78.800000
3367.960759	54.200000
3369.012287	46.800000
3370.065125	69.600000
3371.114915	52.000000
3372.166014	77.600000
3373.214066	63.400000
3374.264879	50.400000
3375.312646	50.200000
3376.360271	78.200000
3377.407754	63.600000
3378.453643	55.000000
3379.500842	61.200000
3380.544997	35.200000
3381.591911	65.800000
3382.637233	51.600000
3383.679515	46.000000
3384.721655	60.400000
3385.765104	66.800000
3386.808411	64.800000
3387.850128	34.000000
3388.891704	66.000000
3389.933140	41.400000
3390.972987	58.200000
3392.011245	49.600000
3393.050811	43.600000
3394.090237	42.200000
3395.128075	77.200000
3396.164326	39.000000
3397.200437	43.200000
3398.237856	49.400000
3399.272242	62.000000
3400.307936	75.600000
3401.343490	72.400000
3402.376012	63.400000
3403.411288	69.200000
3404.443533	58.800000
3405.475640	56.000000
3406.506163	75.200000
3407.537994	73.400000
3408.569686	50.400000
3409.598350	86.000000
3410.626877	56.400000
3411.656710	69.600000
3412.686406	44.200000
3413.713075	62.200000
3414.741052	67.200000
3415.766004	67.000000
3416.793706	61.200000
3417.818385	40.400000
3418.844370	59.000000
3419.868776	52.200000
3420.893044	43.000000
3421.915734	75.400000
3422.938289	44.000000
3423.962148	61.000000
3424.982989	30.200000
3426.003693	63.600000
3427.025703	61.200000
3428.044695	65.000000
3429.063552	46.800000
3430.083715	81.400000
3431.100860	57.200000
