-117.841134	2.900000
-115.171534	1.230000
-112.504869	2.840000
-109.838956	5.220000
-107.175976	-0.680000
-104.511565	-3.600000
-101.850085	-6.480000
-99.187176	1.220000
-96.529373	0.490000
-93.870141	0.490000
-91.211657	2.710000
-88.556098	3.130000
-85.899109	5.700000
-83.247219	5.050000
-80.593899	-0.860000
-77.943498	2.170000
-75.291669	2.890000
-72.644930	3.270000
-69.996761	-2.350000
-67.349335	0.510000
-64.704824	-0.290000
-62.058883	2.030000
-59.418024	2.190000
-56.775736	1.460000
-54.136357	3.430000
-51.495548	0.550000
-48.855480	4.380000
-46.220485	1.070000
-43.584060	-1.490000
-40.950538	7.050000
-38.315588	1.100000
-35.685703	3.200000
-33.052226	0.200000
-30.423811	1.010000
-27.796130	1.840000
-25.167020	9.190000
-22.542967	5.600000
-19.915325	8.160000
-17.292737	8.050000
-14.670879	16.160000
-12.049752	24.910000
-9.429356	63.630000
-6.811847	231.470000
-4.192910	784.870000
-1.576858	2199.150000
1.038465	3421.020000
3.653060	1493.950000
6.264774	135.910000
8.877916	25.930000
11.486024	11.990000
14.097713	11.370000
16.704373	7.000000
19.312460	0.040000
21.919823	6.000000
24.522161	4.940000
27.128077	5.340000
29.728971	4.870000
32.331293	-2.260000
34.928597	-0.280000
37.529478	2.530000
40.125343	1.830000
42.722637	3.350000
45.319211	1.760000
47.910776	4.890000
50.503769	1.900000
53.093901	2.190000
55.685460	1.770000
58.274161	2.480000
60.864288	-1.070000
63.449416	1.450000
66.035972	-1.600000
68.621814	4.910000
71.204802	0.390000
73.789216	1.500000
76.366502	3.860000
78.947354	-0.180000
81.525357	1.990000
84.102650	3.650000
86.681369	-3.620000
89.255106	0.630000
91.830271	-1.270000
94.402592	3.650000
96.974205	-2.740000
99.542978	1.100000
102.113178	1.740000
104.680539	-1.490000
107.249327	2.300000
109.815278	5.600000
112.378394	-2.710000
114.945066	6.790000
117.502516	0.850000
120.065653	6.310000
122.623829	4.590000
125.185560	10.290000
127.742334	18.430000
130.300534	25.770000
132.853782	25.560000
135.406332	44.200000
137.962432	56.140000
140.513584	79.620000
143.064039	85.170000
145.613796	94.370000
148.160734	105.990000
150.706977	108.220000
153.254645	119.780000
155.801617	117.960000
158.343654	113.780000
160.884997	114.920000
163.425647	113.690000
165.967723	115.530000
168.506987	110.070000
171.043442	112.300000
173.579207	110.680000
176.116397	115.490000
178.652896	112.210000
181.186589	112.250000
183.717478	107.550000
186.247679	103.430000
188.779306	109.220000
191.308131	102.660000
193.834157	111.480000
196.359497	110.710000
198.886262	106.180000
201.410231	108.900000
203.933515	104.520000
206.456113	103.880000
208.975919	110.180000
211.495042	105.320000
214.013483	103.370000
216.533347	113.230000
219.046210	112.580000
221.562604	112.920000
224.078316	109.900000
226.589138	107.280000
229.101385	106.480000
231.610849	116.730000
234.119635	109.140000
236.627743	109.480000
239.137275	114.770000
241.641926	107.410000
244.145901	117.420000
246.651300	117.940000
249.151824	117.740000
251.655871	121.400000
254.152948	119.030000
256.653548	116.650000
259.151376	115.520000
261.648531	116.510000
264.145013	121.330000
266.636632	120.990000
269.131771	117.120000
271.624143	121.140000
274.115845	122.530000
276.604784	117.620000
279.095146	119.060000
281.582747	122.150000
284.067588	119.190000
286.555944	126.860000
289.037360	120.670000
291.522290	122.650000
294.002375	122.850000
296.485972	124.960000
298.964726	128.930000
301.444903	127.480000
303.922329	129.660000
306.399091	127.810000
308.875189	128.240000
311.348540	134.160000
313.821228	139.030000
316.293255	146.070000
318.764621	157.530000
321.233242	174.240000
323.701204	169.460000
326.170589	156.300000
328.635151	142.730000
331.103217	134.770000
333.566463	133.130000
336.029051	136.590000
338.490983	131.620000
340.952258	135.110000
343.410798	128.070000
345.870762	124.650000
348.327992	128.320000
350.784568	129.440000
353.240490	131.310000
355.693682	126.020000
358.148297	133.030000
360.598110	128.630000
363.051419	131.270000
365.499929	131.230000
367.947789	132.010000
370.397071	132.700000
372.841559	134.720000
375.287469	131.820000
377.732729	127.540000
380.175271	126.320000
382.617165	127.980000
385.058412	134.200000
387.496943	127.380000
389.936895	136.550000
392.374134	127.560000
394.808662	129.930000
397.246677	125.570000
399.679915	128.480000
402.114574	129.620000
404.544461	129.560000
406.977833	127.150000
409.406435	132.370000
411.834395	124.840000
414.263777	132.770000
416.688393	123.880000
419.114431	127.630000
421.539828	132.410000
423.964585	129.420000
426.384584	129.580000
428.806003	132.560000
431.224727	128.130000
433.644871	133.290000
436.062320	132.390000
438.481189	125.010000
440.897365	130.930000
443.308793	131.980000
445.723698	127.670000
448.135914	129.820000
450.547495	126.230000
452.958442	124.730000
455.366703	129.480000
457.774331	127.500000
460.181327	126.800000
462.587692	124.580000
464.991374	122.070000
467.394426	118.330000
469.796848	122.840000
472.198640	123.320000
474.597754	113.750000
476.998288	123.870000
479.398193	121.460000
481.793376	124.000000
484.192025	119.520000
486.585953	122.540000
488.979256	123.100000
491.371934	122.930000
493.763986	114.810000
496.157456	117.220000
498.546214	108.670000
500.932306	112.080000
503.319818	112.180000
505.706707	115.670000
508.090932	115.850000
510.476575	122.220000
512.859557	143.480000
515.239878	163.530000
517.621618	181.860000
520.000699	184.960000
522.381198	177.530000
524.759041	157.840000
527.134227	139.890000
529.508797	127.040000
531.884784	117.870000
534.258119	108.320000
536.632871	101.840000
539.002937	99.350000
541.372389	93.710000
543.743258	96.240000
546.109446	89.560000
548.477053	90.310000
550.842015	84.370000
553.206363	90.100000
555.570098	79.910000
557.935251	89.890000
560.295732	78.320000
562.657631	79.730000
565.016889	75.700000
567.373509	75.130000
569.733575	79.690000
572.086949	74.510000
574.443768	74.690000
576.797952	81.530000
579.151527	72.280000
581.504495	75.460000
583.854830	77.160000
586.206583	69.040000
588.551659	77.530000
590.902198	73.710000
593.246065	70.320000
595.595393	76.610000
597.940072	70.860000
600.282127	67.290000
602.625599	71.340000
604.966448	73.190000
607.306694	71.650000
609.644320	67.890000
611.985381	74.050000
614.321805	75.710000
616.659645	69.400000
618.994868	76.360000
621.327475	69.370000
623.661498	72.640000
625.992907	69.790000
628.323718	66.450000
630.653931	67.500000
632.983547	70.760000
635.308539	60.800000
637.638973	65.990000
639.964786	66.440000
642.287991	66.840000
644.612613	61.350000
646.934629	63.310000
649.256051	58.000000
651.574870	59.140000
653.895106	61.100000
656.214748	56.940000
658.531789	60.110000
660.848238	65.640000
663.162089	59.990000
665.477356	56.890000
667.790026	59.040000
670.104111	62.720000
672.413596	63.850000
674.724497	64.290000
677.032805	57.560000
679.340525	56.230000
681.649659	61.430000
683.954201	60.340000
686.258157	59.440000
688.561527	60.440000
690.866311	54.250000
693.166508	57.030000
695.468121	55.490000
697.769148	51.960000
700.065594	58.030000
702.363455	54.280000
704.660732	58.320000
706.957426	60.650000
709.249544	49.360000
711.545073	58.090000
713.836028	55.800000
716.128398	55.490000
718.418193	55.730000
720.707407	58.960000
722.996042	54.850000
725.282104	60.420000
727.569581	58.410000
729.854486	58.050000
732.138814	58.450000
734.420573	63.870000
736.703746	56.320000
738.986342	56.240000
741.264382	57.400000
743.543837	59.500000
745.822715	54.420000
748.101019	56.420000
750.374773	56.110000
752.649940	58.140000
754.924534	54.970000
757.196569	53.570000
759.470017	61.530000
761.740907	58.340000
764.009241	54.960000
766.278988	57.780000
768.546180	57.050000
770.812803	59.710000
773.078855	59.290000
775.342356	63.900000
777.607270	55.620000
779.871614	56.750000
782.131429	63.340000
784.392656	65.590000
786.653316	61.560000
788.911430	63.660000
791.166999	57.140000
793.425959	61.630000
795.678419	58.670000
797.936247	61.710000
800.189556	61.280000
802.440325	63.330000
804.692506	60.600000
806.942148	61.250000
809.193202	56.940000
811.439746	59.460000
813.687701	58.720000
815.933122	60.760000
818.179954	55.040000
820.426225	52.420000
822.667991	57.840000
824.913141	55.920000
827.151818	56.100000
829.393877	58.630000
831.631438	53.530000
833.870411	57.120000
836.106857	52.220000
838.344714	53.070000
840.580046	52.880000
842.812855	55.640000
845.047074	52.180000
847.278772	50.100000
849.509915	48.880000
851.740503	51.210000
853.970537	50.060000
856.200017	49.620000
858.425015	48.360000
860.653388	50.550000
862.877281	45.800000
865.102586	51.390000
867.323415	50.850000
869.547616	56.250000
871.767344	49.990000
873.988482	54.970000
876.209070	50.470000
878.427149	54.760000
880.646637	52.480000
882.861659	54.010000
885.076133	53.740000
887.290060	57.850000
889.503440	53.510000
891.716272	59.690000
893.928558	55.860000
896.138341	49.030000
898.347579	45.010000
900.556272	48.160000
902.762465	54.330000
904.970069	51.190000
907.175174	56.600000
909.379736	54.200000
911.581803	53.450000
913.785279	49.700000
915.986261	50.350000
918.186701	58.080000
920.388550	54.910000
922.584008	57.510000
924.782825	51.810000
926.977203	53.600000
929.174939	55.920000
931.368239	56.490000
933.562948	63.150000
935.755171	60.800000
937.946855	59.230000
940.138002	61.080000
942.326666	63.260000
944.514794	61.710000
946.700441	66.850000
948.889440	60.270000
951.074016	69.410000
953.258057	64.450000
955.445448	63.250000
957.624535	69.100000
959.806973	70.830000
961.988877	65.810000
964.168306	70.660000
966.345263	70.360000
968.523628	68.300000
970.703400	74.750000
972.876823	73.480000
975.053592	77.060000
977.225954	78.160000
979.399724	76.310000
981.569090	73.760000
983.741800	78.090000
985.912045	74.070000
988.081760	78.260000
990.250948	72.730000
992.415738	73.390000
994.583869	75.200000
996.747605	71.900000
998.912749	76.410000
1001.075433	71.130000
1003.237592	71.830000
1005.397294	75.700000
1007.556471	71.630000
1009.717055	73.230000
1011.875184	74.290000
1014.032790	75.700000
1016.189872	73.920000
1018.346430	71.500000
1020.498609	73.190000
1022.652195	79.230000
1024.805259	74.940000
1026.955874	79.460000
1029.107896	75.550000
1031.255544	82.020000
1033.406524	79.430000
1035.553133	79.090000
1037.699223	78.870000
1039.844795	85.690000
1041.991772	82.910000
1044.132460	80.480000
1046.276478	84.010000
1048.418055	85.420000
1050.559115	78.020000
1052.701581	83.420000
1054.837766	85.990000
1056.977278	79.450000
1059.112435	80.160000
1061.250916	82.880000
1063.385043	86.700000
1065.518657	81.720000
1067.653675	81.740000
1069.784345	86.500000
1071.916419	79.830000
1074.046064	84.400000
1076.175197	75.530000
1078.303818	81.770000
1080.431928	79.000000
1082.557612	77.130000
1084.682786	74.240000
1086.809364	76.770000
1088.931604	75.590000
1091.055249	77.420000
1093.174559	72.310000
1095.299098	66.980000
1097.417393	66.430000
1099.537092	68.260000
1101.654372	67.720000
1103.771145	68.340000
1105.887413	63.910000
1108.001264	63.400000
1110.116520	65.980000
1112.227452	70.710000
1114.341697	66.390000
1116.451621	67.250000
1118.562949	62.500000
1120.673772	67.530000
1122.780279	63.340000
1124.890095	68.510000
1126.995598	60.630000
1129.102503	64.670000
1131.203193	59.020000
1133.309095	63.080000
1135.410688	57.510000
1137.513684	66.850000
1139.616179	60.970000
1141.712467	60.120000
1143.813962	61.840000
1145.911155	58.720000
1148.007850	58.070000
1150.104046	63.340000
1152.199744	56.820000
1154.294945	56.490000
1156.387749	54.710000
1158.481955	60.530000
1160.569970	54.980000
1162.663184	60.600000
1164.750209	52.800000
1166.840533	56.590000
1168.926569	55.480000
1171.015904	61.040000
1173.099057	58.310000
1175.183612	57.880000
1177.269569	55.320000
1179.351244	54.660000
1181.434320	54.850000
1183.515011	57.740000
1185.595211	55.760000
1187.674919	50.360000
1189.754136	54.340000
1191.830971	58.140000
1193.905424	53.180000
1195.983170	59.510000
1198.056646	58.850000
1200.131522	55.470000
1202.202131	55.360000
1204.274141	63.180000
1206.343775	47.780000
1208.414810	53.920000
1210.485358	53.020000
1212.551644	55.160000
1214.619331	54.430000
1216.684646	56.090000
1218.751361	51.170000
1220.813820	55.230000
1222.879564	49.090000
1224.941054	55.280000
1227.003945	43.280000
1229.064468	54.690000
1231.124507	46.370000
1233.184063	50.800000
1235.241255	50.650000
1237.297965	51.290000
1239.352311	54.930000
1241.409939	49.780000
1243.465203	50.360000
1245.516228	49.800000
1247.568652	51.740000
1249.620596	49.500000
1251.670182	49.640000
1253.719289	46.430000
1255.767917	44.970000
1257.816067	47.370000
1259.863739	40.920000
1261.907180	45.800000
1263.953897	45.100000
1265.998260	48.550000
1268.042147	46.930000
1270.083682	44.700000
1272.122868	45.560000
1274.165327	48.230000
1276.203563	42.860000
1278.243198	46.290000
1280.282358	47.750000
1282.317299	48.110000
1284.353639	47.060000
1286.387635	52.560000
1288.423028	47.760000
1290.454209	45.700000
1292.486787	51.450000
1294.518894	46.450000
1296.548660	46.590000
1298.579823	41.080000
1300.606780	49.080000
1302.635134	48.880000
1304.659283	46.080000
1306.686698	44.300000
1308.709910	46.540000
1310.734520	49.740000
1312.756796	47.980000
1314.780468	49.230000
1316.801808	45.920000
1318.822681	45.990000
1320.843086	43.290000
1322.859298	50.760000
1324.876907	46.070000
1326.892188	50.540000
1328.910728	42.580000
1330.925079	51.100000
1332.937103	44.360000
1334.952386	44.510000
1336.963483	46.080000
1338.975977	47.000000
1340.984288	45.180000
1342.995854	45.480000
1345.001382	47.700000
1347.010165	51.640000
1349.014770	51.610000
1351.022629	49.370000
1353.030026	48.270000
1355.031392	46.290000
1357.034154	51.050000
1359.036457	48.900000
1361.038300	48.910000
1363.039683	49.680000
1365.038753	46.370000
1367.037364	51.670000
1369.035516	40.950000
1371.033211	49.680000
1373.026743	50.890000
1375.021670	43.760000
1377.016141	45.830000
1379.010155	55.120000
1381.001862	50.830000
1382.993113	41.750000
1384.982059	49.220000
1386.972401	53.390000
1388.962287	46.250000
1390.949869	45.830000
1392.936998	46.720000
1394.921825	42.880000
1396.908047	45.560000
1398.891968	47.210000
1400.875437	45.930000
1402.858454	45.060000
1404.839173	50.270000
1406.821286	47.040000
1408.801103	44.600000
1410.780468	44.890000
1412.755695	46.840000
1414.734160	47.180000
1416.710332	46.990000
1418.686054	49.360000
1420.661328	46.480000
1422.634310	47.820000
1424.606844	50.760000
1426.578930	45.490000
1428.550569	48.410000
1430.518079	47.170000
1432.490663	45.870000
1434.455441	44.540000
1436.425292	47.160000
1438.391019	46.940000
1440.358138	48.100000
1442.322974	44.180000
1444.283690	46.240000
1446.249474	44.490000
1448.209303	39.250000
1450.170526	51.780000
1452.133140	45.190000
1454.091640	42.510000
1456.049698	40.210000
1458.007314	45.910000
1459.964487	46.090000
1461.919385	44.190000
1463.875676	49.230000
1465.829692	49.960000
1467.783267	46.910000
1469.734570	51.040000
1471.687265	46.620000
1473.637689	47.920000
1475.587674	44.970000
1477.537220	47.320000
1479.484497	46.460000
1481.429506	49.640000
1483.375908	48.190000
1485.321872	49.790000
1487.267399	48.370000
1489.210660	48.160000
1491.153486	44.500000
1493.094047	50.470000
1495.036001	45.990000
1496.975692	50.470000
1498.914948	48.720000
1500.853770	52.750000
1502.790332	51.450000
1504.728285	51.310000
1506.663979	47.310000
1508.599240	52.620000
1510.532244	43.990000
1512.464817	50.120000
1514.396956	46.570000
1516.328664	42.660000
1518.258119	48.840000
1520.188964	43.030000
1522.119377	40.250000
1524.045718	50.640000
1525.973449	51.040000
1527.898931	42.500000
1529.823983	47.180000
1531.748606	48.220000
1533.672799	45.680000
1535.594746	49.170000
1537.518083	52.820000
1539.439173	49.660000
1541.358019	52.460000
1543.278255	48.270000
1545.196248	48.970000
1547.113813	53.700000
1549.029138	54.090000
1550.945852	51.780000
1552.858511	61.710000
1554.774373	60.580000
1556.687997	58.660000
1558.599382	59.280000
1560.512157	48.170000
1562.420882	53.430000
1564.330996	51.080000
1566.240687	48.730000
1568.149955	51.420000
1570.056989	53.360000
1571.961790	57.410000
1573.867979	59.590000
1575.771938	55.970000
1577.675475	60.660000
1579.578592	59.410000
1581.479479	59.410000
1583.381755	69.100000
1585.281803	72.500000
1587.183238	68.580000
1589.080640	71.150000
1590.977623	66.830000
1592.874188	70.280000
1594.772140	73.260000
1596.664258	74.500000
1598.559570	72.850000
1600.454464	71.600000
1602.347136	70.380000
1604.239391	60.520000
1606.129427	61.810000
1608.019047	51.930000
1609.908252	55.880000
1611.797041	57.090000
1613.683614	51.950000
1615.571574	54.120000
1617.455517	48.160000
1619.340847	48.360000
1621.225764	49.770000
1623.108467	55.810000
1624.992557	40.790000
1626.872635	50.960000
1628.754101	51.660000
1630.633356	47.500000
1632.513997	50.200000
1634.388834	47.250000
1636.268652	48.280000
1638.144466	51.240000
1640.019869	46.440000
1641.896658	47.250000
1643.767651	46.750000
1645.641825	48.460000
1647.512000	48.180000
1649.385356	52.780000
1651.256509	44.730000
1653.125461	47.030000
1654.995797	46.910000
1656.862141	48.050000
1658.729870	44.660000
1660.595400	50.320000
1662.462316	47.480000
1664.325242	43.100000
1666.189555	44.460000
1668.051671	49.940000
1669.913382	43.060000
1671.776479	50.120000
1673.637380	43.450000
1675.496089	46.860000
1677.354394	38.790000
1679.214083	48.410000
1681.068006	40.520000
1682.925102	48.960000
1684.781794	47.000000
1686.634511	47.850000
1688.490399	46.240000
1690.342313	48.060000
1692.193826	42.040000
1694.044938	47.580000
1695.895649	48.700000
1697.745960	45.950000
1699.594087	47.140000
1701.443598	45.760000
1703.287359	45.980000
1705.136071	39.810000
1706.979036	43.290000
1708.825168	45.450000
1710.667337	46.610000
1712.512672	43.030000
1714.352266	44.700000
1716.193244	47.450000
1718.035605	45.680000
1719.874010	45.690000
1721.713798	46.410000
1723.551410	50.320000
1725.388628	49.560000
1727.223672	46.660000
1729.060099	45.250000
1730.894353	46.310000
1732.728214	48.040000
1734.561680	47.090000
1736.391200	46.110000
1738.223880	42.760000
1740.052615	40.330000
1741.884507	47.010000
1743.712457	43.500000
1745.540015	46.920000
1747.367182	46.780000
1749.193957	44.540000
1751.020340	44.730000
1752.842787	43.370000
1754.668389	47.700000
1756.490056	45.670000
1758.313104	47.560000
1760.133992	44.840000
1761.954491	45.630000
1763.776370	45.950000
1765.592550	46.860000
1767.411883	48.760000
1769.227287	51.480000
1771.045843	47.860000
1772.860473	47.490000
1774.674716	53.010000
1776.488573	47.250000
1778.302043	47.510000
1780.113360	40.870000
1781.926057	51.610000
1783.738369	49.010000
1785.546762	50.860000
1787.356537	52.380000
1789.162397	44.770000
1790.971402	49.500000
1792.776494	43.300000
1794.582967	45.650000
1796.389056	45.750000
1798.191234	47.120000
1799.996557	46.270000
1801.797971	43.070000
1803.600765	44.020000
1805.399653	46.510000
1807.199922	49.780000
1808.999809	44.120000
1810.797554	44.730000
1812.594919	41.840000
1814.391903	49.920000
1816.188508	47.760000
1817.982973	48.490000
1819.778817	43.810000
1821.569006	49.310000
1823.364092	48.590000
1825.153525	44.560000
1826.946096	47.880000
1828.736531	45.210000
1830.524832	40.130000
1832.316267	42.850000
1834.102058	44.830000
1835.889228	42.700000
1837.674266	45.090000
1839.462438	45.490000
1841.246724	44.250000
1843.028880	44.930000
1844.812416	43.690000
1846.593823	47.320000
1848.376609	45.190000
1850.155514	43.850000
1851.935798	43.470000
1853.713957	45.610000
1855.493494	41.100000
1857.270905	52.040000
1859.046194	47.240000
1860.822860	42.720000
1862.597404	48.330000
1864.373325	47.720000
1866.143627	41.940000
1867.917056	44.650000
1869.688365	45.520000
1871.459303	54.760000
1873.231619	44.690000
1874.998321	44.020000
1876.768148	37.990000
1878.534112	51.510000
1880.303200	43.020000
1882.068426	47.910000
1883.833284	47.470000
1885.599519	41.940000
1887.361895	46.270000
1889.123903	48.350000
1890.885545	45.160000
1892.646819	48.530000
1894.407727	41.740000
1896.168268	45.300000
1897.926699	44.980000
1899.684764	44.510000
1901.440722	41.060000
1903.198056	43.330000
1904.955025	39.950000
1906.709887	43.530000
1908.462645	41.930000
1910.215038	42.990000
1911.968808	39.050000
1913.720474	48.750000
1915.470038	42.400000
1917.220977	46.890000
1918.971553	45.490000
1920.718291	45.770000
1922.466404	39.590000
1924.212419	45.050000
1925.959808	42.010000
1927.705100	51.270000
1929.448294	43.670000
1931.192863	41.190000
1932.935336	47.620000
1934.677450	47.930000
1936.419203	42.060000
1938.160596	47.140000
1939.899896	44.150000
1941.638837	42.620000
1943.377419	42.510000
1945.113910	50.120000
1946.850043	48.665000
1948.587550	47.210000
1950.321235	48.430000
1952.056295	48.670000
1953.789266	43.040000
1955.521881	46.430000
1957.254140	44.730000
1958.986042	39.620000
1960.715858	47.790000
1962.443589	45.810000
1964.172695	48.870000
1965.901445	41.510000
1967.628113	42.070000
1969.354426	41.690000
1971.082112	43.940000
1972.804262	45.810000
1974.529513	47.880000
1976.250957	45.030000
1977.975501	48.250000
1979.697966	46.890000
1981.416628	45.940000
1983.138388	44.760000
1984.856346	47.760000
1986.575677	44.690000
1988.291209	45.980000
1990.011561	46.690000
1991.728115	44.180000
1993.440872	43.370000
1995.156725	46.130000
1996.870506	42.970000
1998.583937	44.430000
2000.295297	48.230000
2002.008029	45.880000
2003.716971	53.710000
2005.429005	47.270000
2007.135530	46.750000
2008.845148	45.480000
2010.552698	51.330000
2012.259901	46.040000
2013.965038	42.380000
2015.669829	42.910000
2017.375991	45.760000
2019.078371	50.900000
2020.782122	46.840000
2022.483811	45.120000
2024.185154	52.100000
2025.886153	46.590000
2027.585090	46.660000
2029.285399	46.500000
2030.981932	45.120000
2032.679837	44.410000
2034.375684	45.600000
2036.074616	48.770000
2037.768062	50.010000
2039.462879	47.220000
2041.157354	45.370000
2042.848060	47.690000
2044.541850	47.400000
2046.231873	49.060000
2047.923267	42.990000
2049.612608	47.120000
2051.303319	42.670000
2052.990267	47.850000
2054.676876	46.230000
2056.364854	43.430000
2058.049073	44.980000
2059.734663	46.970000
2061.419912	42.550000
2063.103114	46.680000
2064.787686	43.950000
2066.466794	39.830000
2068.150689	45.020000
2069.829122	41.180000
2071.510633	45.810000
2073.188392	41.500000
2074.865815	49.250000
2076.544607	39.110000
2078.221357	44.890000
2079.896064	44.450000
2081.572142	47.130000
2083.246178	38.960000
2084.919880	44.850000
2086.593246	43.950000
2088.264573	43.120000
2089.935566	49.630000
2091.606225	43.240000
2093.276550	40.250000
2094.946541	47.260000
2096.614496	46.390000
2098.282117	40.650000
2099.947705	46.510000
2101.614661	46.930000
2103.279584	46.790000
2104.944175	45.410000
2106.606734	44.320000
2108.270661	46.570000
2109.932557	43.470000
2111.594123	44.800000
2113.255357	47.810000
2114.914563	47.380000
2116.573438	45.990000
2118.231984	49.210000
2119.890199	42.640000
2121.544692	47.650000
2123.202249	42.630000
2124.859476	45.850000
2126.512983	51.410000
2128.167857	50.480000
2129.819012	44.300000
2131.473230	45.820000
2133.123730	45.100000
2134.775598	51.330000
2136.422057	41.780000
2138.073271	48.410000
2139.720771	47.150000
2141.369638	45.830000
2143.016486	47.860000
2144.663009	50.670000
2146.309206	49.750000
2147.951695	42.450000
2149.597241	46.510000
2151.239082	44.200000
2152.883979	45.160000
2154.525170	48.090000
2156.166038	45.270000
2157.806583	48.750000
2159.445115	42.470000
2161.085013	45.420000
2162.721211	46.730000
2164.358775	45.560000
2165.996017	43.980000
2167.631249	43.240000
2169.266159	42.450000
2170.900748	49.400000
2172.535016	41.430000
2174.165590	45.500000
2175.799216	47.430000
2177.429150	48.580000
2179.060449	39.580000
2180.689743	42.270000
2182.318718	42.330000
2183.947373	43.440000
2185.575709	38.930000
2187.202043	52.760000
2188.828057	44.740000
2190.452071	44.410000
2192.077450	44.000000
2193.700828	43.660000
2195.325571	41.510000
2196.946633	42.960000
2198.567378	42.570000
2200.189487	44.300000
2201.809599	51.550000
2203.427715	47.140000
2205.045515	44.080000
2206.663000	37.070000
2208.280169	45.640000
2209.897023	44.100000
2211.513561	51.580000
2213.128107	47.100000
2214.740660	41.530000
2216.354577	42.390000
2217.966503	39.340000
2219.579792	41.290000
2221.191091	49.290000
2222.800400	42.840000
2224.411073	40.510000
2226.019757	45.030000
2227.628128	42.470000
2229.234513	44.250000
2230.842260	45.670000
2232.448022	44.050000
2234.053472	40.260000
2235.656937	42.340000
2237.261765	35.540000
2238.864609	48.520000
2240.465470	43.470000
2242.067694	44.950000
2243.667936	42.050000
2245.269540	47.070000
2246.867491	45.340000
2248.466805	49.830000
2250.064139	41.000000
2251.661165	45.500000
2253.259553	37.990000
2254.854292	40.650000
2256.447054	43.630000
2258.041179	48.990000
2259.636665	43.270000
2261.228506	49.490000
2262.820041	48.920000
2264.412938	45.270000
2266.000525	45.150000
2267.592808	43.270000
2269.179785	43.700000
2270.769789	41.660000
2272.354489	42.520000
2273.943883	46.210000
2275.527974	46.060000
2277.113427	43.480000
2278.696911	43.980000
2280.283420	43.330000
2281.866296	46.160000
2283.448869	45.170000
2285.031138	43.520000
2286.609777	42.790000
2288.191441	47.730000
2289.769476	44.560000
2291.350534	43.700000
2292.927965	42.395000
2294.503433	41.090000
2296.081923	37.230000
2297.656789	43.260000
2299.231354	42.550000
2300.805618	41.950000
2302.379583	47.840000
2303.953246	44.100000
2305.526610	40.940000
2307.096355	41.980000
2308.665801	44.380000
2310.238265	42.990000
2311.805455	47.490000
2313.375663	38.040000
2314.942256	39.400000
2316.510209	40.170000
2318.076206	45.840000
2319.641906	41.300000
2321.207308	45.760000
2322.770757	36.750000
2324.335565	51.590000
2325.896765	54.860000
2327.460979	64.310000
2329.019931	63.060000
2330.581897	63.720000
2332.141913	52.620000
2333.701633	47.290000
2335.259405	45.510000
2336.816881	47.830000
2338.374063	44.720000
2339.929297	43.020000
2341.484238	42.950000
2343.038884	45.770000
2344.593237	40.300000
2346.147296	41.840000
2347.701062	39.710000
2349.252883	44.360000
2350.802762	36.990000
2352.355648	38.650000
2353.903291	39.310000
2355.453943	45.600000
2357.001003	43.840000
2358.549421	46.020000
2360.097548	45.610000
2361.642086	41.610000
2363.187982	39.480000
2364.731940	38.090000
2366.277254	43.520000
2367.818985	44.080000
2369.362072	36.820000
2370.903223	43.080000
2372.444085	44.940000
2373.984658	42.160000
2375.524942	42.030000
2377.064937	42.880000
2378.601354	40.270000
2380.140772	39.340000
2381.676612	45.150000
2383.213810	46.950000
2384.747432	43.860000
2386.284054	41.650000
2387.818746	48.380000
2389.351508	42.100000
2390.883983	44.280000
2392.414530	42.140000
2393.948075	40.180000
2395.476409	46.460000
2397.006099	45.870000
2398.535504	42.770000
2400.064624	38.180000
2401.593458	49.810000
2403.117088	44.200000
2404.645353	47.730000
2406.168416	46.630000
2407.696112	46.530000
2409.216969	40.240000
2410.742458	44.710000
2412.264388	41.760000
2413.787672	41.420000
2415.309036	48.060000
2416.828480	40.310000
2418.349279	40.930000
2419.868159	43.730000
2421.386758	40.260000
2422.903439	38.610000
2424.421474	45.200000
2425.939228	43.650000
2427.453430	44.770000
2428.967353	40.790000
2430.480995	38.520000
2431.995992	44.140000
2433.507440	42.050000
2435.020242	42.370000
2436.531132	41.080000
2438.041743	37.600000
2439.550442	44.030000
2441.062127	38.260000
2442.570269	43.460000
2444.078133	44.870000
2445.585718	44.040000
2447.089764	45.250000
2448.596794	42.500000
2450.101916	44.620000
2451.606761	40.780000
2453.109699	43.720000
2454.612361	41.120000
2456.114746	39.450000
2457.615226	39.800000
2459.117059	39.580000
2460.616987	45.630000
2462.116640	40.100000
2463.616018	42.560000
2465.113493	39.900000
2466.609066	43.830000
2468.107619	43.700000
2469.602644	40.890000
2471.099021	42.120000
2472.591872	39.230000
2474.086076	38.430000
2475.580006	42.850000
2477.070412	41.830000
2478.563796	39.990000
2480.055282	42.580000
2481.544871	43.320000
2483.034188	44.710000
2484.521609	39.940000
2486.012006	44.530000
2487.498885	44.570000
2488.987115	40.200000
2490.471828	36.050000
2491.956272	41.970000
2493.442066	42.490000
2494.925969	42.330000
2496.411222	34.270000
2497.891342	43.200000
2499.374435	36.800000
2500.855637	41.950000
2502.336570	39.400000
2503.815614	46.940000
2505.294389	35.240000
2506.772896	43.810000
2508.251135	41.840000
2509.729105	40.570000
2511.203570	44.690000
2512.681005	43.420000
2514.154936	40.240000
2515.630217	40.450000
2517.105231	41.370000
2518.576744	37.380000
2520.049608	42.390000
2521.520589	42.510000
2522.992920	35.050000
2524.460137	37.750000
2525.930321	42.400000
2527.398624	37.150000
2528.866662	36.530000
2530.334435	44.320000
2531.801943	36.640000
2533.269186	41.850000
2534.732937	40.990000
2536.198038	41.970000
2537.661262	39.560000
2539.125835	46.600000
2540.586920	46.550000
2542.049354	40.640000
2543.511525	37.270000
2544.970210	42.590000
2546.433466	38.940000
2547.891626	40.270000
2549.351136	35.920000
2550.805551	38.330000
2552.264537	40.650000
2553.721651	41.270000
2555.176893	46.020000
2556.631875	40.030000
2558.084988	39.220000
2559.539448	40.190000
2560.992040	35.370000
2562.444372	46.530000
2563.894837	39.440000
2565.348257	42.430000
2566.796595	34.320000
2568.247888	47.000000
2569.697316	37.360000
2571.143271	44.100000
2572.592181	34.790000
2574.037621	38.950000
2575.484408	40.160000
2576.929332	43.310000
2578.373999	38.330000
2579.820013	39.110000
2581.262561	36.940000
2582.706456	38.380000
2584.146885	40.430000
2585.588663	43.660000
2587.028581	37.660000
2588.469846	42.850000
2589.907649	45.180000
2591.348402	42.300000
2592.784093	37.670000
2594.222732	42.080000
2595.659515	42.060000
2597.094442	44.550000
2598.532316	39.540000
2599.965133	39.970000
2601.399297	41.180000
2602.831607	41.890000
2604.265263	40.680000
2605.697066	45.220000
2607.128615	41.550000
2608.559912	37.450000
2609.989356	35.990000
2611.418548	42.700000
2612.845890	40.760000
2614.274577	39.160000
2615.703013	46.210000
2617.128001	39.890000
2618.554336	40.130000
2619.978822	40.850000
2621.404654	37.090000
2622.827042	42.690000
2624.250776	42.910000
2625.672663	46.830000
2627.094300	42.010000
2628.514093	43.430000
2629.935231	38.610000
2631.356119	45.100000
2632.773568	43.820000
2634.193958	43.380000
2635.610910	40.380000
2637.027613	38.910000
2638.444068	39.270000
2639.860275	47.080000
2641.276234	36.120000
2642.690352	40.160000
2644.104222	41.920000
2645.516253	42.140000
2646.929629	43.820000
2648.339575	43.740000
2649.752457	41.980000
2651.161910	44.530000
2652.571117	41.390000
2653.978488	47.250000
2655.388793	42.610000
2656.797263	41.630000
2658.203897	40.850000
2659.610286	50.010000
2661.014841	45.070000
2662.420740	46.620000
2663.824806	53.560000
2665.228627	54.200000
2666.632204	50.190000
2668.033950	49.760000
2669.437039	52.220000
2670.836710	55.330000
2672.237725	49.060000
2673.635324	49.500000
2675.035852	56.810000
2676.432966	59.710000
2677.831423	55.870000
2679.228053	55.010000
2680.624440	56.090000
2682.020585	57.620000
2683.414904	59.620000
2684.810566	59.120000
2686.202819	59.370000
2687.596414	54.350000
2688.988185	59.650000
2690.381299	59.690000
2691.772589	59.430000
2693.162056	54.540000
2694.551283	54.020000
2695.940271	56.420000
2697.330600	54.720000
2698.715946	55.150000
2700.104215	51.870000
2701.490664	55.290000
2702.876874	55.550000
2704.262845	51.050000
2705.645418	52.310000
2707.029333	54.480000
2708.413010	53.340000
2709.796448	51.430000
2711.176491	45.730000
2712.557876	53.220000
2713.937446	42.980000
2715.318356	45.840000
2716.697452	45.520000
2718.074734	40.520000
2719.453357	45.960000
2720.830166	45.710000
2722.206740	47.470000
2723.583078	46.960000
2724.957604	38.940000
2726.333471	42.880000
2727.705952	44.550000
2729.081348	41.540000
2730.451784	43.840000
2731.823561	40.320000
2733.195103	40.770000
2734.564837	40.990000
2735.935911	35.170000
2737.305178	40.820000
2738.674211	42.660000
2740.041438	40.610000
2741.408431	36.420000
2742.775192	39.610000
2744.141720	38.580000
2745.506444	41.120000
2746.870935	33.650000
2748.235195	41.510000
2749.599222	34.830000
2750.963018	38.760000
2752.323440	35.420000
2753.686772	39.230000
2755.045162	42.660000
2756.406462	39.440000
2757.764392	36.960000
2759.125230	39.030000
2760.484268	38.890000
2761.839939	36.100000
2763.198517	38.140000
2764.553728	41.260000
2765.908710	39.720000
2767.261895	37.720000
2768.617987	38.180000
2769.970715	37.990000
2771.323215	37.210000
2772.675486	37.400000
2774.029095	32.120000
2775.379344	38.710000
2776.727798	31.970000
2778.079157	37.220000
2779.427158	43.160000
2780.776496	42.940000
2782.124042	35.820000
2783.471362	39.530000
2784.818455	34.430000
2786.163756	35.110000
2787.508832	39.540000
2788.853682	38.780000
2790.198306	38.680000
2791.539578	32.950000
2792.882187	37.840000
2794.224572	37.340000
2795.566731	35.470000
2796.905541	37.870000
2798.247251	31.590000
2799.585612	39.100000
2800.925311	33.080000
2802.263225	39.310000
2803.599353	34.860000
2804.935259	37.090000
2806.272502	36.100000
2807.607961	36.270000
2808.943197	33.900000
2810.276650	36.920000
2811.611440	36.650000
2812.942890	35.360000
2814.277235	41.760000
2815.606682	39.040000
2816.937465	36.800000
2818.268028	36.440000
2819.596811	36.080000
2820.926930	39.780000
2822.255271	35.850000
2823.583391	34.290000
2824.909733	30.930000
2826.237412	30.920000
2827.561757	40.560000
2828.887439	36.880000
2830.211345	33.320000
2831.535031	29.830000
2832.860053	34.070000
2834.181746	33.120000
2835.503220	35.740000
2836.824475	36.380000
2838.145511	35.500000
2839.464774	33.870000
2840.785373	30.170000
2842.104200	40.030000
2843.422810	31.770000
2844.739648	40.040000
2846.056269	33.590000
2847.372673	36.770000
2848.687307	29.110000
2850.003277	35.610000
2851.315926	31.040000
2852.629910	40.240000
2853.943678	34.540000
2855.257229	29.460000
2856.569014	34.700000
2857.879032	34.180000
2859.190385	33.670000
2860.498423	34.040000
2861.807795	32.120000
2863.116952	30.430000
2864.425895	32.500000
2865.733073	42.700000
2867.038489	34.850000
2868.345238	36.820000
2869.650226	34.180000
2870.954999	34.540000
2872.258012	40.650000
2873.563905	31.060000
2874.864944	32.130000
2876.167317	35.790000
2877.467930	33.080000
2878.769877	35.990000
2880.071610	35.160000
2881.370040	31.800000
2882.669803	35.820000
2883.967809	39.490000
2885.265603	32.330000
2886.561641	35.710000
2887.859012	36.980000
2889.154627	34.650000
2890.450031	39.290000
2891.745224	36.990000
2893.037120	33.970000
2894.331892	34.250000
2895.623367	32.870000
2896.916175	29.890000
2898.208773	36.830000
2899.498077	31.040000
2900.788713	37.320000
2902.077598	36.490000
2903.367815	31.060000
2904.654741	36.430000
2905.942999	37.770000
2907.229508	34.930000
2908.515808	34.720000
2909.801900	34.210000
2911.086245	39.520000
2912.373460	35.860000
2913.655849	29.600000
2914.939570	35.780000
2916.221545	36.260000
2917.503312	40.130000
2918.783334	31.170000
2920.066227	34.460000
2921.347374	31.050000
2922.625239	33.810000
2923.905973	33.590000
2925.183426	33.330000
2926.460673	36.610000
2927.736178	34.620000
2929.014551	34.900000
2930.288110	38.590000
2931.564536	32.970000
2932.839221	36.640000
2934.112165	33.270000
2935.386441	34.900000
2936.658977	28.940000
2937.931308	33.130000
2939.200367	36.500000
2940.472291	37.550000
2941.742477	33.740000
2943.012459	31.150000
2944.282238	31.670000
2945.550281	35.960000
2946.816587	35.760000
2948.082691	30.610000
2949.350126	32.650000
2950.615825	36.210000
2951.881323	31.740000
2953.146618	36.330000
2954.408648	34.770000
2955.672008	33.960000
2956.935167	32.180000
2958.196594	27.790000
2959.459350	28.360000
2960.720374	32.130000
2961.979668	31.610000
2963.238761	29.320000
2964.497655	34.250000
2965.756348	35.030000
2967.014841	30.450000
2968.271604	34.480000
2969.528169	26.420000
2970.783005	31.600000
2972.039171	29.810000
2973.292082	31.850000
2974.546321	31.940000
2975.800362	37.930000
2977.052677	28.080000
2978.304794	36.660000
2979.555186	35.980000
2980.808433	31.810000
2982.056903	29.430000
2983.308228	38.890000
2984.556303	29.740000
2985.804181	32.150000
2987.051863	30.790000
2988.299347	29.020000
2989.545110	35.050000
2990.790677	30.710000
2992.037571	31.930000
2993.281221	39.010000
2994.526199	30.420000
2995.767933	32.700000
2997.012519	32.380000
2998.255386	29.060000
2999.495012	32.560000
3000.737488	32.240000
3001.976724	29.750000
3003.217288	32.670000
3004.456135	35.980000
3005.694788	32.230000
3006.931725	26.160000
3008.169990	36.880000
3009.406539	33.760000
3010.642895	35.980000
3011.879057	26.700000
3013.113505	29.490000
3014.347760	32.790000
3015.581823	31.670000
3016.814172	32.950000
3018.044810	31.310000
3019.278294	30.960000
3020.510067	34.410000
3021.740129	33.540000
3022.969998	28.320000
3024.198158	30.180000
3025.427645	39.210000
3026.655422	29.610000
3027.883008	30.950000
3029.111920	28.960000
3030.336090	28.880000
3031.563104	26.990000
3032.786893	32.670000
3034.012009	27.060000
3035.235418	33.430000
3036.458637	31.460000
3037.680151	33.210000
3038.904506	30.950000
3040.124126	31.380000
3041.345072	30.120000
3042.565829	34.600000
3043.784882	34.930000
3045.005260	33.750000
3046.222422	26.560000
3047.440910	30.770000
3048.657695	27.940000
3049.874293	28.850000
3051.090702	34.440000
3052.303898	28.820000
3053.519933	28.760000
3054.732755	36.340000
3055.948413	31.300000
3057.159350	31.080000
3058.371611	28.890000
3059.583685	34.900000
3060.795573	28.850000
3062.005764	28.930000
3063.215768	26.860000
3064.425586	33.540000
3065.633708	35.610000
3066.841645	32.530000
3068.047886	29.900000
3069.255452	26.360000
3070.461323	28.200000
3071.667009	30.040000
3072.872511	28.350000
3074.076319	31.470000
3075.281451	34.720000
3076.484890	29.940000
3077.686638	30.140000
3078.888201	33.590000
3080.089581	26.980000
3081.290777	30.510000
3082.490283	31.190000
3083.689606	33.750000
3084.890252	26.620000
3086.089208	30.990000
3087.284970	29.480000
3088.483560	33.590000
3089.678958	28.970000
3090.875678	29.720000
3092.069206	32.710000
3093.265562	26.180000
3094.460231	29.330000
3095.651710	31.020000
3096.847521	29.060000
3098.038637	31.250000
3099.231077	25.240000
3100.420329	32.580000
3101.612406	32.230000
3102.802800	25.980000
3103.990008	27.860000
3105.178538	27.580000
3106.368391	26.310000
3107.555060	32.780000
3108.741548	28.190000
3109.927858	30.940000
3111.115489	30.580000
3112.299938	33.530000
3113.482708	27.520000
3114.668300	31.060000
3115.852213	33.190000
3117.034447	31.350000
3118.216502	30.410000
3119.398379	31.280000
3120.580078	27.880000
3121.760100	33.340000
3122.938445	29.490000
3124.119610	29.910000
3125.297600	24.470000
3126.475413	30.650000
3127.653049	27.330000
3128.829010	29.470000
3130.004795	28.030000
3131.181901	28.860000
3132.357332	31.320000
3133.531090	29.510000
3134.703175	31.940000
3135.876582	28.520000
3137.049812	35.470000
3138.221371	34.030000
3139.394250	28.670000
3140.563962	25.150000
3141.734995	26.190000
3142.904358	29.140000
3144.072050	27.000000
3145.242558	27.920000
3146.408408	28.740000
3147.578566	29.340000
3148.744068	27.660000
3149.909395	26.400000
3151.074549	27.260000
3152.239530	28.510000
3153.405830	26.130000
3154.567478	25.550000
3155.730445	28.970000
3156.893240	29.940000
3158.055862	23.120000
3159.216818	30.130000
3160.377603	23.910000
3161.538215	26.090000
3162.697163	25.290000
3163.855940	25.860000
3165.014544	31.020000
3166.172977	30.230000
3167.331239	22.270000
3168.487838	25.360000
3169.642776	25.580000
3170.799033	29.420000
3171.953629	21.330000
3173.108055	32.430000
3174.260821	26.990000
3175.413416	21.870000
3176.565842	27.210000
3177.718098	34.940000
3178.870183	28.860000
3180.019122	31.760000
3181.170869	28.630000
3182.320957	25.140000
3183.469389	27.500000
3184.617651	30.930000
3185.765745	25.740000
3186.913670	32.180000
3188.059939	24.790000
3189.206040	28.020000
3190.350487	25.280000
3191.494766	26.790000
3192.638877	30.800000
3193.784305	25.310000
3194.926595	30.180000
3196.068718	30.180000
3197.210673	24.920000
3198.352461	31.640000
3199.494082	29.740000
3200.632568	23.050000
3201.772371	26.770000
3202.913491	32.000000
3204.051478	28.600000
3205.187815	32.100000
3206.323986	26.160000
3207.461474	25.810000
3208.597314	27.450000
3209.734471	29.250000
3210.867015	24.090000
3212.003841	27.950000
3213.136055	31.790000
3214.269586	24.370000
3215.402953	26.050000
3216.533192	24.030000
3217.666229	22.650000
3218.796140	27.780000
3219.927367	24.820000
3221.055470	24.810000
3222.186369	21.080000
3223.315624	28.370000
3224.443236	27.010000
3225.567725	29.640000
3226.696490	22.900000
3227.822133	31.830000
3228.947613	22.120000
3230.071452	21.900000
3231.198086	24.270000
3232.320122	27.600000
3233.443474	31.100000
3234.566664	29.040000
3235.689691	30.010000
3236.811080	26.630000
3237.932306	23.270000
3239.051894	25.450000
3240.171321	27.670000
3241.289111	27.510000
3242.409692	24.010000
3243.527160	25.480000
3244.644467	29.260000
3245.761614	27.210000
3246.877124	25.450000
3247.993950	31.260000
3249.107666	25.170000
3250.224171	27.090000
3251.339042	30.420000
3252.450803	26.010000
3253.562406	28.610000
3254.675324	27.950000
3255.788082	19.950000
3256.897734	31.010000
3258.008701	28.910000
3259.119509	29.860000
3260.228685	25.320000
3261.336230	27.380000
3262.445090	24.760000
3263.553792	29.110000
3264.659391	30.010000
3265.766304	26.610000
3266.871588	23.070000
3267.978186	25.860000
3269.081684	23.880000
3270.186496	27.530000
3271.291151	26.420000
3272.392708	28.910000
3273.494108	23.490000
3274.596822	32.990000
3275.699380	26.030000
3276.798841	25.930000
3277.901086	29.950000
3279.000235	27.820000
3280.097760	29.090000
3281.195129	28.830000
3282.295280	27.390000
3283.392339	26.740000
3284.489242	23.820000
3285.585990	25.220000
3286.678179	28.710000
3287.774618	24.340000
3288.869434	25.160000
3289.964096	29.820000
3291.057136	23.130000
3292.150021	28.160000
3293.241286	23.320000
3294.333864	26.110000
3295.424822	26.130000
3296.514160	29.760000
3297.603345	22.290000
3298.693842	26.500000
3299.781256	25.650000
3300.868516	26.350000
3301.957089	22.710000
3303.045509	21.220000
3304.129383	25.810000
3305.217498	28.130000
3306.302531	26.200000
3307.385949	28.240000
3308.470679	24.120000
3309.553793	28.380000
3310.638220	25.620000
3311.719568	26.310000
3312.802228	28.570000
3313.883274	30.740000
3314.964168	20.700000
3316.043450	27.690000
3317.122581	26.050000
3318.203024	23.550000
3319.280392	27.240000
3320.359072	28.650000
3321.436140	21.030000
3322.513059	24.640000
3323.588366	24.740000
3324.663524	24.310000
3325.739993	18.400000
3326.813392	29.220000
3327.886641	25.310000
3328.961202	21.290000
3330.034154	17.230000
3331.105497	23.120000
3332.178151	31.240000
3333.247739	24.570000
3334.318637	22.930000
3335.387928	26.120000
3336.458529	27.100000
3337.527525	27.830000
3338.594914	19.780000
3339.660698	26.670000
3340.730708	21.980000
3341.797655	23.840000
3342.861540	23.080000
3343.928192	24.310000
3344.993241	22.570000
3346.056686	29.290000
3347.119985	27.000000
3348.183137	26.450000
3349.246143	24.070000
3350.309003	24.850000
3351.370261	27.530000
3352.428462	24.840000
3353.490883	26.640000
3354.550249	27.540000
3355.609469	25.000000
3356.669998	32.050000
3357.726019	20.320000
3358.784803	28.790000
3359.839080	20.780000
3360.896121	26.230000
3361.951563	30.470000
3363.008315	21.640000
3364.063468	25.100000
3365.117024	27.550000
3366.168984	20.980000
3367.223705	27.000000
3368.275377	21.920000
3369.326906	23.360000
3370.379743	22.460000
3371.429533	21.450000
3372.480632	22.950000
3373.528684	25.000000
3374.579497	26.690000
3375.627264	25.140000
3376.674889	20.100000
3377.722372	26.100000
3378.768262	26.210000
3379.815460	19.580000
3380.859616	23.850000
3381.906530	25.380000
3382.951852	21.920000
3383.994133	27.140000
3385.036273	25.230000
3386.079722	27.090000
3387.123029	22.100000
3388.164746	24.590000
3389.206323	19.530000
3390.247758	22.890000
3391.287605	21.860000
3392.325863	27.670000
3393.365429	30.170000
3394.404855	25.780000
3395.442693	29.120000
3396.478944	26.430000
3397.515056	22.950000
3398.552475	27.100000
3399.586861	20.310000
3400.622554	30.700000
3401.658108	19.080000
3402.690631	26.090000
3403.725906	23.720000
3404.758152	20.980000
3405.790259	27.410000
3406.820782	29.580000
3407.852612	20.380000
3408.884304	27.160000
3409.912968	27.650000
3410.941495	22.030000
3411.971328	16.810000
3413.001024	26.200000
3414.027694	23.600000
3415.055670	22.470000
3416.080623	23.650000
3417.108325	22.790000
3418.133003	27.960000
3419.158989	24.130000
3420.183394	26.260000
3421.207663	21.690000
3422.230353	21.350000
3423.252907	22.220000
3424.276767	21.510000
3425.297607	24.970000
3426.318311	22.270000
3427.340322	22.870000
3428.359314	19.890000
3429.378170	31.630000
3430.398333	22.710000
3431.415479	27.840000
