-117.841134	1.540000
-115.171534	1.040000
-112.504869	-1.610000
-109.838956	0.050000
-107.175976	-0.590000
-104.511565	-0.960000
-101.850085	-6.760000
-99.187176	-0.270000
-96.529373	1.820000
-93.870141	1.660000
-91.211657	0.230000
-88.556098	7.660000
-85.899109	6.750000
-83.247219	3.300000
-80.593899	-3.130000
-77.943498	2.580000
-75.291669	2.080000
-72.644930	1.760000
-69.996761	-3.560000
-67.349335	5.860000
-64.704824	5.190000
-62.058883	1.190000
-59.418024	-1.420000
-56.775736	2.440000
-54.136357	0.330000
-51.495548	3.040000
-48.855480	1.970000
-46.220485	2.220000
-43.584060	-1.810000
-40.950538	5.610000
-38.315588	-2.360000
-35.685703	3.250000
-33.052226	-3.780000
-30.423811	4.070000
-27.796130	0.570000
-25.167020	7.920000
-22.542967	2.370000
-19.915325	4.540000
-17.292737	4.840000
-14.670879	19.360000
-12.049752	26.140000
-9.429356	64.150000
-6.811847	223.270000
-4.192910	774.760000
-1.576858	2118.980000
1.038465	2890.260000
3.653060	1403.820000
6.264774	146.930000
8.877916	25.350000
11.486024	10.260000
14.097713	7.810000
16.704373	6.350000
19.312460	0.780000
21.919823	10.870000
24.522161	0.570000
27.128077	3.040000
29.728971	2.200000
32.331293	-1.710000
34.928597	2.040000
37.529478	0.920000
40.125343	0.720000
42.722637	2.840000
45.319211	2.960000
47.910776	1.720000
50.503769	-1.670000
53.093901	2.450000
55.685460	3.270000
58.274161	-0.300000
60.864288	0.240000
63.449416	1.460000
66.035972	-1.170000
68.621814	1.110000
71.204802	6.080000
73.789216	1.270000
76.366502	2.600000
78.947354	1.830000
81.525357	-5.040000
84.102650	6.090000
86.681369	-1.490000
89.255106	2.790000
91.830271	-1.680000
94.402592	2.670000
96.974205	-4.170000
99.542978	3.930000
102.113178	2.580000
104.680539	-2.070000
107.249327	1.070000
109.815278	4.840000
112.378394	-0.410000
114.945066	5.160000
117.502516	1.610000
120.065653	2.620000
122.623829	1.070000
125.185560	10.560000
127.742334	18.120000
130.300534	23.710000
132.853782	26.070000
135.406332	45.180000
137.962432	52.550000
140.513584	80.040000
143.064039	83.120000
145.613796	91.360000
148.160734	95.650000
150.706977	106.490000
153.254645	111.900000
155.801617	113.300000
158.343654	110.290000
160.884997	104.270000
163.425647	104.020000
165.967723	108.130000
168.506987	102.980000
171.043442	103.380000
173.579207	104.810000
176.116397	110.060000
178.652896	107.310000
181.186589	103.500000
183.717478	98.440000
186.247679	98.870000
188.779306	102.150000
191.308131	104.150000
193.834157	101.220000
196.359497	102.900000
198.886262	100.460000
201.410231	105.620000
203.933515	103.550000
206.456113	101.740000
208.975919	98.800000
211.495042	95.960000
214.013483	96.880000
216.533347	110.000000
219.046210	102.640000
221.562604	104.930000
224.078316	101.630000
226.589138	99.230000
229.101385	102.900000
231.610849	107.490000
234.119635	101.230000
236.627743	106.620000
239.137275	105.020000
241.641926	109.330000
244.145901	111.510000
246.651300	111.760000
249.151824	109.770000
251.655871	110.220000
254.152948	105.930000
256.653548	114.430000
259.151376	105.490000
261.648531	109.930000
264.145013	112.200000
266.636632	112.140000
269.131771	110.500000
271.624143	111.930000
274.115845	111.420000
276.604784	110.500000
279.095146	106.270000
281.582747	115.180000
284.067588	116.630000
286.555944	119.650000
289.037360	114.420000
291.522290	122.670000
294.002375	116.890000
296.485972	118.070000
298.964726	116.510000
301.444903	118.010000
303.922329	119.100000
306.399091	118.680000
308.875189	124.970000
311.348540	124.290000
313.821228	123.630000
316.293255	137.850000
318.764621	151.590000
321.233242	168.740000
323.701204	159.830000
326.170589	151.380000
328.635151	139.220000
331.103217	129.290000
333.566463	126.860000
336.029051	130.090000
338.490983	125.390000
340.952258	125.110000
343.410798	122.660000
345.870762	122.830000
348.327992	123.220000
350.784568	123.340000
353.240490	122.240000
355.693682	119.630000
358.148297	124.090000
360.598110	124.140000
363.051419	127.980000
365.499929	127.920000
367.947789	121.270000
370.397071	126.290000
372.841559	121.540000
375.287469	123.880000
377.732729	122.660000
380.175271	126.720000
382.617165	125.420000
385.058412	125.570000
387.496943	120.400000
389.936895	124.800000
392.374134	120.160000
394.808662	122.940000
397.246677	115.890000
399.679915	122.890000
402.114574	119.490000
404.544461	123.410000
406.977833	123.630000
409.406435	124.140000
411.834395	111.330000
414.263777	122.990000
416.688393	117.210000
419.114431	122.580000
421.539828	127.510000
423.964585	119.900000
426.384584	119.260000
428.806003	128.440000
431.224727	123.950000
433.644871	125.490000
436.062320	121.480000
438.481189	121.420000
440.897365	118.860000
443.308793	127.670000
445.723698	116.370000
448.135914	117.630000
450.547495	118.390000
452.958442	116.860000
455.366703	116.030000
457.774331	117.370000
460.181327	117.600000
462.587692	117.560000
464.991374	111.260000
467.394426	114.190000
469.796848	114.910000
472.198640	116.140000
474.597754	109.320000
476.998288	113.200000
479.398193	112.520000
481.793376	112.760000
484.192025	109.690000
486.585953	115.560000
488.979256	110.540000
491.371934	115.520000
493.763986	106.130000
496.157456	110.720000
498.546214	102.090000
500.932306	101.380000
503.319818	98.480000
505.706707	103.340000
508.090932	104.720000
510.476575	118.050000
512.859557	126.960000
515.239878	155.760000
517.621618	172.270000
520.000699	178.960000
522.381198	171.030000
524.759041	151.350000
527.134227	128.470000
529.508797	119.760000
531.884784	109.320000
534.258119	101.870000
536.632871	95.370000
539.002937	91.410000
541.372389	81.920000
543.743258	84.200000
546.109446	79.830000
548.477053	83.470000
550.842015	75.310000
553.206363	81.060000
555.570098	76.520000
557.935251	80.180000
560.295732	74.760000
562.657631	72.140000
565.016889	72.660000
567.373509	66.130000
569.733575	68.420000
572.086949	67.770000
574.443768	68.070000
576.797952	67.870000
579.151527	63.390000
581.504495	69.460000
583.854830	63.010000
586.206583	62.830000
588.551659	64.890000
590.902198	61.060000
593.246065	61.430000
595.595393	62.220000
597.940072	64.420000
600.282127	61.400000
602.625599	58.730000
604.966448	64.940000
607.306694	65.490000
609.644320	62.240000
611.985381	62.160000
614.321805	68.470000
616.659645	61.800000
618.994868	71.580000
621.327475	57.780000
623.661498	61.600000
625.992907	61.220000
628.323718	55.000000
630.653931	54.620000
632.983547	58.520000
635.308539	51.240000
637.638973	55.910000
639.964786	60.290000
642.287991	57.120000
644.612613	54.760000
646.934629	51.820000
649.256051	49.640000
651.574870	53.620000
653.895106	50.690000
656.214748	51.490000
658.531789	51.190000
660.848238	51.260000
663.162089	49.900000
665.477356	49.450000
667.790026	55.280000
670.104111	49.110000
672.413596	50.490000
674.724497	54.610000
677.032805	44.900000
679.340525	47.710000
681.649659	46.060000
683.954201	49.770000
686.258157	48.920000
688.561527	50.920000
690.866311	46.370000
693.166508	46.030000
695.468121	49.030000
697.769148	45.740000
700.065594	47.400000
702.363455	44.310000
704.660732	44.510000
706.957426	51.960000
709.249544	43.830000
711.545073	46.900000
713.836028	45.430000
716.128398	47.350000
718.418193	46.720000
720.707407	45.600000
722.996042	40.940000
725.282104	47.380000
727.569581	46.270000
729.854486	47.590000
732.138814	46.730000
734.420573	49.460000
736.703746	43.990000
738.986342	44.370000
741.264382	41.740000
743.543837	45.780000
745.822715	42.510000
748.101019	42.880000
750.374773	45.990000
752.649940	51.790000
754.924534	47.030000
757.196569	41.770000
759.470017	47.700000
761.740907	46.940000
764.009241	50.730000
766.278988	51.550000
768.546180	45.400000
770.812803	48.840000
773.078855	51.050000
775.342356	53.890000
777.607270	48.730000
779.871614	45.980000
782.131429	53.970000
784.392656	50.240000
786.653316	46.540000
788.911430	52.010000
791.166999	49.340000
793.425959	50.100000
795.678419	47.240000
797.936247	47.970000
800.189556	47.810000
802.440325	55.770000
804.692506	47.230000
806.942148	50.090000
809.193202	45.550000
811.439746	52.220000
813.687701	42.140000
815.933122	50.880000
818.179954	45.500000
820.426225	44.700000
822.667991	45.360000
824.913141	45.820000
827.151818	45.850000
829.393877	48.000000
831.631438	45.020000
833.870411	45.880000
836.106857	44.260000
838.344714	45.070000
840.580046	40.080000
842.812855	45.270000
845.047074	38.510000
847.278772	39.540000
849.509915	37.490000
851.740503	43.080000
853.970537	39.460000
856.200017	38.310000
858.425015	42.740000
860.653388	39.600000
862.877281	36.410000
865.102586	41.320000
867.323415	42.320000
869.547616	45.490000
871.767344	40.580000
873.988482	42.150000
876.209070	40.350000
878.427149	45.770000
880.646637	42.920000
882.861659	42.980000
885.076133	34.600000
887.290060	48.520000
889.503440	42.980000
891.716272	43.080000
893.928558	40.540000
896.138341	44.850000
898.347579	37.840000
900.556272	41.880000
902.762465	43.000000
904.970069	42.870000
907.175174	45.960000
909.379736	44.510000
911.581803	43.160000
913.785279	37.430000
915.986261	38.480000
918.186701	45.610000
920.388550	42.420000
922.584008	46.000000
924.782825	39.260000
926.977203	43.400000
929.174939	48.870000
931.368239	46.320000
933.562948	48.350000
935.755171	51.950000
937.946855	46.580000
940.138002	53.550000
942.326666	51.320000
944.514794	53.620000
946.700441	49.180000
948.889440	54.010000
951.074016	53.830000
953.258057	54.500000
955.445448	54.240000
957.624535	56.000000
959.806973	61.470000
961.988877	57.800000
964.168306	57.290000
966.345263	65.040000
968.523628	58.890000
970.703400	60.290000
972.876823	59.190000
975.053592	63.730000
977.225954	64.610000
979.399724	68.270000
981.569090	62.110000
983.741800	65.810000
985.912045	63.660000
988.081760	64.650000
990.250948	65.110000
992.415738	66.050000
994.583869	64.510000
996.747605	56.940000
998.912749	63.010000
1001.075433	60.550000
1003.237592	62.230000
1005.397294	63.060000
1007.556471	65.370000
1009.717055	62.950000
1011.875184	65.070000
1014.032790	65.020000
1016.189872	61.810000
1018.346430	60.730000
1020.498609	59.870000
1022.652195	65.510000
1024.805259	63.240000
1026.955874	67.210000
1029.107896	66.180000
1031.255544	68.990000
1033.406524	67.530000
1035.553133	67.190000
1037.699223	70.380000
1039.844795	72.840000
1041.991772	67.020000
1044.132460	72.800000
1046.276478	75.780000
1048.418055	73.050000
1050.559115	69.070000
1052.701581	73.180000
1054.837766	71.660000
1056.977278	72.070000
1059.112435	70.810000
1061.250916	71.660000
1063.385043	72.640000
1065.518657	68.550000
1067.653675	70.730000
1069.784345	74.470000
1071.916419	66.670000
1074.046064	74.070000
1076.175197	64.230000
1078.303818	69.740000
1080.431928	70.300000
1082.557612	67.400000
1084.682786	58.890000
1086.809364	65.940000
1088.931604	60.790000
1091.055249	61.310000
1093.174559	63.220000
1095.299098	60.620000
1097.417393	57.250000
1099.537092	60.350000
1101.654372	59.350000
1103.771145	57.750000
1105.887413	53.730000
1108.001264	48.170000
1110.116520	51.630000
1112.227452	59.410000
1114.341697	52.330000
1116.451621	55.400000
1118.562949	54.320000
1120.673772	57.330000
1122.780279	51.660000
1124.890095	55.160000
1126.995598	49.490000
1129.102503	52.500000
1131.203193	44.750000
1133.309095	51.450000
1135.410688	48.170000
1137.513684	54.910000
1139.616179	49.300000
1141.712467	49.840000
1143.813962	47.380000
1145.911155	54.660000
1148.007850	48.470000
1150.104046	51.030000
1152.199744	48.820000
1154.294945	49.290000
1156.387749	46.020000
1158.481955	50.230000
1160.569970	43.860000
1162.663184	48.360000
1164.750209	45.390000
1166.840533	45.250000
1168.926569	43.980000
1171.015904	46.010000
1173.099057	47.320000
1175.183612	46.490000
1177.269569	42.910000
1179.351244	43.150000
1181.434320	44.890000
1183.515011	44.890000
1185.595211	42.530000
1187.674919	44.200000
1189.754136	40.230000
1191.830971	43.650000
1193.905424	42.350000
1195.983170	43.620000
1198.056646	41.740000
1200.131522	47.530000
1202.202131	41.010000
1204.274141	46.260000
1206.343775	40.190000
1208.414810	45.610000
1210.485358	43.160000
1212.551644	44.020000
1214.619331	48.220000
1216.684646	43.550000
1218.751361	41.410000
1220.813820	40.660000
1222.879564	38.100000
1224.941054	45.620000
1227.003945	42.000000
1229.064468	45.090000
1231.124507	35.200000
1233.184063	38.100000
1235.241255	39.100000
1237.297965	40.970000
1239.352311	45.790000
1241.409939	39.240000
1243.465203	40.050000
1245.516228	37.790000
1247.568652	38.350000
1249.620596	39.250000
1251.670182	39.160000
1253.719289	38.170000
1255.767917	38.920000
1257.816067	39.840000
1259.863739	33.530000
1261.907180	39.920000
1263.953897	37.150000
1265.998260	35.730000
1268.042147	38.090000
1270.083682	36.340000
1272.122868	34.080000
1274.165327	38.600000
1276.203563	38.780000
1278.243198	37.090000
1280.282358	35.810000
1282.317299	35.700000
1284.353639	33.090000
1286.387635	41.150000
1288.423028	40.800000
1290.454209	38.010000
1292.486787	38.490000
1294.518894	36.510000
1296.548660	33.330000
1298.579823	35.050000
1300.606780	38.030000
1302.635134	34.590000
1304.659283	40.960000
1306.686698	33.910000
1308.709910	34.590000
1310.734520	35.590000
1312.756796	32.730000
1314.780468	35.920000
1316.801808	32.790000
1318.822681	34.880000
1320.843086	33.940000
1322.859298	38.280000
1324.876907	33.250000
1326.892188	36.730000
1328.910728	34.320000
1330.925079	39.890000
1332.937103	37.900000
1334.952386	40.530000
1336.963483	36.540000
1338.975977	39.040000
1340.984288	37.260000
1342.995854	34.730000
1345.001382	37.260000
1347.010165	42.290000
1349.014770	36.070000
1351.022629	39.930000
1353.030026	35.780000
1355.031392	36.840000
1357.034154	33.740000
1359.036457	38.680000
1361.038300	40.680000
1363.039683	38.320000
1365.038753	34.940000
1367.037364	40.320000
1369.035516	30.310000
1371.033211	37.940000
1373.026743	36.480000
1375.021670	31.570000
1377.016141	34.710000
1379.010155	38.440000
1381.001862	36.710000
1382.993113	37.530000
1384.982059	38.810000
1386.972401	40.120000
1388.962287	36.960000
1390.949869	35.680000
1392.936998	32.840000
1394.921825	31.940000
1396.908047	33.810000
1398.891968	36.380000
1400.875437	37.710000
1402.858454	37.190000
1404.839173	42.240000
1406.821286	33.490000
1408.801103	31.380000
1410.780468	34.790000
1412.755695	38.030000
1414.734160	35.990000
1416.710332	40.500000
1418.686054	34.050000
1420.661328	35.770000
1422.634310	34.010000
1424.606844	33.700000
1426.578930	31.170000
1428.550569	36.610000
1430.518079	35.920000
1432.490663	37.110000
1434.455441	36.260000
1436.425292	38.800000
1438.391019	36.050000
1440.358138	30.070000
1442.322974	30.630000
1444.283690	35.150000
1446.249474	32.670000
1448.209303	31.280000
1450.170526	41.210000
1452.133140	34.210000
1454.091640	38.200000
1456.049698	31.280000
1458.007314	34.900000
1459.964487	41.490000
1461.919385	34.810000
1463.875676	37.580000
1465.829692	39.140000
1467.783267	38.330000
1469.734570	39.710000
1471.687265	32.080000
1473.637689	35.850000
1475.587674	34.120000
1477.537220	37.340000
1479.484497	35.200000
1481.429506	39.530000
1483.375908	33.770000
1485.321872	36.180000
1487.267399	38.100000
1489.210660	34.550000
1491.153486	33.210000
1493.094047	39.290000
1495.036001	41.380000
1496.975692	37.990000
1498.914948	32.650000
1500.853770	43.520000
1502.790332	32.390000
1504.728285	40.540000
1506.663979	36.900000
1508.599240	43.780000
1510.532244	33.360000
1512.464817	38.740000
1514.396956	35.240000
1516.328664	34.770000
1518.258119	36.570000
1520.188964	37.130000
1522.119377	29.110000
1524.045718	36.180000
1525.973449	39.150000
1527.898931	35.290000
1529.823983	38.230000
1531.748606	36.550000
1533.672799	34.750000
1535.594746	35.920000
1537.518083	39.290000
1539.439173	34.430000
1541.358019	38.060000
1543.278255	38.090000
1545.196248	35.740000
1547.113813	38.520000
1549.029138	39.680000
1550.945852	41.000000
1552.858511	47.580000
1554.774373	50.290000
1556.687997	40.000000
1558.599382	44.320000
1560.512157	37.950000
1562.420882	45.140000
1564.330996	40.480000
1566.240687	41.580000
1568.149955	46.240000
1570.056989	40.730000
1571.961790	41.030000
1573.867979	46.630000
1575.771938	40.240000
1577.675475	51.560000
1579.578592	47.280000
1581.479479	49.770000
1583.381755	56.420000
1585.281803	62.170000
1587.183238	59.270000
1589.080640	60.070000
1590.977623	61.770000
1592.874188	60.590000
1594.772140	58.440000
1596.664258	66.120000
1598.559570	57.720000
1600.454464	58.530000
1602.347136	50.420000
1604.239391	47.330000
1606.129427	44.740000
1608.019047	43.160000
1609.908252	44.700000
1611.797041	41.420000
1613.683614	41.630000
1615.571574	44.080000
1617.455517	36.910000
1619.340847	34.440000
1621.225764	35.470000
1623.108467	42.460000
1624.992557	29.780000
1626.872635	40.380000
1628.754101	39.960000
1630.633356	35.600000
1632.513997	33.940000
1634.388834	36.850000
1636.268652	37.530000
1638.144466	42.560000
1640.019869	38.910000
1641.896658	36.420000
1643.767651	32.960000
1645.641825	35.920000
1647.512000	35.910000
1649.385356	37.870000
1651.256509	36.270000
1653.125461	32.690000
1654.995797	36.970000
1656.862141	40.350000
1658.729870	39.230000
1660.595400	38.880000
1662.462316	35.390000
1664.325242	32.580000
1666.189555	36.240000
1668.051671	39.120000
1669.913382	32.380000
1671.776479	42.590000
1673.637380	34.920000
1675.496089	36.020000
1677.354394	31.390000
1679.214083	37.290000
1681.068006	29.340000
1682.925102	40.980000
1684.781794	38.360000
1686.634511	39.520000
1688.490399	35.830000
1690.342313	33.160000
1692.193826	32.810000
1694.044938	41.030000
1695.895649	35.640000
1697.745960	37.250000
1699.594087	37.680000
1701.443598	33.180000
1703.287359	38.280000
1705.136071	29.980000
1706.979036	35.140000
1708.825168	35.220000
1710.667337	39.280000
1712.512672	40.840000
1714.352266	34.160000
1716.193244	37.070000
1718.035605	33.000000
1719.874010	36.000000
1721.713798	39.000000
1723.551410	38.480000
1725.388628	35.470000
1727.223672	34.470000
1729.060099	31.110000
1730.894353	37.430000
1732.728214	39.150000
1734.561680	37.870000
1736.391200	33.060000
1738.223880	33.090000
1740.052615	33.730000
1741.884507	35.090000
1743.712457	34.810000
1745.540015	36.250000
1747.367182	34.640000
1749.193957	35.710000
1751.020340	30.480000
1752.842787	37.430000
1754.668389	38.440000
1756.490056	32.400000
1758.313104	36.180000
1760.133992	38.870000
1761.954491	36.510000
1763.776370	36.070000
1765.592550	33.130000
1767.411883	38.580000
1769.227287	42.030000
1771.045843	38.430000
1772.860473	31.720000
1774.674716	40.310000
1776.488573	39.950000
1778.302043	34.350000
1780.113360	29.720000
1781.926057	33.120000
1783.738369	36.580000
1785.546762	35.250000
1787.356537	36.830000
1789.162397	36.530000
1790.971402	39.770000
1792.776494	31.500000
1794.582967	33.750000
1796.389056	36.430000
1798.191234	34.310000
1799.996557	38.420000
1801.797971	33.070000
1803.600765	36.400000
1805.399653	27.620000
1807.199922	41.640000
1808.999809	34.840000
1810.797554	31.250000
1812.594919	32.040000
1814.391903	36.090000
1816.188508	31.100000
1817.982973	36.140000
1819.778817	37.070000
1821.569006	37.860000
1823.364092	29.210000
1825.153525	32.540000
1826.946096	34.790000
1828.736531	31.960000
1830.524832	29.400000
1832.316267	28.420000
1834.102058	34.060000
1835.889228	34.690000
1837.674266	33.010000
1839.462438	31.820000
1841.246724	36.000000
1843.028880	33.940000
1844.812416	31.200000
1846.593823	33.780000
1848.376609	33.580000
1850.155514	36.560000
1851.935798	33.820000
1853.713957	36.900000
1855.493494	33.650000
1857.270905	38.350000
1859.046194	34.560000
1860.822860	36.010000
1862.597404	33.750000
1864.373325	36.920000
1866.143627	32.150000
1867.917056	40.040000
1869.688365	32.720000
1871.459303	40.580000
1873.231619	34.660000
1874.998321	34.360000
1876.768148	32.890000
1878.534112	37.090000
1880.303200	34.490000
1882.068426	36.020000
1883.833284	39.460000
1885.599519	28.810000
1887.361895	28.620000
1889.123903	32.290000
1890.885545	33.660000
1892.646819	40.510000
1894.407727	28.670000
1896.168268	32.840000
1897.926699	29.020000
1899.684764	34.270000
1901.440722	32.180000
1903.198056	33.350000
1904.955025	29.900000
1906.709887	35.980000
1908.462645	30.520000
1910.215038	29.920000
1911.968808	35.340000
1913.720474	37.490000
1915.470038	33.110000
1917.220977	35.140000
1918.971553	33.950000
1920.718291	36.540000
1922.466404	31.250000
1924.212419	37.210000
1925.959808	37.060000
1927.705100	40.180000
1929.448294	32.570000
1931.192863	29.000000
1932.935336	32.420000
1934.677450	35.470000
1936.419203	31.690000
1938.160596	34.970000
1939.899896	29.780000
1941.638837	31.000000
1943.377419	32.170000
1945.113910	34.930000
1946.850043	34.550000
1948.587550	34.170000
1950.321235	38.400000
1952.056295	37.860000
1953.789266	31.790000
1955.521881	34.470000
1957.254140	31.060000
1958.986042	34.760000
1960.715858	39.270000
1962.443589	37.070000
1964.172695	37.020000
1965.901445	35.400000
1967.628113	34.740000
1969.354426	37.030000
1971.082112	31.120000
1972.804262	33.650000
1974.529513	35.610000
1976.250957	35.280000
1977.975501	31.670000
1979.697966	37.360000
1981.416628	35.660000
1983.138388	31.560000
1984.856346	37.470000
1986.575677	38.050000
1988.291209	35.310000
1990.011561	31.780000
1991.728115	33.040000
1993.440872	34.000000
1995.156725	34.360000
1996.870506	33.320000
1998.583937	36.920000
2000.295297	38.440000
2002.008029	36.820000
2003.716971	36.720000
2005.429005	31.690000
2007.135530	35.600000
2008.845148	34.700000
2010.552698	36.960000
2012.259901	35.360000
2013.965038	34.470000
2015.669829	36.260000
2017.375991	34.940000
2019.078371	32.360000
2020.782122	35.700000
2022.483811	30.870000
2024.185154	41.120000
2025.886153	32.310000
2027.585090	37.940000
2029.285399	34.130000
2030.981932	36.980000
2032.679837	34.200000
2034.375684	38.190000
2036.074616	37.640000
2037.768062	34.990000
2039.462879	36.220000
2041.157354	38.990000
2042.848060	36.570000
2044.541850	35.990000
2046.231873	36.880000
2047.923267	39.620000
2049.612608	35.980000
2051.303319	35.040000
2052.990267	36.860000
2054.676876	38.530000
2056.364854	35.110000
2058.049073	34.090000
2059.734663	29.170000
2061.419912	34.830000
2063.103114	36.930000
2064.787686	37.700000
2066.466794	31.950000
2068.150689	40.360000
2069.829122	30.480000
2071.510633	31.390000
2073.188392	32.600000
2074.865815	39.200000
2076.544607	31.330000
2078.221357	33.960000
2079.896064	33.560000
2081.572142	35.900000
2083.246178	26.870000
2084.919880	35.640000
2086.593246	32.310000
2088.264573	33.210000
2089.935566	37.180000
2091.606225	32.620000
2093.276550	34.870000
2094.946541	37.440000
2096.614496	37.720000
2098.282117	34.890000
2099.947705	38.460000
2101.614661	36.600000
2103.279584	35.740000
2104.944175	34.420000
2106.606734	34.960000
2108.270661	37.390000
2109.932557	34.400000
2111.594123	33.990000
2113.255357	36.360000
2114.914563	39.110000
2116.573438	35.200000
2118.231984	37.680000
2119.890199	33.170000
2121.544692	41.250000
2123.202249	35.590000
2124.859476	40.170000
2126.512983	38.680000
2128.167857	41.460000
2129.819012	29.160000
2131.473230	39.730000
2133.123730	38.900000
2134.775598	36.030000
2136.422057	35.080000
2138.073271	37.050000
2139.720771	31.690000
2141.369638	38.370000
2143.016486	35.420000
2144.663009	42.320000
2146.309206	31.280000
2147.951695	36.880000
2149.597241	37.070000
2151.239082	33.600000
2152.883979	35.810000
2154.525170	35.310000
2156.166038	38.920000
2157.806583	37.540000
2159.445115	33.950000
2161.085013	33.470000
2162.721211	30.550000
2164.358775	33.500000
2165.996017	32.830000
2167.631249	38.760000
2169.266159	32.660000
2170.900748	34.300000
2172.535016	36.270000
2174.165590	35.860000
2175.799216	35.740000
2177.429150	35.480000
2179.060449	32.010000
2180.689743	35.680000
2182.318718	33.510000
2183.947373	30.090000
2185.575709	31.250000
2187.202043	39.910000
2188.828057	34.430000
2190.452071	31.190000
2192.077450	31.920000
2193.700828	31.120000
2195.325571	29.160000
2196.946633	30.960000
2198.567378	34.990000
2200.189487	35.160000
2201.809599	37.840000
2203.427715	39.960000
2205.045515	33.140000
2206.663000	31.600000
2208.280169	35.310000
2209.897023	34.510000
2211.513561	36.420000
2213.128107	37.220000
2214.740660	36.550000
2216.354577	33.030000
2217.966503	26.130000
2219.579792	33.630000
2221.191091	36.570000
2222.800400	38.910000
2224.411073	32.720000
2226.019757	36.530000
2227.628128	32.850000
2229.234513	34.020000
2230.842260	34.010000
2232.448022	31.730000
2234.053472	34.630000
2235.656937	35.510000
2237.261765	28.760000
2238.864609	33.640000
2240.465470	32.080000
2242.067694	33.230000
2243.667936	36.970000
2245.269540	37.000000
2246.867491	37.480000
2248.466805	38.300000
2250.064139	33.200000
2251.661165	33.600000
2253.259553	32.110000
2254.854292	33.050000
2256.447054	29.760000
2258.041179	37.090000
2259.636665	30.010000
2261.228506	41.150000
2262.820041	33.320000
2264.412938	38.530000
2266.000525	33.600000
2267.592808	35.830000
2269.179785	28.270000
2270.769789	34.110000
2272.354489	34.870000
2273.943883	33.840000
2275.527974	33.590000
2277.113427	31.780000
2278.696911	36.030000
2280.283420	32.530000
2281.866296	36.450000
2283.448869	32.900000
2285.031138	34.820000
2286.609777	31.610000
2288.191441	31.970000
2289.769476	31.880000
2291.350534	37.960000
2292.927965	34.480000
2294.503433	31.000000
2296.081923	29.580000
2297.656789	30.570000
2299.231354	35.390000
2300.805618	35.130000
2302.379583	37.680000
2303.953246	35.560000
2305.526610	34.120000
2307.096355	32.880000
2308.665801	33.020000
2310.238265	34.120000
2311.805455	31.040000
2313.375663	30.230000
2314.942256	28.690000
2316.510209	32.130000
2318.076206	35.940000
2319.641906	38.130000
2321.207308	32.930000
2322.770757	30.130000
2324.335565	40.810000
2325.896765	46.550000
2327.460979	54.170000
2329.019931	55.000000
2330.581897	51.810000
2332.141913	41.340000
2333.701633	37.240000
2335.259405	31.330000
2336.816881	36.540000
2338.374063	31.950000
2339.929297	35.400000
2341.484238	34.280000
2343.038884	35.490000
2344.593237	30.980000
2346.147296	33.270000
2347.701062	29.510000
2349.252883	33.640000
2350.802762	29.690000
2352.355648	25.460000
2353.903291	33.900000
2355.453943	33.190000
2357.001003	30.970000
2358.549421	37.270000
2360.097548	36.020000
2361.642086	38.430000
2363.187982	34.050000
2364.731940	34.570000
2366.277254	30.950000
2367.818985	31.830000
2369.362072	29.320000
2370.903223	34.650000
2372.444085	30.270000
2373.984658	36.120000
2375.524942	29.960000
2377.064937	32.630000
2378.601354	35.100000
2380.140772	34.900000
2381.676612	33.180000
2383.213810	36.870000
2384.747432	33.480000
2386.284054	32.820000
2387.818746	34.000000
2389.351508	32.590000
2390.883983	34.450000
2392.414530	35.820000
2393.948075	32.150000
2395.476409	40.490000
2397.006099	33.340000
2398.535504	35.100000
2400.064624	38.080000
2401.593458	34.630000
2403.117088	33.850000
2404.645353	36.450000
2406.168416	34.640000
2407.696112	33.290000
2409.216969	39.170000
2410.742458	34.550000
2412.264388	31.380000
2413.787672	33.730000
2415.309036	38.990000
2416.828480	34.800000
2418.349279	37.180000
2419.868159	31.810000
2421.386758	31.090000
2422.903439	33.120000
2424.421474	28.490000
2425.939228	36.010000
2427.453430	33.640000
2428.967353	33.450000
2430.480995	30.280000
2431.995992	37.200000
2433.507440	30.150000
2435.020242	35.420000
2436.531132	32.590000
2438.041743	34.700000
2439.550442	39.950000
2441.062127	35.030000
2442.570269	33.940000
2444.078133	36.260000
2445.585718	35.650000
2447.089764	35.030000
2448.596794	36.380000
2450.101916	34.290000
2451.606761	31.050000
2453.109699	37.610000
2454.612361	35.450000
2456.114746	35.710000
2457.615226	36.020000
2459.117059	34.110000
2460.616987	32.360000
2462.116640	34.330000
2463.616018	32.830000
2465.113493	32.490000
2466.609066	31.620000
2468.107619	35.410000
2469.602644	33.890000
2471.099021	37.080000
2472.591872	32.930000
2474.086076	30.570000
2475.580006	32.500000
2477.070412	31.660000
2478.563796	29.800000
2480.055282	33.300000
2481.544871	33.160000
2483.034188	31.350000
2484.521609	31.540000
2486.012006	31.360000
2487.498885	34.520000
2488.987115	31.610000
2490.471828	31.170000
2491.956272	35.430000
2493.442066	27.810000
2494.925969	31.380000
2496.411222	28.640000
2497.891342	34.260000
2499.374435	29.690000
2500.855637	30.990000
2502.336570	33.600000
2503.815614	41.230000
2505.294389	29.160000
2506.772896	30.850000
2508.251135	29.400000
2509.729105	36.160000
2511.203570	31.710000
2512.681005	33.790000
2514.154936	33.520000
2515.630217	34.520000
2517.105231	33.340000
2518.576744	32.750000
2520.049608	31.970000
2521.520589	35.460000
2522.992920	25.730000
2524.460137	30.620000
2525.930321	31.200000
2527.398624	30.000000
2528.866662	28.890000
2530.334435	34.540000
2531.801943	31.890000
2533.269186	36.820000
2534.732937	25.900000
2536.198038	35.250000
2537.661262	35.750000
2539.125835	36.600000
2540.586920	32.610000
2542.049354	31.470000
2543.511525	27.480000
2544.970210	34.060000
2546.433466	29.660000
2547.891626	37.380000
2549.351136	28.010000
2550.805551	30.400000
2552.264537	31.550000
2553.721651	32.390000
2555.176893	34.520000
2556.631875	32.000000
2558.084988	34.760000
2559.539448	28.740000
2560.992040	34.430000
2562.444372	40.210000
2563.894837	30.490000
2565.348257	35.540000
2566.796595	35.540000
2568.247888	33.850000
2569.697316	28.490000
2571.143271	36.930000
2572.592181	27.420000
2574.037621	30.850000
2575.484408	34.460000
2576.929332	33.920000
2578.373999	29.730000
2579.820013	36.810000
2581.262561	29.110000
2582.706456	28.970000
2584.146885	29.970000
2585.588663	32.610000
2587.028581	28.660000
2588.469846	35.460000
2589.907649	38.150000
2591.348402	37.690000
2592.784093	33.270000
2594.222732	30.780000
2595.659515	37.510000
2597.094442	35.900000
2598.532316	32.390000
2599.965133	30.830000
2601.399297	31.850000
2602.831607	34.760000
2604.265263	30.830000
2605.697066	39.610000
2607.128615	29.150000
2608.559912	33.570000
2609.989356	30.860000
2611.418548	34.400000
2612.845890	31.690000
2614.274577	32.810000
2615.703013	31.540000
2617.128001	34.330000
2618.554336	34.210000
2619.978822	31.600000
2621.404654	31.600000
2622.827042	35.040000
2624.250776	36.790000
2625.672663	35.200000
2627.094300	29.320000
2628.514093	31.300000
2629.935231	30.830000
2631.356119	38.650000
2632.773568	35.410000
2634.193958	37.240000
2635.610910	31.160000
2637.027613	26.790000
2638.444068	30.330000
2639.860275	39.730000
2641.276234	28.410000
2642.690352	38.920000
2644.104222	30.200000
2645.516253	32.560000
2646.929629	36.240000
2648.339575	32.570000
2649.752457	34.800000
2651.161910	40.390000
2652.571117	32.470000
2653.978488	37.840000
2655.388793	33.050000
2656.797263	33.590000
2658.203897	37.480000
2659.610286	40.760000
2661.014841	39.590000
2662.420740	44.240000
2663.824806	40.050000
2665.228627	43.440000
2666.632204	43.490000
2668.033950	41.950000
2669.437039	42.190000
2670.836710	47.140000
2672.237725	42.720000
2673.635324	46.980000
2675.035852	51.130000
2676.432966	51.900000
2677.831423	50.780000
2679.228053	46.620000
2680.624440	50.620000
2682.020585	48.920000
2683.414904	50.060000
2684.810566	48.450000
2686.202819	52.560000
2687.596414	49.110000
2688.988185	48.180000
2690.381299	53.320000
2691.772589	50.180000
2693.162056	46.350000
2694.551283	50.630000
2695.940271	51.180000
2697.330600	42.370000
2698.715946	49.290000
2700.104215	44.310000
2701.490664	51.200000
2702.876874	44.790000
2704.262845	44.080000
2705.645418	48.830000
2707.029333	42.110000
2708.413010	47.420000
2709.796448	45.520000
2711.176491	36.120000
2712.557876	47.110000
2713.937446	35.020000
2715.318356	37.720000
2716.697452	39.000000
2718.074734	33.320000
2719.453357	35.330000
2720.830166	35.050000
2722.206740	36.850000
2723.583078	41.740000
2724.957604	31.910000
2726.333471	34.750000
2727.705952	36.720000
2729.081348	36.070000
2730.451784	35.670000
2731.823561	30.880000
2733.195103	33.540000
2734.564837	33.500000
2735.935911	33.630000
2737.305178	33.390000
2738.674211	30.660000
2740.041438	32.460000
2741.408431	31.710000
2742.775192	33.000000
2744.141720	35.440000
2745.506444	34.970000
2746.870935	34.830000
2748.235195	32.270000
2749.599222	27.430000
2750.963018	31.020000
2752.323440	29.950000
2753.686772	32.900000
2755.045162	32.960000
2756.406462	31.390000
2757.764392	30.080000
2759.125230	33.570000
2760.484268	27.840000
2761.839939	27.210000
2763.198517	30.790000
2764.553728	31.000000
2765.908710	25.810000
2767.261895	26.220000
2768.617987	28.640000
2769.970715	29.680000
2771.323215	29.040000
2772.675486	26.510000
2774.029095	25.420000
2775.379344	32.630000
2776.727798	22.110000
2778.079157	30.320000
2779.427158	34.780000
2780.776496	32.780000
2782.124042	33.600000
2783.471362	33.500000
2784.818455	30.680000
2786.163756	30.350000
2787.508832	29.460000
2788.853682	31.440000
2790.198306	30.850000
2791.539578	25.920000
2792.882187	30.520000
2794.224572	35.090000
2795.566731	25.640000
2796.905541	29.260000
2798.247251	23.420000
2799.585612	34.480000
2800.925311	25.700000
2802.263225	32.680000
2803.599353	25.600000
2804.935259	30.540000
2806.272502	28.580000
2807.607961	28.850000
2808.943197	25.690000
2810.276650	29.520000
2811.611440	30.580000
2812.942890	28.890000
2814.277235	29.000000
2815.606682	30.700000
2816.937465	29.260000
2818.268028	32.290000
2819.596811	27.800000
2820.926930	32.970000
2822.255271	27.180000
2823.583391	30.970000
2824.909733	24.800000
2826.237412	27.790000
2827.561757	26.210000
2828.887439	30.050000
2830.211345	26.200000
2831.535031	28.050000
2832.860053	27.160000
2834.181746	24.910000
2835.503220	28.960000
2836.824475	34.020000
2838.145511	23.990000
2839.464774	29.190000
2840.785373	20.350000
2842.104200	28.810000
2843.422810	28.620000
2844.739648	32.030000
2846.056269	23.110000
2847.372673	27.120000
2848.687307	20.080000
2850.003277	28.140000
2851.315926	21.770000
2852.629910	30.540000
2853.943678	30.790000
2855.257229	23.940000
2856.569014	27.060000
2857.879032	28.060000
2859.190385	25.850000
2860.498423	25.230000
2861.807795	27.590000
2863.116952	25.860000
2864.425895	26.050000
2865.733073	30.430000
2867.038489	26.320000
2868.345238	31.340000
2869.650226	30.670000
2870.954999	31.590000
2872.258012	27.990000
2873.563905	29.770000
2874.864944	22.640000
2876.167317	28.490000
2877.467930	27.510000
2878.769877	29.440000
2880.071610	23.790000
2881.370040	24.750000
2882.669803	32.490000
2883.967809	37.780000
2885.265603	25.900000
2886.561641	31.080000
2887.859012	27.510000
2889.154627	29.000000
2890.450031	33.390000
2891.745224	29.180000
2893.037120	28.840000
2894.331892	31.070000
2895.623367	30.540000
2896.916175	23.600000
2898.208773	30.600000
2899.498077	24.660000
2900.788713	26.090000
2902.077598	31.410000
2903.367815	27.110000
2904.654741	25.810000
2905.942999	28.540000
2907.229508	30.390000
2908.515808	30.520000
2909.801900	24.370000
2911.086245	31.970000
2912.373460	27.740000
2913.655849	25.790000
2914.939570	26.160000
2916.221545	29.570000
2917.503312	31.230000
2918.783334	25.410000
2920.066227	30.380000
2921.347374	23.760000
2922.625239	27.890000
2923.905973	21.920000
2925.183426	25.590000
2926.460673	28.470000
2927.736178	27.130000
2929.014551	29.850000
2930.288110	31.560000
2931.564536	23.130000
2932.839221	32.890000
2934.112165	23.290000
2935.386441	30.370000
2936.658977	23.030000
2937.931308	21.300000
2939.200367	30.840000
2940.472291	27.650000
2941.742477	27.660000
2943.012459	27.740000
2944.282238	26.350000
2945.550281	26.910000
2946.816587	27.390000
2948.082691	27.840000
2949.350126	30.270000
2950.615825	26.250000
2951.881323	31.400000
2953.146618	28.140000
2954.408648	27.900000
2955.672008	26.280000
2956.935167	29.400000
2958.196594	25.420000
2959.459350	24.400000
2960.720374	31.350000
2961.979668	23.990000
2963.238761	25.230000
2964.497655	28.780000
2965.756348	28.520000
2967.014841	27.070000
2968.271604	28.790000
2969.528169	21.920000
2970.783005	29.190000
2972.039171	25.780000
2973.292082	25.540000
2974.546321	28.510000
2975.800362	30.820000
2977.052677	22.220000
2978.304794	27.490000
2979.555186	31.320000
2980.808433	26.800000
2982.056903	22.230000
2983.308228	26.110000
2984.556303	22.960000
2985.804181	23.690000
2987.051863	23.560000
2988.299347	24.540000
2989.545110	23.870000
2990.790677	26.560000
2992.037571	20.290000
2993.281221	31.800000
2994.526199	24.620000
2995.767933	25.340000
2997.012519	27.840000
2998.255386	20.730000
2999.495012	23.850000
3000.737488	21.730000
3001.976724	27.580000
3003.217288	27.090000
3004.456135	24.300000
3005.694788	27.710000
3006.931725	21.220000
3008.169990	25.930000
3009.406539	24.220000
3010.642895	27.320000
3011.879057	28.060000
3013.113505	30.030000
3014.347760	28.170000
3015.581823	25.150000
3016.814172	26.120000
3018.044810	31.450000
3019.278294	30.530000
3020.510067	28.480000
3021.740129	28.920000
3022.969998	30.560000
3024.198158	22.000000
3025.427645	29.080000
3026.655422	22.230000
3027.883008	27.200000
3029.111920	20.470000
3030.336090	21.830000
3031.563104	19.850000
3032.786893	26.420000
3034.012009	26.810000
3035.235418	27.000000
3036.458637	26.070000
3037.680151	30.170000
3038.904506	24.050000
3040.124126	24.040000
3041.345072	26.650000
3042.565829	23.400000
3043.784882	28.830000
3045.005260	24.130000
3046.222422	24.320000
3047.440910	27.370000
3048.657695	19.950000
3049.874293	26.060000
3051.090702	27.820000
3052.303898	27.490000
3053.519933	23.390000
3054.732755	29.470000
3055.948413	24.850000
3057.159350	28.350000
3058.371611	22.510000
3059.583685	30.920000
3060.795573	26.700000
3062.005764	22.060000
3063.215768	24.370000
3064.425586	27.010000
3065.633708	27.690000
3066.841645	27.680000
3068.047886	23.020000
3069.255452	21.120000
3070.461323	22.575000
3071.667009	24.030000
3072.872511	21.460000
3074.076319	26.610000
3075.281451	28.200000
3076.484890	32.210000
3077.686638	24.850000
3078.888201	29.250000
3080.089581	24.190000
3081.290777	28.860000
3082.490283	24.220000
3083.689606	26.390000
3084.890252	21.420000
3086.089208	25.140000
3087.284970	21.750000
3088.483560	26.780000
3089.678958	25.310000
3090.875678	26.880000
3092.069206	23.350000
3093.265562	24.340000
3094.460231	25.990000
3095.651710	28.460000
3096.847521	21.710000
3098.038637	24.180000
3099.231077	20.860000
3100.420329	26.790000
3101.612406	24.890000
3102.802800	24.080000
3103.990008	23.100000
3105.178538	25.820000
3106.368391	21.000000
3107.555060	26.560000
3108.741548	17.650000
3109.927858	21.450000
3111.115489	25.000000
3112.299938	30.430000
3113.482708	26.280000
3114.668300	25.790000
3115.852213	27.230000
3117.034447	26.540000
3118.216502	24.390000
3119.398379	21.400000
3120.580078	22.030000
3121.760100	25.140000
3122.938445	25.770000
3124.119610	28.080000
3125.297600	21.580000
3126.475413	27.050000
3127.653049	19.010000
3128.829010	18.750000
3130.004795	21.970000
3131.181901	23.320000
3132.357332	28.820000
3133.531090	24.170000
3134.703175	25.190000
3135.876582	21.220000
3137.049812	28.340000
3138.221371	25.290000
3139.394250	24.170000
3140.563962	21.920000
3141.734995	17.880000
3142.904358	25.210000
3144.072050	24.080000
3145.242558	24.300000
3146.408408	17.870000
3147.578566	29.100000
3148.744068	21.770000
3149.909395	18.920000
3151.074549	20.440000
3152.239530	24.590000
3153.405830	21.270000
3154.567478	22.260000
3155.730445	21.420000
3156.893240	24.420000
3158.055862	18.630000
3159.216818	24.410000
3160.377603	18.630000
3161.538215	20.070000
3162.697163	22.790000
3163.855940	21.830000
3165.014544	20.390000
3166.172977	24.610000
3167.331239	24.950000
3168.487838	26.350000
3169.642776	22.100000
3170.799033	21.790000
3171.953629	23.940000
3173.108055	23.610000
3174.260821	22.050000
3175.413416	19.500000
3176.565842	22.640000
3177.718098	26.130000
3178.870183	19.730000
3180.019122	22.070000
3181.170869	16.570000
3182.320957	24.460000
3183.469389	21.030000
3184.617651	27.160000
3185.765745	17.550000
3186.913670	22.050000
3188.059939	21.560000
3189.206040	23.830000
3190.350487	18.880000
3191.494766	21.570000
3192.638877	19.680000
3193.784305	19.250000
3194.926595	19.030000
3196.068718	29.230000
3197.210673	22.970000
3198.352461	28.680000
3199.494082	24.240000
3200.632568	21.650000
3201.772371	24.350000
3202.913491	23.330000
3204.051478	23.750000
3205.187815	26.280000
3206.323986	24.560000
3207.461474	19.780000
3208.597314	20.680000
3209.734471	21.740000
3210.867015	20.510000
3212.003841	22.150000
3213.136055	19.820000
3214.269586	18.990000
3215.402953	21.830000
3216.533192	18.460000
3217.666229	16.690000
3218.796140	22.080000
3219.927367	23.200000
3221.055470	22.400000
3222.186369	20.120000
3223.315624	22.200000
3224.443236	20.330000
3225.567725	23.110000
3226.696490	19.830000
3227.822133	27.180000
3228.947613	20.260000
3230.071452	20.160000
3231.198086	17.490000
3232.320122	22.960000
3233.443474	23.660000
3234.566664	22.970000
3235.689691	22.390000
3236.811080	24.600000
3237.932306	17.880000
3239.051894	21.550000
3240.171321	22.500000
3241.289111	22.350000
3242.409692	21.480000
3243.527160	22.560000
3244.644467	21.780000
3245.761614	24.700000
3246.877124	20.140000
3247.993950	27.230000
3249.107666	26.150000
3250.224171	21.340000
3251.339042	23.550000
3252.450803	18.140000
3253.562406	16.310000
3254.675324	23.100000
3255.788082	15.690000
3256.897734	30.250000
3258.008701	20.260000
3259.119509	25.750000
3260.228685	22.370000
3261.336230	20.230000
3262.445090	16.850000
3263.553792	24.230000
3264.659391	26.100000
3265.766304	20.060000
3266.871588	20.970000
3267.978186	19.990000
3269.081684	19.330000
3270.186496	23.110000
3271.291151	20.300000
3272.392708	24.060000
3273.494108	19.630000
3274.596822	26.090000
3275.699380	20.360000
3276.798841	21.500000
3277.901086	16.330000
3279.000235	21.240000
3280.097760	25.570000
3281.195129	24.550000
3282.295280	20.140000
3283.392339	21.030000
3284.489242	20.420000
3285.585990	19.600000
3286.678179	22.300000
3287.774618	24.730000
3288.869434	16.310000
3289.964096	22.980000
3291.057136	20.280000
3292.150021	19.280000
3293.241286	16.590000
3294.333864	21.750000
3295.424822	19.630000
3296.514160	27.580000
3297.603345	17.860000
3298.693842	24.800000
3299.781256	18.900000
3300.868516	24.580000
3301.957089	18.580000
3303.045509	22.570000
3304.129383	18.210000
3305.217498	18.150000
3306.302531	24.280000
3307.385949	21.610000
3308.470679	18.430000
3309.553793	21.650000
3310.638220	24.790000
3311.719568	20.360000
3312.802228	23.370000
3313.883274	25.430000
3314.964168	19.230000
3316.043450	22.360000
3317.122581	17.250000
3318.203024	23.600000
3319.280392	25.330000
3320.359072	22.580000
3321.436140	17.790000
3322.513059	20.020000
3323.588366	16.440000
3324.663524	20.930000
3325.739993	18.940000
3326.813392	24.140000
3327.886641	22.570000
3328.961202	20.580000
3330.034154	17.710000
3331.105497	20.370000
3332.178151	21.900000
3333.247739	19.160000
3334.318637	21.060000
3335.387928	22.940000
3336.458529	23.720000
3337.527525	26.050000
3338.594914	16.610000
3339.660698	25.900000
3340.730708	14.900000
3341.797655	18.220000
3342.861540	22.950000
3343.928192	17.320000
3344.993241	15.150000
3346.056686	21.000000
3347.119985	23.340000
3348.183137	23.910000
3349.246143	19.380000
3350.309003	21.070000
3351.370261	21.060000
3352.428462	21.510000
3353.490883	22.390000
3354.550249	21.050000
3355.609469	14.920000
3356.669998	24.080000
3357.726019	14.050000
3358.784803	20.670000
3359.839080	17.600000
3360.896121	25.200000
3361.951563	24.630000
3363.008315	19.690000
3364.063468	21.830000
3365.117024	21.740000
3366.168984	20.910000
3367.223705	25.390000
3368.275377	15.450000
3369.326906	22.360000
3370.379743	20.920000
3371.429533	16.250000
3372.480632	17.940000
3373.528684	23.320000
3374.579497	20.970000
3375.627264	23.400000
3376.674889	14.020000
3377.722372	22.860000
3378.768262	21.030000
3379.815460	19.660000
3380.859616	17.920000
3381.906530	20.580000
3382.951852	11.920000
3383.994133	16.240000
3385.036273	20.740000
3386.079722	26.700000
3387.123029	16.510000
3388.164746	19.940000
3389.206323	17.360000
3390.247758	18.870000
3391.287605	13.750000
3392.325863	22.860000
3393.365429	25.990000
3394.404855	22.830000
3395.442693	20.320000
3396.478944	19.910000
3397.515056	20.380000
3398.552475	24.970000
3399.586861	14.420000
3400.622554	24.680000
3401.658108	18.430000
3402.690631	22.050000
3403.725906	15.320000
3404.758152	17.820000
3405.790259	24.320000
3406.820782	24.770000
3407.852612	18.740000
3408.884304	27.250000
3409.912968	19.270000
3410.941495	20.470000
3411.971328	17.120000
3413.001024	15.290000
3414.027694	17.230000
3415.055670	25.250000
3416.080623	20.420000
3417.108325	17.490000
3418.133003	23.180000
3419.158989	21.570000
3420.183394	22.470000
3421.207663	17.920000
3422.230353	19.790000
3423.252907	15.670000
3424.276767	13.980000
3425.297607	20.440000
3426.318311	20.500000
3427.340322	18.720000
3428.359314	15.290000
3429.378170	25.640000
3430.398333	13.840000
3431.415479	22.000000
