-117.841134	7.550000
-115.171534	-0.470000
-112.504869	2.340000
-109.838956	0.940000
-107.175976	2.470000
-104.511565	2.990000
-101.850085	-3.170000
-99.187176	2.930000
-96.529373	3.700000
-93.870141	0.650000
-91.211657	5.850000
-88.556098	4.260000
-85.899109	1.260000
-83.247219	6.920000
-80.593899	1.450000
-77.943498	1.380000
-75.291669	0.320000
-72.644930	3.000000
-69.996761	-0.950000
-67.349335	2.550000
-64.704824	6.450000
-62.058883	2.960000
-59.418024	-0.190000
-56.775736	6.190000
-54.136357	0.460000
-51.495548	5.450000
-48.855480	4.350000
-46.220485	0.870000
-43.584060	0.060000
-40.950538	4.000000
-38.315588	1.800000
-35.685703	0.260000
-33.052226	3.510000
-30.423811	1.000000
-27.796130	-0.640000
-25.167020	9.250000
-22.542967	7.580000
-19.915325	6.220000
-17.292737	11.670000
-14.670879	15.830000
-12.049752	25.760000
-9.429356	62.410000
-6.811847	202.500000
-4.192910	712.530000
-1.576858	2244.470000
1.038465	3024.200000
3.653060	1335.790000
6.264774	131.760000
8.877916	24.670000
11.486024	13.090000
14.097713	7.160000
16.704373	3.530000
19.312460	2.960000
21.919823	8.140000
24.522161	4.420000
27.128077	0.800000
29.728971	5.090000
32.331293	-2.960000
34.928597	-2.390000
37.529478	0.680000
40.125343	1.010000
42.722637	4.670000
45.319211	5.410000
47.910776	3.980000
50.503769	1.660000
53.093901	3.910000
55.685460	3.230000
58.274161	1.520000
60.864288	3.570000
63.449416	-1.770000
66.035972	-0.960000
68.621814	-0.080000
71.204802	5.350000
73.789216	-1.160000
76.366502	-0.520000
78.947354	-0.320000
81.525357	-0.140000
84.102650	6.680000
86.681369	-1.380000
89.255106	0.740000
91.830271	-2.260000
94.402592	4.810000
96.974205	0.000000
99.542978	2.600000
102.113178	4.620000
104.680539	-0.350000
107.249327	2.800000
109.815278	4.320000
112.378394	0.640000
114.945066	5.300000
117.502516	6.590000
120.065653	6.400000
122.623829	5.890000
125.185560	10.870000
127.742334	15.930000
130.300534	23.580000
132.853782	25.730000
135.406332	43.290000
137.962432	54.270000
140.513584	78.220000
143.064039	81.030000
145.613796	93.420000
148.160734	105.070000
150.706977	107.930000
153.254645	114.990000
155.801617	113.880000
158.343654	112.860000
160.884997	112.090000
163.425647	105.770000
165.967723	109.540000
168.506987	109.400000
171.043442	111.840000
173.579207	108.960000
176.116397	108.280000
178.652896	108.800000
181.186589	107.440000
183.717478	101.540000
186.247679	101.290000
188.779306	103.330000
191.308131	104.380000
193.834157	105.120000
196.359497	102.390000
198.886262	100.490000
201.410231	105.850000
203.933515	107.700000
206.456113	103.140000
208.975919	107.740000
211.495042	98.310000
214.013483	102.340000
216.533347	108.320000
219.046210	106.200000
221.562604	110.860000
224.078316	110.200000
226.589138	105.030000
229.101385	103.390000
231.610849	107.540000
234.119635	106.730000
236.627743	110.480000
239.137275	112.810000
241.641926	107.690000
244.145901	111.220000
246.651300	109.340000
249.151824	113.600000
251.655871	115.580000
254.152948	117.760000
256.653548	114.750000
259.151376	110.560000
261.648531	113.650000
264.145013	115.680000
266.636632	121.590000
269.131771	111.430000
271.624143	114.140000
274.115845	114.480000
276.604784	114.820000
279.095146	114.190000
281.582747	116.310000
284.067588	118.620000
286.555944	119.580000
289.037360	119.730000
291.522290	119.410000
294.002375	121.700000
296.485972	119.800000
298.964726	126.450000
301.444903	121.070000
303.922329	124.900000
306.399091	125.220000
308.875189	122.410000
311.348540	126.690000
313.821228	134.530000
316.293255	143.430000
318.764621	159.440000
321.233242	170.930000
323.701204	168.050000
326.170589	154.000000
328.635151	136.580000
331.103217	136.530000
333.566463	129.100000
336.029051	136.250000
338.490983	130.170000
340.952258	130.590000
343.410798	116.330000
345.870762	123.930000
348.327992	124.150000
350.784568	120.870000
353.240490	123.850000
355.693682	118.570000
358.148297	127.610000
360.598110	124.570000
363.051419	132.530000
365.499929	127.910000
367.947789	122.240000
370.397071	126.880000
372.841559	129.240000
375.287469	121.000000
377.732729	123.610000
380.175271	129.940000
382.617165	124.980000
385.058412	122.000000
387.496943	118.650000
389.936895	128.190000
392.374134	127.750000
394.808662	125.590000
397.246677	123.690000
399.679915	130.020000
402.114574	126.590000
404.544461	126.580000
406.977833	125.010000
409.406435	126.660000
411.834395	122.010000
414.263777	127.300000
416.688393	119.030000
419.114431	127.360000
421.539828	125.360000
423.964585	128.550000
426.384584	124.460000
428.806003	130.920000
431.224727	126.180000
433.644871	122.720000
436.062320	132.290000
438.481189	126.090000
440.897365	125.620000
443.308793	127.610000
445.723698	123.780000
448.135914	119.200000
450.547495	123.350000
452.958442	120.030000
455.366703	124.950000
457.774331	118.650000
460.181327	119.300000
462.587692	121.190000
464.991374	117.260000
467.394426	118.710000
469.796848	112.140000
472.198640	118.270000
474.597754	114.470000
476.998288	116.540000
479.398193	118.030000
481.793376	116.400000
484.192025	118.100000
486.585953	117.220000
488.979256	118.640000
491.371934	117.110000
493.763986	114.830000
496.157456	110.560000
498.546214	107.340000
500.932306	109.240000
503.319818	102.550000
505.706707	105.010000
508.090932	107.420000
510.476575	120.000000
512.859557	138.580000
515.239878	157.940000
517.621618	184.540000
520.000699	182.130000
522.381198	180.600000
524.759041	158.210000
527.134227	136.850000
529.508797	121.700000
531.884784	115.010000
534.258119	107.870000
536.632871	99.410000
539.002937	92.250000
541.372389	90.430000
543.743258	90.750000
546.109446	89.540000
548.477053	86.940000
550.842015	82.860000
553.206363	84.510000
555.570098	78.100000
557.935251	83.770000
560.295732	76.390000
562.657631	70.830000
565.016889	73.200000
567.373509	68.620000
569.733575	77.470000
572.086949	72.910000
574.443768	73.910000
576.797952	71.350000
579.151527	74.070000
581.504495	70.220000
583.854830	70.290000
586.206583	63.040000
588.551659	69.720000
590.902198	65.580000
593.246065	65.310000
595.595393	64.460000
597.940072	66.480000
600.282127	65.990000
602.625599	63.120000
604.966448	67.510000
607.306694	69.410000
609.644320	65.670000
611.985381	64.690000
614.321805	66.790000
616.659645	66.600000
618.994868	66.750000
621.327475	59.290000
623.661498	65.910000
625.992907	66.260000
628.323718	60.820000
630.653931	62.310000
632.983547	61.270000
635.308539	58.990000
637.638973	60.850000
639.964786	64.010000
642.287991	59.030000
644.612613	55.120000
646.934629	58.900000
649.256051	58.430000
651.574870	58.680000
653.895106	55.470000
656.214748	54.110000
658.531789	52.590000
660.848238	57.070000
663.162089	55.170000
665.477356	52.580000
667.790026	58.160000
670.104111	55.500000
672.413596	51.970000
674.724497	57.710000
677.032805	54.640000
679.340525	47.750000
681.649659	55.010000
683.954201	53.910000
686.258157	56.100000
688.561527	52.920000
690.866311	53.650000
693.166508	49.420000
695.468121	54.680000
697.769148	43.850000
700.065594	51.830000
702.363455	49.160000
704.660732	50.240000
706.957426	51.660000
709.249544	45.520000
711.545073	50.700000
713.836028	51.730000
716.128398	48.990000
718.418193	46.300000
720.707407	46.390000
722.996042	51.060000
725.282104	46.670000
727.569581	50.930000
729.854486	51.940000
732.138814	48.290000
734.420573	54.590000
736.703746	48.740000
738.986342	48.690000
741.264382	43.710000
743.543837	46.600000
745.822715	51.570000
748.101019	47.780000
750.374773	46.960000
752.649940	55.020000
754.924534	49.820000
757.196569	45.710000
759.470017	52.690000
761.740907	50.900000
764.009241	47.360000
766.278988	48.550000
768.546180	51.230000
770.812803	53.940000
773.078855	56.800000
775.342356	51.250000
777.607270	49.730000
779.871614	47.760000
782.131429	55.730000
784.392656	55.700000
786.653316	51.710000
788.911430	59.240000
791.166999	53.250000
793.425959	52.820000
795.678419	52.770000
797.936247	51.270000
800.189556	53.990000
802.440325	57.530000
804.692506	51.670000
806.942148	49.750000
809.193202	48.420000
811.439746	54.860000
813.687701	48.220000
815.933122	56.960000
818.179954	45.220000
820.426225	46.980000
822.667991	48.340000
824.913141	44.280000
827.151818	51.500000
829.393877	50.600000
831.631438	46.850000
833.870411	49.750000
836.106857	48.740000
838.344714	47.790000
840.580046	45.560000
842.812855	50.070000
845.047074	47.440000
847.278772	41.600000
849.509915	45.040000
851.740503	47.900000
853.970537	47.830000
856.200017	38.920000
858.425015	48.820000
860.653388	44.590000
862.877281	39.320000
865.102586	44.480000
867.323415	48.750000
869.547616	46.720000
871.767344	46.050000
873.988482	49.760000
876.209070	43.970000
878.427149	45.920000
880.646637	41.340000
882.861659	47.130000
885.076133	43.970000
887.290060	47.780000
889.503440	47.600000
891.716272	48.350000
893.928558	48.380000
896.138341	45.420000
898.347579	42.620000
900.556272	48.920000
902.762465	51.180000
904.970069	51.380000
907.175174	49.650000
909.379736	44.800000
911.581803	48.290000
913.785279	41.420000
915.986261	41.990000
918.186701	51.400000
920.388550	43.600000
922.584008	49.350000
924.782825	48.720000
926.977203	44.530000
929.174939	49.570000
931.368239	54.040000
933.562948	52.600000
935.755171	51.540000
937.946855	50.540000
940.138002	52.420000
942.326666	52.070000
944.514794	55.420000
946.700441	57.960000
948.889440	55.660000
951.074016	60.990000
953.258057	56.940000
955.445448	58.320000
957.624535	56.160000
959.806973	63.180000
961.988877	62.510000
964.168306	63.620000
966.345263	65.690000
968.523628	59.030000
970.703400	66.840000
972.876823	65.830000
975.053592	68.250000
977.225954	69.870000
979.399724	67.040000
981.569090	67.920000
983.741800	68.410000
985.912045	71.130000
988.081760	71.900000
990.250948	72.420000
992.415738	71.120000
994.583869	66.030000
996.747605	58.890000
998.912749	66.500000
1001.075433	66.660000
1003.237592	62.930000
1005.397294	63.030000
1007.556471	66.090000
1009.717055	67.490000
1011.875184	66.930000
1014.032790	67.870000
1016.189872	68.110000
1018.346430	65.680000
1020.498609	62.430000
1022.652195	72.600000
1024.805259	67.440000
1026.955874	70.150000
1029.107896	73.160000
1031.255544	68.380000
1033.406524	71.300000
1035.553133	70.540000
1037.699223	70.500000
1039.844795	80.070000
1041.991772	70.800000
1044.132460	77.490000
1046.276478	75.670000
1048.418055	76.070000
1050.559115	73.330000
1052.701581	78.530000
1054.837766	74.620000
1056.977278	72.940000
1059.112435	75.590000
1061.250916	75.840000
1063.385043	74.370000
1065.518657	70.170000
1067.653675	79.350000
1069.784345	76.690000
1071.916419	74.410000
1074.046064	77.920000
1076.175197	68.830000
1078.303818	74.300000
1080.431928	73.600000
1082.557612	67.660000
1084.682786	69.730000
1086.809364	69.450000
1088.931604	67.370000
1091.055249	66.890000
1093.174559	67.990000
1095.299098	59.970000
1097.417393	61.990000
1099.537092	56.520000
1101.654372	65.300000
1103.771145	59.170000
1105.887413	55.010000
1108.001264	56.660000
1110.116520	61.140000
1112.227452	60.020000
1114.341697	61.520000
1116.451621	57.780000
1118.562949	58.190000
1120.673772	60.390000
1122.780279	53.770000
1124.890095	57.450000
1126.995598	52.170000
1129.102503	56.930000
1131.203193	51.860000
1133.309095	53.470000
1135.410688	55.080000
1137.513684	57.120000
1139.616179	58.450000
1141.712467	52.800000
1143.813962	51.610000
1145.911155	56.710000
1148.007850	51.680000
1150.104046	56.660000
1152.199744	58.420000
1154.294945	48.160000
1156.387749	51.560000
1158.481955	54.430000
1160.569970	52.010000
1162.663184	52.540000
1164.750209	46.260000
1166.840533	51.730000
1168.926569	51.160000
1171.015904	48.220000
1173.099057	50.590000
1175.183612	47.960000
1177.269569	52.120000
1179.351244	44.620000
1181.434320	52.400000
1183.515011	49.980000
1185.595211	48.510000
1187.674919	49.120000
1189.754136	48.660000
1191.830971	47.740000
1193.905424	50.730000
1195.983170	54.650000
1198.056646	50.700000
1200.131522	52.700000
1202.202131	49.550000
1204.274141	48.090000
1206.343775	45.800000
1208.414810	50.920000
1210.485358	48.300000
1212.551644	46.820000
1214.619331	46.970000
1216.684646	47.460000
1218.751361	45.930000
1220.813820	46.760000
1222.879564	44.190000
1224.941054	49.730000
1227.003945	46.290000
1229.064468	44.540000
1231.124507	39.700000
1233.184063	47.040000
1235.241255	39.370000
1237.297965	46.750000
1239.352311	46.180000
1241.409939	38.330000
1243.465203	50.290000
1245.516228	40.770000
1247.568652	41.730000
1249.620596	42.790000
1251.670182	45.430000
1253.719289	39.150000
1255.767917	41.760000
1257.816067	41.880000
1259.863739	35.560000
1261.907180	39.380000
1263.953897	43.700000
1265.998260	39.310000
1268.042147	43.600000
1270.083682	42.140000
1272.122868	41.720000
1274.165327	41.590000
1276.203563	43.520000
1278.243198	43.270000
1280.282358	39.040000
1282.317299	38.430000
1284.353639	38.070000
1286.387635	45.260000
1288.423028	45.070000
1290.454209	38.630000
1292.486787	46.770000
1294.518894	35.160000
1296.548660	39.930000
1298.579823	42.380000
1300.606780	36.760000
1302.635134	43.310000
1304.659283	41.460000
1306.686698	44.040000
1308.709910	37.590000
1310.734520	38.910000
1312.756796	40.570000
1314.780468	42.700000
1316.801808	37.980000
1318.822681	37.990000
1320.843086	39.550000
1322.859298	38.670000
1324.876907	42.740000
1326.892188	46.330000
1328.910728	40.110000
1330.925079	43.660000
1332.937103	41.450000
1334.952386	40.660000
1336.963483	41.540000
1338.975977	40.350000
1340.984288	41.290000
1342.995854	38.710000
1345.001382	42.110000
1347.010165	46.980000
1349.014770	33.770000
1351.022629	42.880000
1353.030026	41.330000
1355.031392	40.670000
1357.034154	41.680000
1359.036457	40.910000
1361.038300	45.180000
1363.039683	37.240000
1365.038753	35.700000
1367.037364	45.070000
1369.035516	37.240000
1371.033211	43.760000
1373.026743	39.970000
1375.021670	39.840000
1377.016141	40.930000
1379.010155	39.890000
1381.001862	42.350000
1382.993113	38.660000
1384.982059	39.060000
1386.972401	47.870000
1388.962287	41.130000
1390.949869	39.750000
1392.936998	39.430000
1394.921825	37.150000
1396.908047	37.660000
1398.891968	39.040000
1400.875437	43.690000
1402.858454	38.160000
1404.839173	39.500000
1406.821286	38.540000
1408.801103	41.540000
1410.780468	38.530000
1412.755695	36.870000
1414.734160	35.580000
1416.710332	40.250000
1418.686054	39.300000
1420.661328	43.300000
1422.634310	38.560000
1424.606844	40.440000
1426.578930	34.890000
1428.550569	38.940000
1430.518079	40.680000
1432.490663	46.700000
1434.455441	36.330000
1436.425292	41.750000
1438.391019	40.180000
1440.358138	43.060000
1442.322974	35.090000
1444.283690	40.390000
1446.249474	37.880000
1448.209303	37.010000
1450.170526	44.710000
1452.133140	35.610000
1454.091640	37.110000
1456.049698	41.380000
1458.007314	38.080000
1459.964487	40.670000
1461.919385	35.530000
1463.875676	41.330000
1465.829692	41.770000
1467.783267	39.910000
1469.734570	44.610000
1471.687265	38.110000
1473.637689	39.840000
1475.587674	41.380000
1477.537220	38.990000
1479.484497	39.300000
1481.429506	42.140000
1483.375908	39.680000
1485.321872	41.580000
1487.267399	41.320000
1489.210660	38.360000
1491.153486	34.930000
1493.094047	40.920000
1495.036001	38.160000
1496.975692	40.380000
1498.914948	41.300000
1500.853770	42.130000
1502.790332	43.370000
1504.728285	42.870000
1506.663979	40.860000
1508.599240	46.140000
1510.532244	37.990000
1512.464817	41.060000
1514.396956	42.430000
1516.328664	38.930000
1518.258119	39.580000
1520.188964	39.120000
1522.119377	36.890000
1524.045718	42.380000
1525.973449	46.340000
1527.898931	37.040000
1529.823983	44.310000
1531.748606	42.520000
1533.672799	40.320000
1535.594746	42.060000
1537.518083	43.910000
1539.439173	44.650000
1541.358019	39.430000
1543.278255	40.810000
1545.196248	45.660000
1547.113813	45.830000
1549.029138	44.620000
1550.945852	45.510000
1552.858511	50.010000
1554.774373	55.500000
1556.687997	49.820000
1558.599382	51.100000
1560.512157	43.550000
1562.420882	46.790000
1564.330996	41.190000
1566.240687	45.100000
1568.149955	46.610000
1570.056989	43.970000
1571.961790	50.060000
1573.867979	47.420000
1575.771938	49.750000
1577.675475	52.410000
1579.578592	49.880000
1581.479479	53.450000
1583.381755	56.660000
1585.281803	65.460000
1587.183238	58.180000
1589.080640	66.580000
1590.977623	64.420000
1592.874188	60.790000
1594.772140	68.230000
1596.664258	69.620000
1598.559570	63.120000
1600.454464	62.690000
1602.347136	63.020000
1604.239391	51.110000
1606.129427	51.100000
1608.019047	46.310000
1609.908252	49.590000
1611.797041	49.540000
1613.683614	43.130000
1615.571574	43.730000
1617.455517	42.850000
1619.340847	36.250000
1621.225764	39.430000
1623.108467	43.400000
1624.992557	35.780000
1626.872635	39.700000
1628.754101	44.140000
1630.633356	36.580000
1632.513997	43.390000
1634.388834	37.830000
1636.268652	43.660000
1638.144466	43.900000
1640.019869	44.320000
1641.896658	44.280000
1643.767651	38.950000
1645.641825	38.310000
1647.512000	44.300000
1649.385356	43.390000
1651.256509	45.650000
1653.125461	34.520000
1654.995797	36.270000
1656.862141	37.480000
1658.729870	40.180000
1660.595400	43.520000
1662.462316	35.790000
1664.325242	38.770000
1666.189555	35.680000
1668.051671	41.550000
1669.913382	41.310000
1671.776479	43.680000
1673.637380	40.060000
1675.496089	38.830000
1677.354394	35.970000
1679.214083	42.650000
1681.068006	33.700000
1682.925102	40.380000
1684.781794	44.540000
1686.634511	39.770000
1688.490399	40.970000
1690.342313	38.500000
1692.193826	38.150000
1694.044938	39.480000
1695.895649	38.930000
1697.745960	39.810000
1699.594087	37.810000
1701.443598	39.590000
1703.287359	38.900000
1705.136071	33.870000
1706.979036	39.950000
1708.825168	37.680000
1710.667337	40.890000
1712.512672	42.340000
1714.352266	42.220000
1716.193244	39.220000
1718.035605	39.780000
1719.874010	38.930000
1721.713798	36.580000
1723.551410	39.850000
1725.388628	38.420000
1727.223672	40.290000
1729.060099	39.300000
1730.894353	39.280000
1732.728214	39.530000
1734.561680	36.990000
1736.391200	39.140000
1738.223880	37.600000
1740.052615	38.040000
1741.884507	38.640000
1743.712457	37.700000
1745.540015	40.600000
1747.367182	40.370000
1749.193957	38.500000
1751.020340	37.050000
1752.842787	38.630000
1754.668389	38.350000
1756.490056	37.970000
1758.313104	37.250000
1760.133992	39.190000
1761.954491	42.850000
1763.776370	37.290000
1765.592550	40.280000
1767.411883	42.550000
1769.227287	43.880000
1771.045843	39.340000
1772.860473	37.490000
1774.674716	42.290000
1776.488573	38.990000
1778.302043	35.890000
1780.113360	34.720000
1781.926057	38.000000
1783.738369	41.330000
1785.546762	36.380000
1787.356537	38.040000
1789.162397	40.300000
1790.971402	39.300000
1792.776494	36.900000
1794.582967	43.680000
1796.389056	40.580000
1798.191234	39.010000
1799.996557	42.860000
1801.797971	37.290000
1803.600765	37.020000
1805.399653	35.960000
1807.199922	43.920000
1808.999809	41.780000
1810.797554	39.420000
1812.594919	35.230000
1814.391903	38.670000
1816.188508	38.000000
1817.982973	43.000000
1819.778817	40.600000
1821.569006	44.410000
1823.364092	40.570000
1825.153525	37.860000
1826.946096	38.790000
1828.736531	34.350000
1830.524832	37.690000
1832.316267	33.560000
1834.102058	39.790000
1835.889228	40.400000
1837.674266	35.880000
1839.462438	40.560000
1841.246724	38.500000
1843.028880	39.030000
1844.812416	38.630000
1846.593823	36.970000
1848.376609	42.770000
1850.155514	42.860000
1851.935798	35.980000
1853.713957	39.350000
1855.493494	36.090000
1857.270905	39.350000
1859.046194	41.300000
1860.822860	35.770000
1862.597404	40.360000
1864.373325	42.540000
1866.143627	35.250000
1867.917056	38.340000
1869.688365	38.460000
1871.459303	39.750000
1873.231619	37.450000
1874.998321	41.230000
1876.768148	36.310000
1878.534112	41.850000
1880.303200	38.590000
1882.068426	34.870000
1883.833284	42.160000
1885.599519	32.910000
1887.361895	41.370000
1889.123903	39.650000
1890.885545	36.860000
1892.646819	39.700000
1894.407727	37.880000
1896.168268	36.510000
1897.926699	38.020000
1899.684764	34.320000
1901.440722	37.400000
1903.198056	38.700000
1904.955025	37.390000
1906.709887	36.540000
1908.462645	34.410000
1910.215038	42.000000
1911.968808	39.720000
1913.720474	44.930000
1915.470038	40.690000
1917.220977	42.420000
1918.971553	37.430000
1920.718291	40.840000
1922.466404	30.220000
1924.212419	39.320000
1925.959808	42.710000
1927.705100	41.270000
1929.448294	38.860000
1931.192863	34.910000
1932.935336	37.220000
1934.677450	42.130000
1936.419203	38.810000
1938.160596	42.880000
1939.899896	37.340000
1941.638837	39.000000
1943.377419	34.060000
1945.113910	39.880000
1946.850043	40.005000
1948.587550	40.130000
1950.321235	42.870000
1952.056295	38.560000
1953.789266	41.820000
1955.521881	39.980000
1957.254140	36.290000
1958.986042	32.270000
1960.715858	40.610000
1962.443589	39.650000
1964.172695	38.280000
1965.901445	35.510000
1967.628113	36.970000
1969.354426	32.660000
1971.082112	36.100000
1972.804262	40.270000
1974.529513	38.230000
1976.250957	39.460000
1977.975501	40.640000
1979.697966	40.390000
1981.416628	35.250000
1983.138388	37.520000
1984.856346	41.210000
1986.575677	34.250000
1988.291209	36.620000
1990.011561	39.080000
1991.728115	38.820000
1993.440872	37.750000
1995.156725	38.240000
1996.870506	39.310000
1998.583937	40.800000
2000.295297	42.320000
2002.008029	38.760000
2003.716971	43.280000
2005.429005	41.150000
2007.135530	36.980000
2008.845148	40.000000
2010.552698	39.280000
2012.259901	39.060000
2013.965038	37.220000
2015.669829	39.540000
2017.375991	40.200000
2019.078371	38.460000
2020.782122	35.740000
2022.483811	38.070000
2024.185154	36.580000
2025.886153	37.110000
2027.585090	41.990000
2029.285399	41.620000
2030.981932	38.390000
2032.679837	42.950000
2034.375684	38.270000
2036.074616	42.400000
2037.768062	40.400000
2039.462879	43.200000
2041.157354	42.700000
2042.848060	42.480000
2044.541850	39.820000
2046.231873	39.830000
2047.923267	39.410000
2049.612608	38.290000
2051.303319	38.220000
2052.990267	41.430000
2054.676876	40.020000
2056.364854	36.090000
2058.049073	39.740000
2059.734663	35.920000
2061.419912	39.580000
2063.103114	40.800000
2064.787686	32.820000
2066.466794	34.230000
2068.150689	37.180000
2069.829122	37.910000
2071.510633	37.870000
2073.188392	38.160000
2074.865815	44.850000
2076.544607	36.000000
2078.221357	36.860000
2079.896064	33.330000
2081.572142	34.240000
2083.246178	39.060000
2084.919880	34.610000
2086.593246	35.140000
2088.264573	33.210000
2089.935566	43.090000
2091.606225	35.130000
2093.276550	37.480000
2094.946541	41.010000
2096.614496	42.090000
2098.282117	33.090000
2099.947705	42.870000
2101.614661	38.440000
2103.279584	40.720000
2104.944175	39.200000
2106.606734	41.720000
2108.270661	40.920000
2109.932557	38.970000
2111.594123	44.200000
2113.255357	41.000000
2114.914563	41.100000
2116.573438	41.310000
2118.231984	38.840000
2119.890199	36.510000
2121.544692	40.960000
2123.202249	36.970000
2124.859476	41.250000
2126.512983	40.530000
2128.167857	41.170000
2129.819012	33.740000
2131.473230	38.160000
2133.123730	37.050000
2134.775598	39.550000
2136.422057	39.870000
2138.073271	42.510000
2139.720771	40.340000
2141.369638	40.490000
2143.016486	38.210000
2144.663009	39.920000
2146.309206	43.480000
2147.951695	33.420000
2149.597241	37.070000
2151.239082	39.850000
2152.883979	39.700000
2154.525170	38.980000
2156.166038	39.600000
2157.806583	39.470000
2159.445115	39.120000
2161.085013	39.400000
2162.721211	40.320000
2164.358775	35.780000
2165.996017	38.480000
2167.631249	34.650000
2169.266159	37.050000
2170.900748	46.310000
2172.535016	36.800000
2174.165590	39.740000
2175.799216	39.480000
2177.429150	39.140000
2179.060449	35.230000
2180.689743	34.680000
2182.318718	38.000000
2183.947373	38.110000
2185.575709	38.240000
2187.202043	40.150000
2188.828057	37.090000
2190.452071	41.110000
2192.077450	34.440000
2193.700828	32.690000
2195.325571	39.510000
2196.946633	35.360000
2198.567378	39.040000
2200.189487	38.720000
2201.809599	41.870000
2203.427715	40.370000
2205.045515	34.060000
2206.663000	31.810000
2208.280169	44.740000
2209.897023	37.570000
2211.513561	37.720000
2213.128107	43.460000
2214.740660	39.540000
2216.354577	37.540000
2217.966503	26.770000
2219.579792	36.620000
2221.191091	40.970000
2222.800400	36.570000
2224.411073	38.090000
2226.019757	40.370000
2227.628128	41.860000
2229.234513	36.600000
2230.842260	34.790000
2232.448022	32.580000
2234.053472	35.580000
2235.656937	35.870000
2237.261765	31.700000
2238.864609	39.450000
2240.465470	35.130000
2242.067694	35.080000
2243.667936	43.300000
2245.269540	40.150000
2246.867491	39.040000
2248.466805	43.420000
2250.064139	36.940000
2251.661165	38.020000
2253.259553	37.000000
2254.854292	35.080000
2256.447054	38.260000
2258.041179	43.680000
2259.636665	40.820000
2261.228506	41.640000
2262.820041	40.780000
2264.412938	38.670000
2266.000525	37.930000
2267.592808	39.620000
2269.179785	36.290000
2270.769789	35.560000
2272.354489	37.490000
2273.943883	35.510000
2275.527974	37.530000
2277.113427	34.740000
2278.696911	39.440000
2280.283420	33.820000
2281.866296	40.410000
2283.448869	39.440000
2285.031138	38.160000
2286.609777	37.320000
2288.191441	38.110000
2289.769476	35.260000
2291.350534	43.730000
2292.927965	39.500000
2294.503433	35.270000
2296.081923	38.860000
2297.656789	38.890000
2299.231354	39.470000
2300.805618	41.820000
2302.379583	39.100000
2303.953246	35.010000
2305.526610	37.450000
2307.096355	35.260000
2308.665801	38.220000
2310.238265	36.340000
2311.805455	37.270000
2313.375663	41.480000
2314.942256	33.490000
2316.510209	36.740000
2318.076206	39.480000
2319.641906	39.310000
2321.207308	37.190000
2322.770757	35.680000
2324.335565	42.060000
2325.896765	48.960000
2327.460979	53.870000
2329.019931	60.700000
2330.581897	53.250000
2332.141913	43.140000
2333.701633	41.460000
2335.259405	41.610000
2336.816881	39.990000
2338.374063	39.130000
2339.929297	37.410000
2341.484238	35.090000
2343.038884	37.010000
2344.593237	33.400000
2346.147296	39.250000
2347.701062	30.530000
2349.252883	39.070000
2350.802762	34.940000
2352.355648	34.140000
2353.903291	36.390000
2355.453943	44.630000
2357.001003	36.410000
2358.549421	39.330000
2360.097548	41.180000
2361.642086	38.310000
2363.187982	41.230000
2364.731940	35.510000
2366.277254	35.380000
2367.818985	38.160000
2369.362072	30.010000
2370.903223	32.390000
2372.444085	36.080000
2373.984658	34.100000
2375.524942	33.770000
2377.064937	37.860000
2378.601354	38.040000
2380.140772	35.020000
2381.676612	38.190000
2383.213810	38.890000
2384.747432	34.620000
2386.284054	33.150000
2387.818746	42.750000
2389.351508	32.490000
2390.883983	37.600000
2392.414530	40.120000
2393.948075	35.940000
2395.476409	36.620000
2397.006099	36.370000
2398.535504	34.390000
2400.064624	37.280000
2401.593458	39.210000
2403.117088	38.750000
2404.645353	42.110000
2406.168416	34.810000
2407.696112	40.290000
2409.216969	37.050000
2410.742458	38.200000
2412.264388	38.790000
2413.787672	37.590000
2415.309036	44.420000
2416.828480	37.730000
2418.349279	37.930000
2419.868159	34.420000
2421.386758	37.270000
2422.903439	36.230000
2424.421474	34.060000
2425.939228	37.510000
2427.453430	35.560000
2428.967353	40.120000
2430.480995	33.820000
2431.995992	40.430000
2433.507440	36.390000
2435.020242	36.960000
2436.531132	37.330000
2438.041743	38.090000
2439.550442	41.790000
2441.062127	37.080000
2442.570269	38.570000
2444.078133	36.990000
2445.585718	35.970000
2447.089764	39.220000
2448.596794	38.390000
2450.101916	38.080000
2451.606761	42.250000
2453.109699	36.140000
2454.612361	37.170000
2456.114746	37.480000
2457.615226	42.210000
2459.117059	37.120000
2460.616987	40.120000
2462.116640	37.120000
2463.616018	34.660000
2465.113493	33.510000
2466.609066	36.900000
2468.107619	36.700000
2469.602644	36.370000
2471.099021	36.080000
2472.591872	39.880000
2474.086076	33.050000
2475.580006	36.950000
2477.070412	35.180000
2478.563796	34.140000
2480.055282	34.230000
2481.544871	39.030000
2483.034188	39.070000
2484.521609	35.740000
2486.012006	36.050000
2487.498885	39.220000
2488.987115	33.810000
2490.471828	31.840000
2491.956272	34.910000
2493.442066	35.910000
2494.925969	32.890000
2496.411222	29.010000
2497.891342	37.590000
2499.374435	34.150000
2500.855637	35.040000
2502.336570	36.590000
2503.815614	41.880000
2505.294389	33.350000
2506.772896	40.400000
2508.251135	34.600000
2509.729105	34.240000
2511.203570	39.680000
2512.681005	39.200000
2514.154936	35.720000
2515.630217	33.510000
2517.105231	36.280000
2518.576744	30.300000
2520.049608	36.360000
2521.520589	40.710000
2522.992920	32.300000
2524.460137	38.230000
2525.930321	34.730000
2527.398624	40.130000
2528.866662	29.830000
2530.334435	38.700000
2531.801943	34.810000
2533.269186	36.390000
2534.732937	36.910000
2536.198038	34.650000
2537.661262	39.760000
2539.125835	38.030000
2540.586920	42.730000
2542.049354	35.630000
2543.511525	32.510000
2544.970210	36.280000
2546.433466	31.850000
2547.891626	34.290000
2549.351136	34.890000
2550.805551	36.680000
2552.264537	38.600000
2553.721651	34.170000
2555.176893	39.810000
2556.631875	35.050000
2558.084988	36.470000
2559.539448	36.010000
2560.992040	36.450000
2562.444372	40.290000
2563.894837	36.850000
2565.348257	38.480000
2566.796595	35.040000
2568.247888	36.800000
2569.697316	30.260000
2571.143271	38.600000
2572.592181	31.410000
2574.037621	33.350000
2575.484408	34.050000
2576.929332	35.910000
2578.373999	36.890000
2579.820013	34.040000
2581.262561	34.920000
2582.706456	31.090000
2584.146885	37.060000
2585.588663	38.400000
2587.028581	31.500000
2588.469846	38.550000
2589.907649	35.750000
2591.348402	36.680000
2592.784093	31.770000
2594.222732	34.380000
2595.659515	39.770000
2597.094442	34.870000
2598.532316	33.640000
2599.965133	35.550000
2601.399297	39.990000
2602.831607	37.420000
2604.265263	38.100000
2605.697066	37.830000
2607.128615	32.660000
2608.559912	36.200000
2609.989356	33.510000
2611.418548	33.950000
2612.845890	34.440000
2614.274577	38.440000
2615.703013	39.530000
2617.128001	34.540000
2618.554336	35.160000
2619.978822	36.630000
2621.404654	34.160000
2622.827042	40.280000
2624.250776	41.450000
2625.672663	41.790000
2627.094300	32.840000
2628.514093	36.660000
2629.935231	33.290000
2631.356119	39.480000
2632.773568	41.070000
2634.193958	40.520000
2635.610910	34.660000
2637.027613	34.500000
2638.444068	36.310000
2639.860275	40.560000
2641.276234	34.070000
2642.690352	35.570000
2644.104222	37.510000
2645.516253	38.790000
2646.929629	41.570000
2648.339575	35.460000
2649.752457	33.170000
2651.161910	40.520000
2652.571117	37.830000
2653.978488	41.320000
2655.388793	35.530000
2656.797263	39.410000
2658.203897	34.830000
2659.610286	43.870000
2661.014841	41.690000
2662.420740	44.540000
2663.824806	50.560000
2665.228627	50.970000
2666.632204	42.650000
2668.033950	44.870000
2669.437039	47.600000
2670.836710	52.260000
2672.237725	47.000000
2673.635324	50.580000
2675.035852	49.160000
2676.432966	49.700000
2677.831423	53.830000
2679.228053	52.670000
2680.624440	52.250000
2682.020585	55.750000
2683.414904	54.080000
2684.810566	52.910000
2686.202819	57.320000
2687.596414	49.280000
2688.988185	53.880000
2690.381299	55.980000
2691.772589	58.590000
2693.162056	54.330000
2694.551283	58.820000
2695.940271	56.640000
2697.330600	48.720000
2698.715946	50.690000
2700.104215	48.120000
2701.490664	50.670000
2702.876874	46.060000
2704.262845	50.760000
2705.645418	55.350000
2707.029333	48.740000
2708.413010	50.980000
2709.796448	47.450000
2711.176491	42.900000
2712.557876	49.060000
2713.937446	40.840000
2715.318356	35.980000
2716.697452	42.120000
2718.074734	36.760000
2719.453357	41.940000
2720.830166	35.300000
2722.206740	40.460000
2723.583078	43.670000
2724.957604	37.130000
2726.333471	36.870000
2727.705952	43.060000
2729.081348	36.470000
2730.451784	37.450000
2731.823561	39.430000
2733.195103	33.920000
2734.564837	37.540000
2735.935911	32.450000
2737.305178	35.400000
2738.674211	37.570000
2740.041438	35.680000
2741.408431	34.630000
2742.775192	35.100000
2744.141720	35.600000
2745.506444	36.760000
2746.870935	32.910000
2748.235195	31.660000
2749.599222	29.890000
2750.963018	38.800000
2752.323440	38.550000
2753.686772	38.250000
2755.045162	39.600000
2756.406462	33.450000
2757.764392	36.840000
2759.125230	33.780000
2760.484268	34.450000
2761.839939	29.490000
2763.198517	32.940000
2764.553728	36.230000
2765.908710	35.910000
2767.261895	32.680000
2768.617987	34.020000
2769.970715	34.050000
2771.323215	34.060000
2772.675486	28.990000
2774.029095	32.670000
2775.379344	36.010000
2776.727798	28.520000
2778.079157	30.700000
2779.427158	33.360000
2780.776496	37.230000
2782.124042	33.180000
2783.471362	35.980000
2784.818455	33.090000
2786.163756	29.340000
2787.508832	31.660000
2788.853682	31.900000
2790.198306	34.310000
2791.539578	31.590000
2792.882187	35.650000
2794.224572	34.060000
2795.566731	30.970000
2796.905541	30.860000
2798.247251	28.100000
2799.585612	32.840000
2800.925311	36.610000
2802.263225	27.430000
2803.599353	32.090000
2804.935259	36.250000
2806.272502	30.720000
2807.607961	33.270000
2808.943197	35.860000
2810.276650	26.830000
2811.611440	33.930000
2812.942890	28.120000
2814.277235	31.110000
2815.606682	27.160000
2816.937465	29.950000
2818.268028	32.670000
2819.596811	28.800000
2820.926930	35.770000
2822.255271	35.940000
2823.583391	29.590000
2824.909733	28.050000
2826.237412	30.070000
2827.561757	32.970000
2828.887439	36.390000
2830.211345	32.860000
2831.535031	26.530000
2832.860053	31.600000
2834.181746	32.660000
2835.503220	33.460000
2836.824475	33.520000
2838.145511	27.260000
2839.464774	31.450000
2840.785373	29.170000
2842.104200	32.640000
2843.422810	30.010000
2844.739648	32.870000
2846.056269	27.140000
2847.372673	28.200000
2848.687307	24.550000
2850.003277	27.180000
2851.315926	26.840000
2852.629910	34.830000
2853.943678	32.110000
2855.257229	28.690000
2856.569014	31.830000
2857.879032	29.920000
2859.190385	31.460000
2860.498423	31.800000
2861.807795	31.140000
2863.116952	27.500000
2864.425895	32.420000
2865.733073	33.500000
2867.038489	30.310000
2868.345238	33.390000
2869.650226	33.740000
2870.954999	32.940000
2872.258012	31.030000
2873.563905	30.100000
2874.864944	27.530000
2876.167317	36.010000
2877.467930	31.070000
2878.769877	32.600000
2880.071610	30.950000
2881.370040	28.120000
2882.669803	33.540000
2883.967809	39.850000
2885.265603	30.430000
2886.561641	29.990000
2887.859012	30.520000
2889.154627	26.470000
2890.450031	31.850000
2891.745224	26.520000
2893.037120	31.990000
2894.331892	36.660000
2895.623367	37.040000
2896.916175	30.110000
2898.208773	31.610000
2899.498077	26.330000
2900.788713	29.690000
2902.077598	31.480000
2903.367815	29.540000
2904.654741	28.400000
2905.942999	33.200000
2907.229508	34.210000
2908.515808	33.350000
2909.801900	25.510000
2911.086245	34.970000
2912.373460	32.840000
2913.655849	28.380000
2914.939570	28.010000
2916.221545	31.320000
2917.503312	32.060000
2918.783334	28.150000
2920.066227	32.680000
2921.347374	27.690000
2922.625239	34.870000
2923.905973	29.670000
2925.183426	25.800000
2926.460673	30.900000
2927.736178	31.650000
2929.014551	31.130000
2930.288110	35.030000
2931.564536	34.000000
2932.839221	32.430000
2934.112165	29.270000
2935.386441	32.870000
2936.658977	28.440000
2937.931308	25.990000
2939.200367	34.450000
2940.472291	30.590000
2941.742477	31.860000
2943.012459	28.900000
2944.282238	28.170000
2945.550281	30.500000
2946.816587	28.350000
2948.082691	25.540000
2949.350126	28.380000
2950.615825	32.060000
2951.881323	30.460000
2953.146618	31.950000
2954.408648	30.820000
2955.672008	28.640000
2956.935167	30.380000
2958.196594	23.710000
2959.459350	24.380000
2960.720374	30.180000
2961.979668	32.150000
2963.238761	29.150000
2964.497655	30.400000
2965.756348	32.620000
2967.014841	30.450000
2968.271604	28.230000
2969.528169	26.100000
2970.783005	31.090000
2972.039171	25.970000
2973.292082	27.940000
2974.546321	32.320000
2975.800362	32.530000
2977.052677	28.630000
2978.304794	28.650000
2979.555186	30.310000
2980.808433	31.490000
2982.056903	26.970000
2983.308228	30.840000
2984.556303	29.400000
2985.804181	25.590000
2987.051863	30.290000
2988.299347	27.220000
2989.545110	28.910000
2990.790677	28.430000
2992.037571	26.510000
2993.281221	31.570000
2994.526199	27.310000
2995.767933	25.570000
2997.012519	27.730000
2998.255386	27.180000
2999.495012	28.290000
3000.737488	26.180000
3001.976724	28.540000
3003.217288	29.040000
3004.456135	27.860000
3005.694788	28.670000
3006.931725	26.770000
3008.169990	28.660000
3009.406539	29.030000
3010.642895	24.250000
3011.879057	25.660000
3013.113505	31.900000
3014.347760	30.500000
3015.581823	25.140000
3016.814172	28.530000
3018.044810	29.780000
3019.278294	30.340000
3020.510067	32.760000
3021.740129	27.270000
3022.969998	30.960000
3024.198158	31.450000
3025.427645	31.650000
3026.655422	26.490000
3027.883008	29.550000
3029.111920	23.910000
3030.336090	22.790000
3031.563104	23.590000
3032.786893	29.030000
3034.012009	31.020000
3035.235418	29.540000
3036.458637	28.290000
3037.680151	31.340000
3038.904506	25.750000
3040.124126	28.650000
3041.345072	27.300000
3042.565829	27.460000
3043.784882	28.520000
3045.005260	29.960000
3046.222422	24.070000
3047.440910	30.750000
3048.657695	29.680000
3049.874293	28.440000
3051.090702	26.820000
3052.303898	28.920000
3053.519933	27.820000
3054.732755	31.640000
3055.948413	30.670000
3057.159350	30.140000
3058.371611	22.710000
3059.583685	31.740000
3060.795573	26.240000
3062.005764	23.170000
3063.215768	24.370000
3064.425586	28.200000
3065.633708	27.900000
3066.841645	26.260000
3068.047886	25.490000
3069.255452	25.350000
3070.461323	25.955000
3071.667009	26.560000
3072.872511	24.880000
3074.076319	30.110000
3075.281451	34.050000
3076.484890	27.790000
3077.686638	26.960000
3078.888201	31.340000
3080.089581	22.030000
3081.290777	32.460000
3082.490283	23.420000
3083.689606	25.920000
3084.890252	25.780000
3086.089208	28.470000
3087.284970	24.610000
3088.483560	29.380000
3089.678958	24.660000
3090.875678	23.460000
3092.069206	25.520000
3093.265562	22.570000
3094.460231	31.180000
3095.651710	24.570000
3096.847521	24.450000
3098.038637	27.890000
3099.231077	26.300000
3100.420329	28.610000
3101.612406	30.660000
3102.802800	27.990000
3103.990008	25.720000
3105.178538	23.490000
3106.368391	24.390000
3107.555060	23.980000
3108.741548	27.130000
3109.927858	23.350000
3111.115489	26.890000
3112.299938	33.250000
3113.482708	23.360000
3114.668300	31.000000
3115.852213	27.840000
3117.034447	26.950000
3118.216502	33.230000
3119.398379	24.510000
3120.580078	24.770000
3121.760100	31.550000
3122.938445	28.130000
3124.119610	29.110000
3125.297600	26.420000
3126.475413	30.320000
3127.653049	24.440000
3128.829010	21.650000
3130.004795	27.140000
3131.181901	30.830000
3132.357332	28.030000
3133.531090	26.540000
3134.703175	30.490000
3135.876582	25.720000
3137.049812	24.720000
3138.221371	28.280000
3139.394250	27.420000
3140.563962	24.150000
3141.734995	21.540000
3142.904358	26.470000
3144.072050	29.520000
3145.242558	22.150000
3146.408408	23.530000
3147.578566	25.740000
3148.744068	24.370000
3149.909395	24.360000
3151.074549	27.040000
3152.239530	21.790000
3153.405830	24.100000
3154.567478	25.470000
3155.730445	27.850000
3156.893240	30.430000
3158.055862	22.230000
3159.216818	25.520000
3160.377603	21.970000
3161.538215	24.370000
3162.697163	23.610000
3163.855940	24.470000
3165.014544	27.030000
3166.172977	30.810000
3167.331239	26.470000
3168.487838	25.350000
3169.642776	20.880000
3170.799033	23.410000
3171.953629	22.990000
3173.108055	29.300000
3174.260821	25.890000
3175.413416	21.670000
3176.565842	22.890000
3177.718098	27.560000
3178.870183	23.030000
3180.019122	25.070000
3181.170869	21.190000
3182.320957	26.730000
3183.469389	24.710000
3184.617651	23.890000
3185.765745	19.190000
3186.913670	24.300000
3188.059939	21.780000
3189.206040	26.260000
3190.350487	24.710000
3191.494766	25.140000
3192.638877	25.070000
3193.784305	23.280000
3194.926595	24.600000
3196.068718	27.700000
3197.210673	25.990000
3198.352461	28.000000
3199.494082	22.850000
3200.632568	19.160000
3201.772371	27.440000
3202.913491	25.590000
3204.051478	29.190000
3205.187815	26.380000
3206.323986	29.780000
3207.461474	23.180000
3208.597314	22.830000
3209.734471	26.200000
3210.867015	22.250000
3212.003841	22.150000
3213.136055	28.960000
3214.269586	19.650000
3215.402953	28.160000
3216.533192	24.040000
3217.666229	21.160000
3218.796140	22.250000
3219.927367	25.770000
3221.055470	22.890000
3222.186369	21.200000
3223.315624	20.620000
3224.443236	25.160000
3225.567725	22.570000
3226.696490	23.850000
3227.822133	25.040000
3228.947613	25.820000
3230.071452	19.340000
3231.198086	19.220000
3232.320122	26.990000
3233.443474	27.600000
3234.566664	26.260000
3235.689691	22.300000
3236.811080	25.940000
3237.932306	24.010000
3239.051894	18.180000
3240.171321	25.940000
3241.289111	27.100000
3242.409692	25.240000
3243.527160	20.990000
3244.644467	25.820000
3245.761614	26.710000
3246.877124	23.740000
3247.993950	27.750000
3249.107666	29.460000
3250.224171	25.170000
3251.339042	28.880000
3252.450803	21.220000
3253.562406	23.340000
3254.675324	29.990000
3255.788082	20.790000
3256.897734	26.510000
3258.008701	23.190000
3259.119509	25.480000
3260.228685	27.460000
3261.336230	25.660000
3262.445090	25.620000
3263.553792	21.060000
3264.659391	29.470000
3265.766304	22.790000
3266.871588	22.570000
3267.978186	23.610000
3269.081684	22.130000
3270.186496	20.790000
3271.291151	25.600000
3272.392708	21.790000
3273.494108	22.280000
3274.596822	26.230000
3275.699380	18.780000
3276.798841	24.820000
3277.901086	21.540000
3279.000235	20.450000
3280.097760	27.900000
3281.195129	22.630000
3282.295280	21.390000
3283.392339	24.870000
3284.489242	27.440000
3285.585990	22.890000
3286.678179	27.770000
3287.774618	20.160000
3288.869434	18.620000
3289.964096	24.010000
3291.057136	18.440000
3292.150021	24.040000
3293.241286	21.350000
3294.333864	24.960000
3295.424822	19.700000
3296.514160	26.340000
3297.603345	22.400000
3298.693842	22.910000
3299.781256	17.880000
3300.868516	24.380000
3301.957089	22.620000
3303.045509	24.090000
3304.129383	23.310000
3305.217498	21.070000
3306.302531	27.650000
3307.385949	18.430000
3308.470679	24.480000
3309.553793	20.260000
3310.638220	26.970000
3311.719568	25.060000
3312.802228	21.680000
3313.883274	30.960000
3314.964168	21.110000
3316.043450	25.880000
3317.122581	23.570000
3318.203024	20.020000
3319.280392	20.710000
3320.359072	23.270000
3321.436140	17.830000
3322.513059	24.310000
3323.588366	20.750000
3324.663524	19.200000
3325.739993	20.560000
3326.813392	23.590000
3327.886641	21.040000
3328.961202	18.510000
3330.034154	19.950000
3331.105497	26.480000
3332.178151	25.540000
3333.247739	22.330000
3334.318637	22.890000
3335.387928	20.460000
3336.458529	24.790000
3337.527525	24.070000
3338.594914	16.560000
3339.660698	22.200000
3340.730708	19.620000
3341.797655	19.210000
3342.861540	19.640000
3343.928192	21.300000
3344.993241	20.020000
3346.056686	21.100000
3347.119985	23.550000
3348.183137	22.630000
3349.246143	16.940000
3350.309003	18.540000
3351.370261	21.730000
3352.428462	19.690000
3353.490883	23.310000
3354.550249	26.260000
3355.609469	21.140000
3356.669998	27.980000
3357.726019	19.180000
3358.784803	20.480000
3359.839080	22.290000
3360.896121	24.820000
3361.951563	30.070000
3363.008315	25.230000
3364.063468	18.780000
3365.117024	25.670000
3366.168984	21.470000
3367.223705	22.740000
3368.275377	14.120000
3369.326906	25.280000
3370.379743	20.740000
3371.429533	21.230000
3372.480632	22.430000
3373.528684	21.570000
3374.579497	28.130000
3375.627264	21.230000
3376.674889	19.300000
3377.722372	17.810000
3378.768262	19.840000
3379.815460	18.430000
3380.859616	22.070000
3381.906530	21.440000
3382.951852	22.580000
3383.994133	22.940000
3385.036273	22.840000
3386.079722	22.780000
3387.123029	21.030000
3388.164746	24.640000
3389.206323	20.070000
3390.247758	20.340000
3391.287605	17.900000
3392.325863	23.890000
3393.365429	25.650000
3394.404855	23.110000
3395.442693	24.940000
3396.478944	22.090000
3397.515056	21.750000
3398.552475	25.180000
3399.586861	16.380000
3400.622554	25.660000
3401.658108	22.960000
3402.690631	19.330000
3403.725906	21.430000
3404.758152	22.040000
3405.790259	24.580000
3406.820782	23.070000
3407.852612	20.090000
3408.884304	23.980000
3409.912968	25.060000
3410.941495	22.460000
3411.971328	18.960000
3413.001024	24.250000
3414.027694	20.790000
3415.055670	22.760000
3416.080623	20.840000
3417.108325	25.350000
3418.133003	25.060000
3419.158989	23.260000
3420.183394	26.130000
3421.207663	19.280000
3422.230353	19.360000
3423.252907	15.810000
3424.276767	20.830000
3425.297607	25.030000
3426.318311	25.220000
3427.340322	22.700000
3428.359314	18.380000
3429.378170	29.060000
3430.398333	21.880000
3431.415479	24.460000
