-118.106446	11.820000
-115.436846	-0.130000
-112.770181	7.530000
-110.104268	12.420000
-107.441287	12.250000
-104.776877	10.690000
-102.115397	12.320000
-99.452487	8.680000
-96.794685	9.460000
-94.135452	5.300000
-91.476968	5.580000
-88.821409	7.950000
-86.164421	11.650000
-83.512530	12.100000
-80.859210	6.400000
-78.208810	11.630000
-75.556980	9.650000
-72.910241	9.570000
-70.262072	11.400000
-67.614647	9.840000
-64.970135	10.830000
-62.324195	8.130000
-59.683336	8.560000
-57.041048	13.520000
-54.401668	7.350000
-51.760860	9.460000
-49.120792	13.840000
-46.485796	8.540000
-43.849371	13.280000
-41.215850	14.890000
-38.580900	18.170000
-35.951015	15.340000
-33.317538	16.900000
-30.689123	17.910000
-28.061441	17.770000
-25.432332	13.860000
-22.808279	22.990000
-20.180637	28.340000
-17.558048	34.930000
-14.936191	53.890000
-12.315064	89.730000
-9.694667	209.130000
-7.077158	660.080000
-4.458221	1975.590000
-1.842170	4287.600000
0.773153	4453.190000
3.387749	2177.660000
5.999462	229.080000
8.612604	49.340000
11.220712	26.850000
13.832402	26.480000
16.439061	21.350000
19.047148	18.210000
21.654511	17.340000
24.256849	22.770000
26.862765	17.460000
29.463659	12.530000
32.065981	19.380000
34.663286	20.260000
37.264166	12.890000
39.860032	14.830000
42.457325	19.140000
45.053899	18.330000
47.645464	19.480000
50.238457	16.630000
52.828589	20.020000
55.420149	19.390000
58.008849	19.330000
60.598976	19.270000
63.184105	21.000000
65.770660	22.590000
68.356502	19.770000
70.939490	22.080000
73.523905	17.270000
76.101190	26.660000
78.682042	25.140000
81.260045	31.320000
83.837338	22.510000
86.416057	25.330000
88.989795	24.810000
91.564959	23.820000
94.137280	31.000000
96.708893	26.330000
99.277666	29.400000
101.847866	36.080000
104.415228	39.950000
106.984015	52.470000
109.549966	57.350000
112.113082	72.370000
114.679754	82.340000
117.237205	117.070000
119.800341	152.270000
122.358518	223.580000
124.920248	324.000000
127.477023	481.960000
130.035223	723.140000
132.588471	1076.530000
135.141020	1549.720000
137.697120	2132.710000
140.248273	2773.630000
142.798727	3388.530000
145.348485	3811.630000
147.895423	4166.990000
150.441665	4331.690000
152.989333	4403.280000
155.536306	4449.300000
158.078342	4397.260000
160.619685	4369.420000
163.160335	4382.350000
165.702411	4327.570000
168.241676	4348.300000
170.778131	4308.210000
173.313896	4284.680000
175.851086	4243.660000
178.387584	4226.160000
180.921277	4211.410000
183.452167	4189.450000
185.982368	4176.260000
188.513994	4148.530000
191.042819	4147.420000
193.568845	4147.570000
196.094186	4120.340000
198.620951	4134.550000
201.144919	4121.820000
203.668203	4127.280000
206.190802	4092.860000
208.710608	4087.330000
211.229731	4082.050000
213.748171	4073.570000
216.268035	4073.640000
218.780898	4091.490000
221.297292	4102.550000
223.813004	4109.300000
226.323827	4098.440000
228.836074	4133.210000
231.345538	4121.220000
233.854324	4126.490000
236.362432	4148.970000
238.871963	4166.210000
241.376615	4160.120000
243.880590	4138.280000
246.385989	4158.610000
248.886513	4181.090000
251.390560	4187.470000
253.887637	4189.050000
256.388236	4201.590000
258.886064	4228.720000
261.383219	4192.770000
263.879701	4221.110000
266.371320	4200.750000
268.866459	4218.750000
271.358832	4211.690000
273.850534	4231.100000
276.339473	4234.900000
278.829835	4235.980000
281.317436	4194.090000
283.802277	4228.040000
286.290632	4189.340000
288.772048	4182.670000
291.256978	4198.080000
293.737063	4200.830000
296.220660	4202.630000
298.699414	4209.150000
301.179592	4222.540000
303.657017	4228.710000
306.133779	4207.890000
308.609878	4225.000000
311.083228	4205.380000
313.555916	4211.190000
316.027943	4206.280000
318.499309	4245.380000
320.967931	4275.470000
323.435893	4279.540000
325.905278	4226.960000
328.369840	4225.030000
330.837905	4216.670000
333.301151	4203.030000
335.763740	4200.430000
338.225671	4177.720000
340.686946	4168.380000
343.145487	4158.200000
345.605450	4130.340000
348.062680	4108.970000
350.519256	4080.340000
352.975178	4051.330000
355.428371	4015.010000
357.882985	4000.260000
360.332798	3975.020000
362.786108	3934.220000
365.234618	3894.110000
367.682478	3869.000000
370.131759	3834.500000
372.576247	3792.460000
375.022157	3747.680000
377.467418	3717.220000
379.909960	3695.520000
382.351854	3654.080000
384.793100	3615.230000
387.231631	3598.690000
389.671584	3548.020000
392.108823	3518.950000
394.543350	3480.950000
396.981365	3480.070000
399.414603	3427.140000
401.849263	3414.210000
404.279149	3384.540000
406.712521	3380.890000
409.141123	3360.160000
411.569084	3304.920000
413.998465	3297.630000
416.423081	3305.190000
418.849119	3274.910000
421.274516	3271.480000
423.699273	3261.280000
426.119272	3254.850000
428.540692	3267.080000
430.959415	3241.200000
433.379559	3237.120000
435.797008	3231.820000
438.215877	3223.370000
440.632053	3228.130000
443.043482	3216.260000
445.458387	3213.280000
447.870602	3204.800000
450.282183	3208.530000
452.693130	3209.010000
455.101391	3191.620000
457.509019	3159.070000
459.916016	3173.470000
462.322380	3161.110000
464.726062	3161.060000
467.129114	3136.020000
469.531536	3127.890000
471.933329	3114.970000
474.332443	3102.090000
476.732977	3114.890000
479.132882	3099.140000
481.528064	3089.740000
483.926713	3088.280000
486.320642	3070.510000
488.713945	3063.920000
491.106622	3037.310000
493.498674	3053.890000
495.892145	3010.080000
498.280903	3017.330000
500.666995	3013.130000
503.054507	2983.830000
505.441395	2972.770000
507.825620	2986.100000
510.211264	2974.820000
512.594245	2959.340000
514.974566	2949.130000
517.356306	2968.710000
519.735387	2953.050000
522.115887	2959.340000
524.493729	2939.610000
526.868916	2955.230000
529.243485	2925.700000
531.619473	2921.490000
533.992807	2884.990000
536.367559	2878.690000
538.737626	2852.110000
541.107077	2845.660000
543.477946	2793.190000
545.844135	2744.880000
548.211742	2737.260000
550.576703	2695.540000
552.941051	2667.800000
555.304787	2625.830000
557.669940	2595.700000
560.030420	2576.810000
562.392319	2538.710000
564.751578	2504.510000
567.108198	2451.970000
569.468263	2418.490000
571.821638	2378.890000
574.178457	2371.510000
576.532640	2324.320000
578.886216	2290.680000
581.239183	2241.140000
583.589519	2210.380000
585.941271	2203.000000
588.286347	2160.530000
590.636887	2128.460000
592.980754	2106.750000
595.330081	2080.420000
597.674761	2075.510000
600.016815	2055.420000
602.360287	2027.750000
604.701136	2006.380000
607.041383	2004.910000
609.379009	1998.120000
611.720070	1992.170000
614.056494	1993.820000
616.394334	1984.670000
618.729556	1978.720000
621.062163	1980.200000
623.396186	1998.800000
625.727596	2003.320000
628.058407	1983.450000
630.388620	1981.590000
632.718235	1984.650000
635.043228	1984.180000
637.373662	1969.380000
639.699474	1971.790000
642.022680	1973.080000
644.347301	1952.030000
646.669318	1966.590000
648.990740	1955.850000
651.309559	1963.170000
653.629794	1963.970000
655.949436	1956.250000
658.266477	1976.230000
660.582926	1993.870000
662.896778	1985.750000
665.212044	2014.450000
667.524714	2030.910000
669.838799	2040.590000
672.148284	2081.360000
674.459185	2093.690000
676.767493	2097.380000
679.075213	2113.070000
681.384348	2142.510000
683.688890	2163.830000
685.992845	2171.590000
688.296215	2189.850000
690.600999	2222.360000
692.901197	2225.320000
695.202809	2268.090000
697.503837	2253.740000
699.800282	2286.190000
702.098143	2310.920000
704.395420	2309.920000
706.692114	2331.080000
708.984232	2341.220000
711.279761	2366.240000
713.570717	2409.980000
715.863087	2403.680000
718.152881	2431.560000
720.442096	2442.000000
722.730730	2470.130000
725.016793	2493.600000
727.304269	2518.050000
729.589175	2520.930000
731.873502	2550.620000
734.155261	2566.030000
736.438434	2573.760000
738.721030	2590.040000
740.999071	2620.850000
743.278525	2643.350000
745.557404	2678.740000
747.835707	2703.540000
750.109461	2731.090000
752.384629	2744.010000
754.659223	2775.720000
756.931258	2794.050000
759.204705	2828.900000
761.475595	2849.920000
763.743929	2858.160000
766.013676	2896.240000
768.280869	2923.980000
770.547491	2952.920000
772.813544	2993.570000
775.077044	2980.700000
777.341958	3005.810000
779.606302	3035.560000
781.866117	3054.740000
784.127345	3063.900000
786.388005	3086.850000
788.646118	3120.920000
790.901687	3130.160000
793.160647	3159.730000
795.413108	3164.480000
797.670936	3181.350000
799.924244	3197.940000
802.175013	3205.310000
804.427194	3213.720000
806.676837	3216.600000
808.927891	3249.750000
811.174434	3232.880000
813.422389	3250.390000
815.667810	3284.440000
817.914642	3286.220000
820.160913	3294.280000
822.402680	3319.050000
824.647829	3329.860000
826.886506	3351.190000
829.128566	3366.830000
831.366127	3381.560000
833.605099	3393.030000
835.841545	3416.270000
838.079402	3428.540000
840.314735	3449.340000
842.547543	3495.660000
844.781763	3513.720000
847.013461	3530.710000
849.244604	3573.310000
851.475192	3602.430000
853.705226	3673.090000
855.934705	3701.860000
858.159703	3742.760000
860.388076	3808.620000
862.611970	3870.470000
864.837274	3923.290000
867.058103	3997.720000
869.282304	4043.290000
871.502032	4122.610000
873.723171	4187.800000
875.943759	4288.590000
878.161837	4375.260000
880.381326	4446.980000
882.596348	4490.900000
884.810822	4560.160000
887.024749	4635.580000
889.238128	4650.030000
891.450960	4678.470000
893.663246	4704.820000
895.873029	4756.730000
898.082267	4737.710000
900.290960	4757.470000
902.497154	4723.620000
904.704757	4686.310000
906.909863	4648.830000
909.114425	4609.190000
911.316491	4554.190000
913.519967	4470.090000
915.720949	4390.100000
917.921390	4300.760000
920.123239	4208.540000
922.318696	4098.100000
924.517513	4001.820000
926.711891	3891.690000
928.909627	3784.020000
931.102927	3688.590000
933.297636	3613.300000
935.489859	3522.300000
937.681544	3449.030000
939.872691	3384.710000
942.061355	3369.020000
944.249482	3333.440000
946.435129	3268.740000
948.624128	3248.330000
950.808704	3248.850000
952.992745	3237.340000
955.180136	3232.460000
957.359223	3239.110000
959.541661	3233.820000
961.723565	3225.480000
963.902995	3239.790000
966.079952	3239.430000
968.258316	3245.590000
970.438088	3225.340000
972.611511	3208.920000
974.788280	3189.910000
976.960643	3184.120000
979.134412	3146.330000
981.303778	3093.770000
983.476489	3064.180000
985.646733	3016.740000
987.816449	2969.930000
989.985636	2922.680000
992.150426	2884.950000
994.318557	2845.350000
996.482294	2770.690000
998.647437	2723.110000
1000.810122	2681.960000
1002.972280	2634.810000
1005.131982	2597.060000
1007.291160	2544.140000
1009.451744	2486.720000
1011.609873	2435.340000
1013.767478	2399.570000
1015.924560	2353.950000
1018.081119	2306.630000
1020.233298	2287.650000
1022.386883	2239.700000
1024.539947	2210.540000
1026.690563	2183.710000
1028.842584	2156.860000
1030.990232	2125.080000
1033.141212	2107.630000
1035.287821	2061.900000
1037.433912	2049.220000
1039.579483	2023.130000
1041.726460	2001.000000
1043.867149	1985.870000
1046.011166	1940.400000
1048.152743	1926.090000
1050.293804	1920.680000
1052.436269	1890.790000
1054.572455	1886.200000
1056.711967	1855.930000
1058.847123	1843.060000
1060.985604	1831.870000
1063.119731	1793.950000
1065.253345	1790.130000
1067.388364	1756.240000
1069.519033	1750.930000
1071.651107	1732.830000
1073.780752	1703.640000
1075.909885	1689.100000
1078.038506	1658.660000
1080.166616	1655.080000
1082.292300	1630.120000
1084.417474	1617.840000
1086.544052	1571.460000
1088.666293	1555.080000
1090.789937	1526.630000
1092.909248	1510.250000
1095.033787	1467.850000
1097.152081	1450.590000
1099.271780	1413.830000
1101.389060	1408.510000
1103.505834	1365.530000
1105.622101	1346.630000
1107.735953	1321.310000
1109.851208	1288.500000
1111.962141	1265.890000
1114.076385	1244.950000
1116.186309	1228.200000
1118.297637	1183.500000
1120.408460	1178.040000
1122.514968	1139.570000
1124.624784	1126.450000
1126.730286	1111.180000
1128.837191	1077.780000
1130.937881	1048.960000
1133.043783	1039.200000
1135.145376	1018.060000
1137.248372	1001.710000
1139.350867	969.830000
1141.447155	946.310000
1143.548651	927.300000
1145.645844	908.220000
1147.742538	882.440000
1149.838734	879.500000
1151.934433	857.580000
1154.029634	833.700000
1156.122438	819.150000
1158.216644	814.420000
1160.304659	794.300000
1162.397872	779.020000
1164.484897	760.230000
1166.575221	740.370000
1168.661258	736.990000
1170.750592	716.990000
1172.833745	698.540000
1174.918301	694.830000
1177.004257	670.870000
1179.085932	673.600000
1181.169009	654.680000
1183.249700	645.090000
1185.329899	638.010000
1187.409607	622.350000
1189.488824	616.990000
1191.565659	608.490000
1193.640113	596.790000
1195.717859	601.580000
1197.791334	581.180000
1199.866210	573.540000
1201.936819	573.690000
1204.008830	567.700000
1206.078464	557.660000
1208.149499	557.490000
1210.220046	554.870000
1212.286332	545.790000
1214.354019	548.230000
1216.419334	542.020000
1218.486049	535.730000
1220.548508	526.920000
1222.614252	523.420000
1224.675743	525.580000
1226.738633	521.330000
1228.799156	515.460000
1230.859195	520.130000
1232.918752	515.750000
1234.975943	519.040000
1237.032653	517.480000
1239.087000	514.780000
1241.144627	504.610000
1243.199892	502.950000
1245.250916	505.070000
1247.303340	501.650000
1249.355284	494.040000
1251.404870	501.600000
1253.453977	499.220000
1255.502606	499.330000
1257.550756	500.410000
1259.598428	494.320000
1261.641869	497.050000
1263.688585	493.080000
1265.732948	488.990000
1267.776835	488.680000
1269.818371	485.530000
1271.857557	485.830000
1273.900015	486.180000
1275.938251	494.730000
1277.977886	483.840000
1280.017046	485.440000
1282.051987	482.110000
1284.088328	481.430000
1286.122323	480.990000
1288.157717	479.950000
1290.188897	477.770000
1292.221476	483.380000
1294.253582	492.350000
1296.283348	481.370000
1298.314512	480.250000
1300.341468	477.750000
1302.369822	481.910000
1304.393972	483.420000
1306.421386	480.980000
1308.444598	477.150000
1310.469208	483.850000
1312.491484	483.650000
1314.515157	481.510000
1316.536497	487.000000
1318.557369	486.620000
1320.577775	492.200000
1322.593986	488.830000
1324.611596	491.600000
1326.626877	491.900000
1328.645416	497.410000
1330.659767	495.450000
1332.671792	495.740000
1334.687074	502.020000
1336.698171	496.690000
1338.710665	502.540000
1340.718976	513.060000
1342.730543	504.130000
1344.736070	507.340000
1346.744853	507.820000
1348.749458	511.870000
1350.757317	505.650000
1352.764714	507.220000
1354.766080	510.270000
1356.768843	511.730000
1358.771145	514.080000
1360.772988	509.150000
1362.774371	506.110000
1364.773441	512.250000
1366.772052	501.830000
1368.770205	505.680000
1370.767900	500.600000
1372.761431	505.040000
1374.756359	512.950000
1376.750830	498.880000
1378.744844	500.770000
1380.736551	509.140000
1382.727802	499.820000
1384.716748	502.300000
1386.707089	496.800000
1388.696975	497.020000
1390.684558	498.980000
1392.671686	490.880000
1394.656514	492.010000
1396.642735	495.840000
1398.626657	484.040000
1400.610126	494.160000
1402.593143	485.640000
1404.573861	485.040000
1406.555975	487.080000
1408.535791	476.970000
1410.515157	485.480000
1412.490383	478.630000
1414.468849	469.570000
1416.445020	471.290000
1418.420743	469.250000
1420.396016	476.500000
1422.368998	471.150000
1424.341532	468.370000
1426.313619	456.420000
1428.285257	463.950000
1430.252767	456.840000
1432.225352	457.860000
1434.190130	450.560000
1436.159981	460.780000
1438.125707	451.050000
1440.092826	456.400000
1442.057662	449.740000
1444.018379	451.850000
1445.984163	446.200000
1447.943992	448.220000
1449.905214	435.060000
1451.867829	439.050000
1453.826329	439.120000
1455.784387	438.630000
1457.742002	438.680000
1459.699176	427.190000
1461.654074	433.000000
1463.610364	441.750000
1465.564380	426.440000
1467.517956	431.720000
1469.469259	431.100000
1471.421954	432.580000
1473.372378	424.990000
1475.322363	420.980000
1477.271908	422.030000
1479.219185	431.660000
1481.164195	412.790000
1483.110596	417.940000
1485.056561	416.780000
1487.002087	426.420000
1488.945349	407.220000
1490.888174	412.420000
1492.828736	411.510000
1494.770689	415.690000
1496.710381	412.940000
1498.649637	410.730000
1500.588458	402.790000
1502.525020	407.430000
1504.462973	410.750000
1506.398668	405.410000
1508.333929	411.910000
1510.266933	409.320000
1512.199505	404.570000
1514.131645	406.140000
1516.063353	404.690000
1517.992807	405.600000
1519.923652	398.470000
1521.854066	403.590000
1523.780406	396.090000
1525.708138	407.050000
1527.633619	400.540000
1529.558671	401.490000
1531.483294	394.660000
1533.407488	399.440000
1535.329435	400.750000
1537.252771	395.730000
1539.173862	390.740000
1541.092708	399.160000
1543.012944	396.140000
1544.930936	395.990000
1546.848502	393.360000
1548.763826	394.760000
1550.680540	399.080000
1552.593199	401.090000
1554.509062	395.880000
1556.422685	392.410000
1558.334071	394.470000
1560.246845	391.250000
1562.155570	390.250000
1564.065685	393.140000
1565.975376	388.570000
1567.884643	387.140000
1569.791677	394.230000
1571.696478	397.080000
1573.602668	395.970000
1575.506626	397.260000
1577.410164	397.280000
1579.313280	393.250000
1581.214168	398.680000
1583.116443	391.110000
1585.016491	394.610000
1586.917926	399.070000
1588.815328	388.860000
1590.712311	386.800000
1592.608876	383.890000
1594.506829	390.370000
1596.398947	384.920000
1598.294258	386.870000
1600.189152	384.620000
1602.081824	385.990000
1603.974080	388.800000
1605.864115	374.950000
1607.753736	376.340000
1609.642940	381.890000
1611.531730	376.750000
1613.418303	379.950000
1615.306262	378.750000
1617.190205	382.570000
1619.075536	379.140000
1620.960452	382.300000
1622.843155	376.400000
1624.727245	376.330000
1626.607324	375.520000
1628.488789	376.730000
1630.368044	371.150000
1632.248685	374.830000
1634.123522	377.760000
1636.003341	372.070000
1637.879154	371.100000
1639.754557	372.180000
1641.631347	371.290000
1643.502339	369.790000
1645.376513	376.210000
1647.246689	372.430000
1649.120045	363.970000
1650.991198	368.230000
1652.860149	375.100000
1654.730486	374.430000
1656.596829	367.000000
1658.464558	370.240000
1660.330089	370.650000
1662.197004	365.250000
1664.059931	365.250000
1665.924243	362.390000
1667.786359	355.060000
1669.648071	364.490000
1671.511167	363.740000
1673.372069	364.530000
1675.230777	359.850000
1677.089082	358.360000
1678.948772	367.570000
1680.802695	363.140000
1682.659790	362.400000
1684.516483	357.830000
1686.369200	355.810000
1688.225087	357.240000
1690.077001	358.180000
1691.928514	356.260000
1693.779626	350.010000
1695.630338	358.820000
1697.480649	359.230000
1699.328776	349.080000
1701.178286	351.300000
1703.022048	356.290000
1704.870759	347.510000
1706.713725	346.480000
1708.559856	357.390000
1710.402026	348.000000
1712.247360	354.250000
1714.086954	355.730000
1715.927932	360.020000
1717.770293	354.040000
1719.608698	349.160000
1721.448486	349.050000
1723.286099	347.220000
1725.123316	348.340000
1726.958360	348.730000
1728.794787	349.960000
1730.629042	350.770000
1732.462902	353.950000
1734.296369	354.410000
1736.125889	346.920000
1737.958568	345.950000
1739.787303	346.650000
1741.619196	343.500000
1743.447146	350.880000
1745.274704	350.270000
1747.101870	347.060000
1748.928645	342.720000
1750.755029	349.390000
1752.577476	348.570000
1754.403077	348.720000
1756.224744	345.980000
1758.047793	353.710000
1759.868681	347.310000
1761.689179	350.610000
1763.511059	350.440000
1765.327239	343.800000
1767.146571	351.680000
1768.961976	348.260000
1770.780531	349.510000
1772.595161	347.740000
1774.409405	344.030000
1776.223261	345.210000
1778.036731	350.540000
1779.848048	348.820000
1781.660746	348.500000
1783.473057	348.330000
1785.281451	346.140000
1787.091226	348.720000
1788.897085	352.100000
1790.706090	343.940000
1792.511182	344.470000
1794.317655	346.340000
1796.123744	340.950000
1797.925923	342.200000
1799.731245	342.150000
1801.532659	341.570000
1803.335453	349.450000
1805.134341	346.450000
1806.934610	343.870000
1808.734497	334.160000
1810.532243	342.590000
1812.329607	343.120000
1814.126592	347.270000
1815.923196	338.040000
1817.717661	348.280000
1819.513505	340.350000
1821.303695	333.670000
1823.098781	342.090000
1824.888214	338.120000
1826.680784	338.000000
1828.471219	340.170000
1830.259520	341.040000
1832.050956	342.130000
1833.836746	333.940000
1835.623916	334.330000
1837.408954	340.090000
1839.197126	336.970000
1840.981412	330.220000
1842.763569	331.710000
1844.547104	334.760000
1846.328511	336.780000
1848.111297	333.270000
1849.890203	336.220000
1851.670487	336.250000
1853.448645	331.810000
1855.228182	334.530000
1857.005594	334.800000
1858.780882	336.060000
1860.557549	333.330000
1862.332092	342.290000
1864.108014	327.250000
1865.878316	332.210000
1867.651744	334.000000
1869.423053	332.520000
1871.193992	335.110000
1872.966307	337.250000
1874.733010	338.650000
1876.502837	328.380000
1878.268801	331.550000
1880.037889	334.670000
1881.803115	333.220000
1883.567972	335.230000
1885.334207	332.160000
1887.096583	337.540000
1888.858592	328.620000
1890.620233	334.210000
1892.381508	332.740000
1894.142415	333.390000
1895.902956	336.350000
1897.661387	340.250000
1899.419453	332.600000
1901.175410	330.430000
1902.932745	327.390000
1904.689713	323.980000
1906.444576	322.250000
1908.197333	339.630000
1909.949727	332.120000
1911.703496	330.410000
1913.455162	328.490000
1915.204726	331.490000
1916.955666	322.700000
1918.706242	328.040000
1920.452979	326.120000
1922.201093	332.780000
1923.947107	327.270000
1925.694497	330.080000
1927.439788	323.510000
1929.182982	329.310000
1930.927552	319.780000
1932.670025	326.010000
1934.412138	325.940000
1936.153891	329.690000
1937.895285	323.630000
1939.634585	329.500000
1941.373525	323.540000
1943.112108	325.500000
1944.848598	322.640000
1946.584731	322.540000
1948.322238	322.440000
1950.055923	330.000000
1951.790983	334.140000
1953.523955	323.530000
1955.256570	318.910000
1956.988828	331.270000
1958.720730	334.450000
1960.450546	333.140000
1962.178278	322.630000
1963.907383	329.160000
1965.636134	322.230000
1967.362801	322.540000
1969.089114	331.920000
1970.816800	335.880000
1972.538950	321.210000
1974.264201	326.250000
1975.985646	331.180000
1977.710190	332.140000
1979.432655	320.770000
1981.151316	326.150000
1982.873076	328.580000
1984.591034	329.660000
1986.310365	320.920000
1988.025897	336.180000
1989.746250	325.540000
1991.462803	331.970000
1993.175561	327.510000
1994.891414	327.290000
1996.605194	328.380000
1998.318625	326.750000
2000.029985	325.900000
2001.742718	330.350000
2003.451659	321.910000
2005.163694	328.610000
2006.870219	320.860000
2008.579837	329.250000
2010.287387	325.150000
2011.994590	323.730000
2013.699727	327.760000
2015.404517	330.530000
2017.110679	322.920000
2018.813059	326.290000
2020.516811	324.740000
2022.218499	326.250000
2023.919843	327.850000
2025.620841	328.080000
2027.319779	325.300000
2029.020087	325.950000
2030.716621	321.930000
2032.414526	328.510000
2034.110372	326.630000
2035.809304	329.080000
2037.502750	326.250000
2039.197568	324.750000
2040.892042	327.060000
2042.582748	328.470000
2044.276538	329.050000
2045.966561	333.640000
2047.657955	325.860000
2049.347296	329.010000
2051.038007	324.430000
2052.724956	326.140000
2054.411564	326.150000
2056.099543	326.330000
2057.783762	319.990000
2059.469351	326.030000
2061.154601	319.520000
2062.837803	314.440000
2064.522374	315.810000
2066.201483	320.280000
2067.885377	321.570000
2069.563811	318.590000
2071.245321	317.060000
2072.923081	319.750000
2074.600503	314.600000
2076.279296	315.080000
2077.956045	316.560000
2079.630753	318.780000
2081.306830	313.500000
2082.980867	316.540000
2084.654568	320.570000
2086.327934	311.180000
2087.999262	313.930000
2089.670255	314.900000
2091.340914	318.540000
2093.011238	317.500000
2094.681229	313.370000
2096.349184	316.100000
2098.016806	317.070000
2099.682393	314.030000
2101.349350	316.960000
2103.014272	321.200000
2104.678863	323.050000
2106.341422	319.720000
2108.005349	320.360000
2109.667246	320.380000
2111.328811	317.110000
2112.990045	320.100000
2114.649251	315.570000
2116.308126	321.680000
2117.966672	316.620000
2119.624888	320.140000
2121.279380	314.150000
2122.936937	316.220000
2124.594165	317.790000
2126.247671	311.410000
2127.902545	315.580000
2129.553701	313.070000
2131.207918	317.890000
2132.858419	321.320000
2134.510286	317.990000
2136.156745	314.760000
2137.807959	311.420000
2139.455459	320.270000
2141.104326	318.480000
2142.751175	317.440000
2144.397697	313.380000
2146.043894	323.190000
2147.686383	319.850000
2149.331930	318.160000
2150.973770	316.010000
2152.618667	317.770000
2154.259859	312.480000
2155.900727	312.390000
2157.541271	302.950000
2159.179803	310.880000
2160.819702	304.870000
2162.455900	313.460000
2164.093464	313.460000
2165.730705	313.500000
2167.365937	310.440000
2169.000848	311.460000
2170.635437	309.440000
2172.269704	309.670000
2173.900279	310.400000
2175.533904	309.740000
2177.163838	313.000000
2178.795137	302.220000
2180.424432	305.290000
2182.053406	311.210000
2183.682062	307.970000
2185.310398	305.940000
2186.936731	310.660000
2188.562746	310.060000
2190.186760	301.480000
2191.812138	314.040000
2193.435517	303.540000
2195.060259	308.940000
2196.681321	303.320000
2198.302066	307.270000
2199.924176	300.460000
2201.544288	300.690000
2203.162403	302.780000
2204.780203	304.500000
2206.397688	304.480000
2208.014857	302.930000
2209.631711	304.080000
2211.248250	301.580000
2212.862795	308.830000
2214.475348	307.040000
2216.089265	298.590000
2217.701191	302.810000
2219.314480	306.230000
2220.925779	301.370000
2222.535088	300.330000
2224.145761	305.290000
2225.754445	309.040000
2227.362817	298.560000
2228.969201	298.220000
2230.576949	304.200000
2232.182710	297.700000
2233.788160	300.790000
2235.391625	306.700000
2236.996454	304.950000
2238.599298	305.230000
2240.200159	300.980000
2241.802383	302.750000
2243.402624	309.670000
2245.004228	299.940000
2246.602180	303.640000
2248.201494	302.880000
2249.798828	305.140000
2251.395853	304.550000
2252.994241	306.340000
2254.588980	303.990000
2256.181742	307.180000
2257.775867	299.520000
2259.371353	307.160000
2260.963195	292.390000
2262.554730	302.570000
2264.147626	295.430000
2265.735213	301.040000
2267.327497	302.820000
2268.914473	303.290000
2270.504478	301.040000
2272.089178	299.630000
2273.678572	297.040000
2275.262663	301.500000
2276.848116	292.820000
2278.431599	299.260000
2280.018109	289.840000
2281.600985	297.530000
2283.183557	291.310000
2284.765826	296.000000
2286.344466	294.430000
2287.926129	291.100000
2289.504164	298.090000
2291.085222	288.070000
2292.662654	288.030000
2294.238121	287.990000
2295.816611	291.450000
2297.391477	293.110000
2298.966042	291.930000
2300.540307	288.550000
2302.114271	288.010000
2303.687935	295.700000
2305.261298	288.840000
2306.831043	292.890000
2308.400489	287.190000
2309.972954	288.200000
2311.540143	292.810000
2313.110351	289.620000
2314.676944	294.000000
2316.244897	293.830000
2317.810894	288.930000
2319.376594	292.100000
2320.941997	294.020000
2322.505445	284.590000
2324.070253	299.050000
2325.631453	296.300000
2327.195667	308.720000
2328.754620	310.020000
2330.316586	303.840000
2331.876602	301.050000
2333.436322	291.320000
2334.994093	299.980000
2336.551569	297.180000
2338.108751	298.970000
2339.663986	298.530000
2341.218926	302.760000
2342.773573	298.710000
2344.327926	303.180000
2345.881985	295.800000
2347.435750	301.430000
2348.987572	295.500000
2350.537450	293.540000
2352.090336	300.390000
2353.637980	303.500000
2355.188631	291.790000
2356.735692	295.460000
2358.284110	291.570000
2359.832236	295.840000
2361.376774	286.630000
2362.922671	301.170000
2364.466628	300.280000
2366.011943	294.330000
2367.553673	293.860000
2369.096760	300.040000
2370.637912	297.990000
2372.178774	294.710000
2373.719347	297.450000
2375.259631	296.540000
2376.799625	301.100000
2378.336042	301.190000
2379.875460	293.120000
2381.411301	303.900000
2382.948498	293.720000
2384.482120	298.280000
2386.018743	298.700000
2387.553434	298.640000
2389.086196	296.850000
2390.618671	290.770000
2392.149219	294.690000
2393.682764	301.330000
2395.211098	300.290000
2396.740788	305.600000
2398.270193	297.080000
2399.799312	294.760000
2401.328147	292.170000
2402.851776	301.960000
2404.380042	297.760000
2405.903104	301.430000
2407.430800	298.730000
2408.951657	306.130000
2410.477147	296.250000
2411.999076	305.380000
2413.522361	303.820000
2415.043725	304.340000
2416.563169	297.170000
2418.083968	305.320000
2419.602848	304.300000
2421.121446	302.240000
2422.638127	294.830000
2424.156162	306.350000
2425.673916	303.470000
2427.188119	298.140000
2428.702041	293.280000
2430.215683	303.050000
2431.730680	302.690000
2433.242128	302.190000
2434.754931	302.010000
2436.265821	298.480000
2437.776431	299.500000
2439.285130	299.080000
2440.796816	296.470000
2442.304957	302.130000
2443.812821	293.380000
2445.320407	289.870000
2446.824452	295.230000
2448.331483	293.330000
2449.836605	298.770000
2451.341450	300.020000
2452.844388	288.940000
2454.347049	297.210000
2455.849434	286.430000
2457.349914	298.090000
2458.851747	291.350000
2460.351676	297.990000
2461.851329	291.570000
2463.350706	288.480000
2464.848181	281.890000
2466.343755	296.610000
2467.842308	279.200000
2469.337332	288.790000
2470.833710	291.610000
2472.326561	290.030000
2473.820764	286.670000
2475.314694	282.530000
2476.805101	283.120000
2478.298484	289.140000
2479.789970	280.600000
2481.279559	283.190000
2482.768876	286.040000
2484.256298	286.930000
2485.746695	282.170000
2487.233573	294.300000
2488.721803	278.370000
2490.206517	290.490000
2491.690960	283.580000
2493.176755	284.720000
2494.660657	279.700000
2496.145911	287.570000
2497.626031	286.880000
2499.109123	289.800000
2500.590325	285.680000
2502.071258	292.740000
2503.550302	278.340000
2505.029077	283.830000
2506.507584	286.620000
2507.985823	293.020000
2509.463793	288.550000
2510.938259	282.430000
2512.415693	281.090000
2513.889624	289.070000
2515.364906	285.000000
2516.839920	288.470000
2518.311433	284.140000
2519.784296	286.020000
2521.255277	285.700000
2522.727608	293.200000
2524.194826	293.920000
2525.665009	286.850000
2527.133312	284.210000
2528.601350	289.150000
2530.069123	289.940000
2531.536631	295.160000
2533.003874	290.250000
2534.467625	292.540000
2535.932726	283.920000
2537.395950	288.370000
2538.860524	288.560000
2540.321608	299.880000
2541.784042	287.720000
2543.246213	291.310000
2544.704898	291.310000
2546.168155	293.020000
2547.626315	294.070000
2549.085824	291.400000
2550.540240	288.290000
2551.999225	289.520000
2553.456339	297.730000
2554.911582	290.780000
2556.366564	283.840000
2557.819676	293.850000
2559.274137	289.030000
2560.726729	287.830000
2562.179061	281.910000
2563.629525	294.250000
2565.082945	293.360000
2566.531283	292.780000
2567.982577	285.920000
2569.432004	286.560000
2570.877959	291.880000
2572.326870	289.340000
2573.772309	280.630000
2575.219097	291.270000
2576.664021	289.950000
2578.108688	287.860000
2579.554702	288.080000
2580.997249	289.410000
2582.441144	283.950000
2583.881574	286.330000
2585.323351	282.590000
2586.763269	292.050000
2588.204534	285.700000
2589.642338	285.620000
2591.083091	286.330000
2592.518781	283.730000
2593.957421	285.860000
2595.394204	289.140000
2596.829130	281.910000
2598.267005	281.470000
2599.699821	286.850000
2601.133985	292.220000
2602.566295	285.440000
2603.999951	285.460000
2605.431754	284.450000
2606.863304	287.710000
2608.294600	285.010000
2609.724044	281.430000
2611.153237	286.630000
2612.580578	287.660000
2614.009266	283.690000
2615.437701	289.810000
2616.862689	285.340000
2618.289024	289.900000
2619.713510	287.170000
2621.139342	280.930000
2622.561730	279.860000
2623.985464	284.730000
2625.407351	283.360000
2626.828989	286.090000
2628.248781	279.040000
2629.669919	287.510000
2631.090807	280.330000
2632.508257	286.270000
2633.928646	283.570000
2635.345598	291.670000
2636.762302	278.110000
2638.178757	287.410000
2639.594964	284.990000
2641.010922	285.100000
2642.425040	285.060000
2643.838911	281.030000
2645.250942	285.320000
2646.664318	285.220000
2648.074264	283.560000
2649.487145	288.370000
2650.896599	283.500000
2652.305806	284.230000
2653.713177	285.180000
2655.123482	287.240000
2656.531951	279.530000
2657.938585	287.410000
2659.344974	288.630000
2660.749529	288.350000
2662.155428	287.520000
2663.559494	283.270000
2664.963316	284.240000
2666.366893	281.600000
2667.768638	285.380000
2669.171727	290.380000
2670.571399	291.180000
2671.972413	293.830000
2673.370012	293.810000
2674.770541	292.960000
2676.167655	284.980000
2677.566112	289.180000
2678.962741	290.190000
2680.359128	290.190000
2681.755274	285.940000
2683.149593	285.490000
2684.545255	284.230000
2685.937507	287.840000
2687.331103	281.820000
2688.722874	290.070000
2690.115987	281.210000
2691.507277	280.500000
2692.896744	282.830000
2694.285971	286.160000
2695.674959	283.310000
2697.065289	286.040000
2698.450634	278.670000
2699.838903	279.880000
2701.225352	283.480000
2702.611562	286.690000
2703.997534	279.110000
2705.380106	282.520000
2706.764021	284.530000
2708.147698	278.790000
2709.531137	278.210000
2710.911180	285.050000
2712.292565	279.380000
2713.672134	278.500000
2715.053045	277.300000
2716.432141	290.200000
2717.809422	278.210000
2719.188045	281.220000
2720.564855	286.050000
2721.941429	289.280000
2723.317767	280.980000
2724.692293	280.910000
2726.068160	280.490000
2727.440640	278.490000
2728.816036	279.950000
2730.186472	276.450000
2731.558249	276.120000
2732.929791	285.460000
2734.299525	275.350000
2735.670600	278.100000
2737.039867	279.040000
2738.408900	276.600000
2739.776126	279.110000
2741.143120	280.220000
2742.509881	279.170000
2743.876409	278.710000
2745.241132	278.930000
2746.605624	280.360000
2747.969883	282.630000
2749.333910	284.500000
2750.697706	281.190000
2752.058128	280.610000
2753.421461	278.180000
2754.779851	272.280000
2756.141151	280.930000
2757.499080	279.170000
2758.859919	274.040000
2760.218957	277.920000
2761.574627	275.170000
2762.933205	269.810000
2764.288417	272.200000
2765.643399	273.620000
2766.996584	274.100000
2768.352676	275.930000
2769.705404	274.910000
2771.057903	276.200000
2772.410174	272.370000
2773.763784	276.840000
2775.114032	271.470000
2776.462487	276.270000
2777.813846	273.000000
2779.161846	269.290000
2780.511185	274.470000
2781.858731	274.680000
2783.206050	276.180000
2784.553143	265.390000
2785.898445	272.280000
2787.243521	273.130000
2788.588371	263.760000
2789.932994	270.710000
2791.274266	270.400000
2792.616876	266.610000
2793.959260	266.700000
2795.301420	274.410000
2796.640230	268.450000
2797.981939	269.570000
2799.320301	272.530000
2800.660000	268.840000
2801.997913	270.820000
2803.334042	277.810000
2804.669947	269.110000
2806.007190	272.180000
2807.342649	276.220000
2808.677885	270.940000
2810.011338	269.000000
2811.346129	277.300000
2812.677578	269.850000
2814.011923	265.020000
2815.341370	265.680000
2816.672154	274.110000
2818.002716	263.670000
2819.331499	274.050000
2820.661618	269.710000
2821.989959	268.770000
2823.318079	272.690000
2824.644422	274.490000
2825.972100	271.740000
2827.296446	273.830000
2828.622127	268.240000
2829.946033	273.630000
2831.269720	268.650000
2832.594742	266.580000
2833.916434	264.090000
2835.237908	268.720000
2836.559163	266.750000
2837.880199	272.530000
2839.199463	273.100000
2840.520062	273.040000
2841.838889	265.030000
2843.157498	268.960000
2844.474336	263.360000
2845.790958	266.440000
2847.107361	270.570000
2848.421996	269.930000
2849.737965	267.480000
2851.050614	276.020000
2852.364599	266.020000
2853.678366	267.440000
2854.991918	265.110000
2856.303702	269.720000
2857.613720	266.590000
2858.925073	269.970000
2860.233111	261.540000
2861.542484	262.900000
2862.851641	267.880000
2864.160583	270.510000
2865.467762	267.370000
2866.773177	274.980000
2868.079927	265.920000
2869.384914	271.090000
2870.689688	267.980000
2871.992700	271.760000
2873.298594	275.020000
2874.599632	276.610000
2875.902005	269.690000
2877.202618	279.810000
2878.504565	272.340000
2879.806299	270.050000
2881.104728	269.750000
2882.404492	276.560000
2883.702497	270.890000
2885.000291	272.700000
2886.296329	269.170000
2887.593700	273.580000
2888.889315	265.300000
2890.184719	268.430000
2891.479913	271.490000
2892.771808	268.470000
2894.066580	265.870000
2895.358055	268.960000
2896.650863	268.630000
2897.943461	275.740000
2899.232765	266.580000
2900.523401	271.720000
2901.812286	269.310000
2903.102504	267.990000
2904.389430	265.770000
2905.677688	268.310000
2906.964196	271.690000
2908.250497	265.520000
2909.536589	269.660000
2910.820933	269.500000
2912.108149	267.420000
2913.390537	270.570000
2914.674258	264.170000
2915.956233	268.750000
2917.238001	270.020000
2918.518023	273.240000
2919.800915	269.450000
2921.082062	273.630000
2922.359927	274.740000
2923.640661	263.330000
2924.918114	268.120000
2926.195361	269.850000
2927.470867	267.120000
2928.749240	275.590000
2930.022798	263.810000
2931.299224	265.270000
2932.573909	268.050000
2933.846854	270.100000
2935.121129	266.060000
2936.393665	269.230000
2937.665997	266.790000
2938.935055	266.350000
2940.206979	264.160000
2941.477165	266.370000
2942.747148	262.550000
2944.016927	269.190000
2945.284969	269.130000
2946.551276	258.450000
2947.817380	267.500000
2949.084814	266.530000
2950.350514	266.680000
2951.616011	274.640000
2952.881306	265.950000
2954.143336	266.270000
2955.406697	269.170000
2956.669855	270.950000
2957.931282	263.640000
2959.194038	264.970000
2960.455063	272.360000
2961.714356	265.710000
2962.973450	266.490000
2964.232343	265.860000
2965.491036	270.690000
2966.749529	262.390000
2968.006293	268.650000
2969.262857	261.600000
2970.517694	258.020000
2971.773860	264.230000
2973.026770	265.000000
2974.281010	264.120000
2975.535051	267.390000
2976.787366	266.500000
2978.039483	263.830000
2979.289875	269.960000
2980.543122	266.340000
2981.791592	262.390000
2983.042916	270.730000
2984.290992	275.080000
2985.538870	269.090000
2986.786551	261.880000
2988.034036	265.530000
2989.279799	273.850000
2990.525365	264.140000
2991.772259	265.460000
2993.015909	268.380000
2994.260887	270.480000
2995.502622	267.550000
2996.747208	263.050000
2997.990074	266.910000
2999.229700	268.260000
3000.472176	267.520000
3001.711413	258.380000
3002.951977	265.300000
3004.190824	272.580000
3005.429477	267.870000
3006.666414	260.990000
3007.904678	265.900000
3009.141228	266.000000
3010.377583	262.870000
3011.613745	264.180000
3012.848194	265.440000
3014.082449	263.010000
3015.316511	269.530000
3016.548861	264.960000
3017.779499	265.040000
3019.012983	265.650000
3020.244755	260.790000
3021.474817	275.320000
3022.704687	259.630000
3023.932847	266.670000
3025.162333	262.650000
3026.390111	264.070000
3027.617697	266.430000
3028.846609	265.890000
3030.070779	261.460000
3031.297792	262.980000
3032.521581	262.190000
3033.746697	271.430000
3034.970106	263.000000
3036.193326	267.970000
3037.414840	263.740000
3038.639195	259.000000
3039.858815	261.460000
3041.079760	263.540000
3042.300517	261.650000
3043.519570	266.640000
3044.739949	265.630000
3045.957111	266.120000
3047.175598	263.390000
3048.392384	266.480000
3049.608981	260.040000
3050.825390	261.320000
3052.038587	271.670000
3053.254621	267.220000
3054.467443	261.500000
3055.683102	267.360000
3056.894038	261.590000
3058.106299	264.430000
3059.318374	262.440000
3060.530262	269.730000
3061.740452	264.740000
3062.950456	270.240000
3064.160275	266.430000
3065.368397	259.240000
3066.576333	262.270000
3067.782575	271.680000
3068.990140	267.810000
3070.196012	264.160000
3071.401698	260.510000
3072.607199	267.130000
3073.811007	264.430000
3075.016139	264.910000
3076.219579	264.820000
3077.421326	264.550000
3078.622890	264.550000
3079.824270	266.480000
3081.025466	263.640000
3082.224972	265.790000
3083.424294	264.930000
3084.624940	263.830000
3085.823896	263.340000
3087.019658	268.340000
3088.218249	271.050000
3089.413646	260.420000
3090.610366	260.860000
3091.803894	263.480000
3093.000251	261.870000
3094.194920	260.950000
3095.386399	266.030000
3096.582209	256.770000
3097.773326	265.070000
3098.965765	264.660000
3100.155017	259.210000
3101.347095	260.060000
3102.537488	262.970000
3103.724696	266.380000
3104.913227	258.120000
3106.103080	263.940000
3107.289748	257.770000
3108.476237	263.120000
3109.662546	257.150000
3110.850177	268.170000
3112.034627	264.470000
3113.217396	262.490000
3114.402989	261.600000
3115.586901	267.640000
3116.769135	262.360000
3117.951190	264.910000
3119.133068	261.670000
3120.314767	257.810000
3121.494788	258.710000
3122.673133	261.380000
3123.854299	266.520000
3125.032289	261.110000
3126.210102	263.120000
3127.387738	266.050000
3128.563699	260.590000
3129.739483	268.530000
3130.916589	256.300000
3132.092020	254.890000
3133.265778	259.470000
3134.437864	267.280000
3135.611270	262.870000
3136.784501	268.640000
3137.956059	261.430000
3139.128939	260.340000
3140.298651	266.630000
3141.469684	269.150000
3142.639046	267.090000
3143.806739	266.550000
3144.977247	262.250000
3146.143096	260.390000
3147.313255	266.400000
3148.478756	269.170000
3149.644084	263.950000
3150.809238	257.180000
3151.974218	267.500000
3153.140519	262.490000
3154.302166	261.740000
3155.465134	258.610000
3156.627928	260.830000
3157.790550	259.620000
3158.951507	259.020000
3160.112291	256.900000
3161.272903	257.380000
3162.431852	267.030000
3163.590628	256.970000
3164.749233	256.890000
3165.907666	254.030000
3167.065927	260.880000
3168.222526	260.830000
3169.377464	260.320000
3170.533721	257.220000
3171.688318	262.820000
3172.842743	259.350000
3173.995509	259.880000
3175.148105	258.360000
3176.300530	254.760000
3177.452786	258.130000
3178.604872	258.460000
3179.753811	254.500000
3180.905557	256.690000
3182.055645	262.360000
3183.204077	259.060000
3184.352340	255.930000
3185.500433	262.310000
3186.648358	259.640000
3187.794628	262.010000
3188.940729	266.730000
3190.085175	264.550000
3191.229454	264.860000
3192.373565	267.550000
3193.518994	262.840000
3194.661283	258.190000
3195.803406	267.800000
3196.945361	267.490000
3198.087150	258.250000
3199.228771	261.720000
3200.367256	260.960000
3201.507059	267.210000
3202.648180	267.730000
3203.786166	260.840000
3204.922503	257.820000
3206.058674	263.060000
3207.196163	262.800000
3208.332002	262.560000
3209.469159	260.240000
3210.601703	267.470000
3211.738529	265.420000
3212.870743	263.800000
3214.004275	262.720000
3215.137641	256.030000
3216.267880	264.990000
3217.400917	258.980000
3218.530828	248.950000
3219.662056	258.450000
3220.790158	254.290000
3221.921057	253.210000
3223.050313	254.860000
3224.177924	256.680000
3225.302414	253.610000
3226.431179	257.720000
3227.556822	250.270000
3228.682302	254.820000
3229.806141	249.530000
3230.932774	258.650000
3232.054810	256.980000
3233.178162	259.720000
3234.301352	256.560000
3235.424380	251.850000
3236.545768	252.940000
3237.666995	251.340000
3238.786583	253.230000
3239.906010	262.230000
3241.023799	263.710000
3242.144381	258.480000
3243.261848	252.040000
3244.379156	252.560000
3245.496302	257.350000
3246.611813	263.800000
3247.728639	261.690000
3248.842354	258.890000
3249.958860	266.180000
3251.073730	264.680000
3252.185492	264.470000
3253.297095	262.670000
3254.410012	260.550000
3255.522771	258.720000
3256.632423	259.580000
3257.743390	261.310000
3258.854197	265.770000
3259.963374	260.470000
3261.070919	261.420000
3262.179779	262.720000
3263.288480	263.780000
3264.394079	262.570000
3265.500992	257.590000
3266.606277	264.870000
3267.712875	267.130000
3268.816373	256.270000
3269.921185	268.130000
3271.025840	266.080000
3272.127396	261.330000
3273.228797	269.560000
3274.331511	261.700000
3275.434068	269.790000
3276.533530	264.260000
3277.635774	263.930000
3278.734923	264.630000
3279.832448	259.670000
3280.929817	269.150000
3282.029969	261.820000
3283.127027	270.390000
3284.223930	262.850000
3285.320679	263.430000
3286.412868	262.210000
3287.509306	258.790000
3288.604123	269.630000
3289.698784	262.990000
3290.791824	266.730000
3291.884710	265.540000
3292.975975	264.960000
3294.068553	259.320000
3295.159510	266.850000
3296.248848	259.380000
3297.338033	264.630000
3298.428531	260.120000
3299.515944	266.320000
3300.603205	260.080000
3301.691778	267.310000
3302.780198	258.380000
3303.864071	260.530000
3304.952186	260.340000
3306.037220	262.470000
3307.120637	261.500000
3308.205367	261.580000
3309.288482	260.150000
3310.372908	270.500000
3311.454256	261.840000
3312.536916	266.200000
3313.617962	268.480000
3314.698857	268.860000
3315.778139	265.750000
3316.857270	269.550000
3317.937712	266.990000
3319.015081	267.750000
3320.093760	265.500000
3321.170829	265.350000
3322.247747	268.550000
3323.323054	267.960000
3324.398212	263.450000
3325.474681	272.870000
3326.548080	262.640000
3327.621330	266.330000
3328.695891	267.030000
3329.768842	268.790000
3330.840186	268.510000
3331.912840	262.280000
3332.982427	263.280000
3334.053325	269.540000
3335.122616	257.580000
3336.193218	268.930000
3337.262213	259.920000
3338.329602	265.780000
3339.395386	266.030000
3340.465396	266.010000
3341.532343	269.650000
3342.596228	265.560000
3343.662881	265.050000
3344.727929	265.400000
3345.791374	262.980000
3346.854673	260.740000
3347.917826	258.740000
3348.980832	261.620000
3350.043691	260.540000
3351.104949	268.260000
3352.163150	262.760000
3353.225572	268.630000
3354.284937	268.320000
3355.344157	263.890000
3356.404687	265.250000
3357.460707	269.510000
3358.519492	260.840000
3359.573769	266.050000
3360.630809	268.560000
3361.686252	268.740000
3362.743003	265.440000
3363.798157	266.630000
3364.851713	266.090000
3365.903672	268.530000
3366.958393	268.740000
3368.010065	265.330000
3369.061594	263.960000
3370.114432	273.610000
3371.164222	264.840000
3372.215320	269.420000
3373.263373	263.880000
3374.314186	266.860000
3375.361953	268.280000
3376.409578	267.830000
3377.457060	263.200000
3378.502950	269.850000
3379.550148	264.880000
3380.594304	265.910000
3381.641218	264.430000
3382.686540	271.220000
3383.728822	273.590000
3384.770962	269.860000
3385.814410	267.010000
3386.857718	267.530000
3387.899435	270.050000
3388.941011	266.690000
3389.982447	270.390000
3391.022293	267.300000
3392.060552	270.310000
3393.100118	271.050000
3394.139543	270.450000
3395.177381	268.660000
3396.213633	264.190000
3397.249744	269.920000
3398.287163	265.140000
3399.321549	262.770000
3400.357242	267.140000
3401.392796	266.990000
3402.425319	271.410000
3403.460595	275.510000
3404.492840	261.200000
3405.524947	272.480000
3406.555470	267.980000
3407.587301	267.050000
3408.618992	271.650000
3409.647657	271.460000
3410.676183	269.970000
3411.706017	269.240000
3412.735712	264.280000
3413.762382	271.490000
3414.790359	268.660000
3415.815311	266.300000
3416.843013	267.390000
3417.867692	275.430000
3418.893677	272.200000
3419.918082	274.050000
3420.942351	265.920000
3421.965041	265.940000
3422.987595	274.420000
3424.011455	270.250000
3425.032295	266.560000
3426.053000	266.230000
3427.075010	266.030000
3428.094002	274.310000
3429.112859	265.370000
3430.133021	264.890000
3431.150167	265.270000
