-118.106446	9.610000
-115.436846	14.700000
-112.770181	5.130000
-110.104268	5.770000
-107.441287	13.080000
-104.776877	2.820000
-102.115397	6.970000
-99.452487	16.270000
-96.794685	9.300000
-94.135452	14.510000
-91.476968	11.190000
-88.821409	13.810000
-86.164421	13.630000
-83.512530	9.820000
-80.859210	12.510000
-78.208810	13.130000
-75.556980	13.010000
-72.910241	9.430000
-70.262072	9.920000
-67.614647	8.940000
-64.970135	12.480000
-62.324195	10.060000
-59.683336	8.560000
-57.041048	9.530000
-54.401668	13.340000
-51.760860	13.190000
-49.120792	10.190000
-46.485796	8.100000
-43.849371	16.970000
-41.215850	14.220000
-38.580900	12.310000
-35.951015	13.990000
-33.317538	18.330000
-30.689123	16.400000
-28.061441	24.130000
-25.432332	24.100000
-22.808279	29.750000
-20.180637	28.950000
-17.558048	42.600000
-14.936191	59.450000
-12.315064	105.620000
-9.694667	262.000000
-7.077158	817.720000
-4.458221	2330.970000
-1.842170	4991.250000
0.773153	5226.520000
3.387749	2413.350000
5.999462	246.340000
8.612604	54.050000
11.220712	35.890000
13.832402	32.450000
16.439061	23.240000
19.047148	18.700000
21.654511	17.270000
24.256849	18.340000
26.862765	18.120000
29.463659	10.990000
32.065981	16.100000
34.663286	10.780000
37.264166	16.510000
39.860032	16.770000
42.457325	16.050000
45.053899	18.860000
47.645464	13.690000
50.238457	15.160000
52.828589	17.480000
55.420149	17.500000
58.008849	15.810000
60.598976	18.770000
63.184105	20.920000
65.770660	16.940000
68.356502	15.810000
70.939490	23.500000
73.523905	21.320000
76.101190	21.080000
78.682042	17.290000
81.260045	15.970000
83.837338	26.730000
86.416057	19.750000
88.989795	22.690000
91.564959	21.330000
94.137280	22.470000
96.708893	27.400000
99.277666	28.320000
101.847866	29.120000
104.415228	36.990000
106.984015	46.740000
109.549966	48.250000
112.113082	60.480000
114.679754	69.760000
117.237205	96.520000
119.800341	135.130000
122.358518	200.320000
124.920248	274.470000
127.477023	413.010000
130.035223	617.510000
132.588471	899.840000
135.141020	1306.840000
137.697120	1800.460000
140.248273	2329.040000
142.798727	2832.050000
145.348485	3178.690000
147.895423	3471.730000
150.441665	3577.770000
152.989333	3647.520000
155.536306	3678.780000
158.078342	3651.060000
160.619685	3609.260000
163.160335	3632.830000
165.702411	3579.660000
168.241676	3595.060000
170.778131	3568.170000
173.313896	3546.880000
175.851086	3544.200000
178.387584	3510.730000
180.921277	3520.640000
183.452167	3494.730000
185.982368	3444.460000
188.513994	3451.100000
191.042819	3455.060000
193.568845	3445.360000
196.094186	3418.590000
198.620951	3429.860000
201.144919	3416.480000
203.668203	3410.480000
206.190802	3415.950000
208.710608	3402.080000
211.229731	3397.160000
213.748171	3376.220000
216.268035	3382.350000
218.780898	3382.940000
221.297292	3408.910000
223.813004	3411.710000
226.323827	3395.610000
228.836074	3425.170000
231.345538	3434.230000
233.854324	3413.950000
236.362432	3439.590000
238.871963	3444.080000
241.376615	3444.720000
243.880590	3433.610000
246.385989	3458.480000
248.886513	3475.650000
251.390560	3474.620000
253.887637	3481.030000
256.388236	3486.390000
258.886064	3504.800000
261.383219	3488.240000
263.879701	3501.570000
266.371320	3491.270000
268.866459	3493.400000
271.358832	3479.800000
273.850534	3508.950000
276.339473	3510.960000
278.829835	3467.470000
281.317436	3476.020000
283.802277	3478.330000
286.290632	3466.050000
288.772048	3456.610000
291.256978	3473.390000
293.737063	3469.600000
296.220660	3491.700000
298.699414	3493.450000
301.179592	3501.950000
303.657017	3504.380000
306.133779	3491.900000
308.609878	3484.560000
311.083228	3480.070000
313.555916	3504.910000
316.027943	3483.180000
318.499309	3523.190000
320.967931	3534.860000
323.435893	3543.930000
325.905278	3505.460000
328.369840	3507.610000
330.837905	3493.090000
333.301151	3486.960000
335.763740	3477.840000
338.225671	3470.780000
340.686946	3447.750000
343.145487	3437.280000
345.605450	3432.410000
348.062680	3402.680000
350.519256	3389.620000
352.975178	3364.330000
355.428371	3334.960000
357.882985	3317.090000
360.332798	3298.900000
362.786108	3279.400000
365.234618	3225.960000
367.682478	3203.240000
370.131759	3189.030000
372.576247	3155.890000
375.022157	3126.120000
377.467418	3094.360000
379.909960	3090.380000
382.351854	3040.100000
384.793100	3014.330000
387.231631	2980.750000
389.671584	2957.480000
392.108823	2929.300000
394.543350	2898.680000
396.981365	2895.450000
399.414603	2860.820000
401.849263	2825.640000
404.279149	2813.390000
406.712521	2804.530000
409.141123	2797.670000
411.569084	2755.940000
413.998465	2756.300000
416.423081	2757.090000
418.849119	2743.080000
421.274516	2723.990000
423.699273	2704.060000
426.119272	2704.620000
428.540692	2718.490000
430.959415	2709.920000
433.379559	2686.560000
435.797008	2686.010000
438.215877	2681.580000
440.632053	2692.680000
443.043482	2673.990000
445.458387	2672.220000
447.870602	2663.980000
450.282183	2670.340000
452.693130	2669.050000
455.101391	2654.950000
457.509019	2637.890000
459.916016	2638.800000
462.322380	2629.240000
464.726062	2619.940000
467.129114	2611.360000
469.531536	2601.830000
471.933329	2607.050000
474.332443	2580.260000
476.732977	2603.640000
479.132882	2578.430000
481.528064	2567.430000
483.926713	2573.130000
486.320642	2560.970000
488.713945	2553.450000
491.106622	2538.570000
493.498674	2546.170000
495.892145	2513.390000
498.280903	2517.370000
500.666995	2508.830000
503.054507	2500.620000
505.441395	2486.880000
507.825620	2480.200000
510.211264	2487.800000
512.594245	2474.200000
514.974566	2463.320000
517.356306	2476.000000
519.735387	2466.070000
522.115887	2462.180000
524.493729	2459.300000
526.868916	2450.650000
529.243485	2437.580000
531.619473	2436.510000
533.992807	2410.120000
536.367559	2410.860000
538.737626	2387.370000
541.107077	2362.830000
543.477946	2340.730000
545.844135	2306.970000
548.211742	2309.390000
550.576703	2245.370000
552.941051	2240.510000
555.304787	2211.440000
557.669940	2198.040000
560.030420	2153.640000
562.392319	2144.730000
564.751578	2102.490000
567.108198	2081.810000
569.468263	2050.390000
571.821638	2017.120000
574.178457	2012.510000
576.532640	1973.030000
578.886216	1944.390000
581.239183	1919.650000
583.589519	1888.560000
585.941271	1873.280000
588.286347	1842.370000
590.636887	1813.430000
592.980754	1809.740000
595.330081	1787.420000
597.674761	1764.110000
600.016815	1754.530000
602.360287	1756.270000
604.701136	1728.670000
607.041383	1721.320000
609.379009	1735.360000
611.720070	1707.800000
614.056494	1720.360000
616.394334	1702.740000
618.729556	1714.980000
621.062163	1716.330000
623.396186	1724.600000
625.727596	1725.930000
628.058407	1717.730000
630.388620	1718.560000
632.718235	1718.190000
635.043228	1716.860000
637.373662	1706.300000
639.699474	1695.470000
642.022680	1708.740000
644.347301	1702.350000
646.669318	1701.040000
648.990740	1709.830000
651.309559	1712.040000
653.629794	1695.040000
655.949436	1710.410000
658.266477	1710.080000
660.582926	1716.800000
662.896778	1730.660000
665.212044	1735.250000
667.524714	1754.410000
669.838799	1757.350000
672.148284	1775.180000
674.459185	1792.050000
676.767493	1785.560000
679.075213	1812.770000
681.384348	1836.310000
683.688890	1852.430000
685.992845	1864.520000
688.296215	1878.230000
690.600999	1889.890000
692.901197	1898.650000
695.202809	1931.920000
697.503837	1932.720000
699.800282	1958.260000
702.098143	1968.000000
704.395420	1986.230000
706.692114	1997.270000
708.984232	2003.810000
711.279761	2018.510000
713.570717	2043.520000
715.863087	2043.120000
718.152881	2063.100000
720.442096	2065.380000
722.730730	2083.200000
725.016793	2104.890000
727.304269	2122.500000
729.589175	2117.960000
731.873502	2143.530000
734.155261	2163.020000
736.438434	2175.680000
738.721030	2191.990000
740.999071	2200.250000
743.278525	2229.520000
745.557404	2255.620000
747.835707	2275.740000
750.109461	2289.800000
752.384629	2318.110000
754.659223	2324.300000
756.931258	2337.660000
759.204705	2367.780000
761.475595	2384.230000
763.743929	2397.680000
766.013676	2417.640000
768.280869	2431.040000
770.547491	2460.810000
772.813544	2484.170000
775.077044	2486.680000
777.341958	2500.030000
779.606302	2534.370000
781.866117	2536.950000
784.127345	2553.810000
786.388005	2567.250000
788.646118	2596.070000
790.901687	2615.360000
793.160647	2624.270000
795.413108	2627.900000
797.670936	2642.660000
799.924244	2648.910000
802.175013	2669.920000
804.427194	2652.730000
806.676837	2674.050000
808.927891	2700.820000
811.174434	2689.740000
813.422389	2699.210000
815.667810	2719.550000
817.914642	2714.300000
820.160913	2725.540000
822.402680	2738.400000
824.647829	2754.510000
826.886506	2766.450000
829.128566	2779.870000
831.366127	2788.880000
833.605099	2801.930000
835.841545	2810.850000
838.079402	2818.990000
840.314735	2834.480000
842.547543	2889.290000
844.781763	2894.860000
847.013461	2920.390000
849.244604	2953.250000
851.475192	2970.010000
853.705226	3009.400000
855.934705	3045.030000
858.159703	3101.770000
860.388076	3127.200000
862.611970	3176.810000
864.837274	3209.080000
867.058103	3292.450000
869.282304	3316.860000
871.502032	3366.660000
873.723171	3415.860000
875.943759	3500.440000
878.161837	3562.740000
880.381326	3614.700000
882.596348	3658.070000
884.810822	3700.730000
887.024749	3751.760000
889.238128	3786.780000
891.450960	3803.470000
893.663246	3818.540000
895.873029	3862.840000
898.082267	3845.130000
900.290960	3852.260000
902.497154	3837.840000
904.704757	3818.550000
906.909863	3774.730000
909.114425	3760.490000
911.316491	3718.150000
913.519967	3640.500000
915.720949	3587.600000
917.921390	3509.720000
920.123239	3457.250000
922.318696	3365.040000
924.517513	3303.490000
926.711891	3228.510000
928.909627	3117.350000
931.102927	3074.460000
933.297636	3017.460000
935.489859	2924.390000
937.681544	2891.420000
939.872691	2826.110000
942.061355	2809.990000
944.249482	2784.430000
946.435129	2750.210000
948.624128	2739.950000
950.808704	2733.650000
952.992745	2731.270000
955.180136	2705.260000
957.359223	2740.060000
959.541661	2717.890000
961.723565	2721.440000
963.902995	2735.660000
966.079952	2735.060000
968.258316	2730.940000
970.438088	2726.870000
972.611511	2698.000000
974.788280	2691.810000
976.960643	2670.200000
979.134412	2643.580000
981.303778	2608.740000
983.476489	2598.990000
985.646733	2540.830000
987.816449	2510.500000
989.985636	2472.850000
992.150426	2431.880000
994.318557	2401.470000
996.482294	2340.190000
998.647437	2313.870000
1000.810122	2277.190000
1002.972280	2227.920000
1005.131982	2205.180000
1007.291160	2152.970000
1009.451744	2118.550000
1011.609873	2070.770000
1013.767478	2064.900000
1015.924560	2015.070000
1018.081119	1988.180000
1020.233298	1953.410000
1022.386883	1928.160000
1024.539947	1900.000000
1026.690563	1888.710000
1028.842584	1864.620000
1030.990232	1829.880000
1033.141212	1822.580000
1035.287821	1787.770000
1037.433912	1784.890000
1039.579483	1768.180000
1041.726460	1739.100000
1043.867149	1726.950000
1046.011166	1697.920000
1048.152743	1702.550000
1050.293804	1679.220000
1052.436269	1665.060000
1054.572455	1654.910000
1056.711967	1643.360000
1058.847123	1624.780000
1060.985604	1613.460000
1063.119731	1586.310000
1065.253345	1582.640000
1067.388364	1562.440000
1069.519033	1552.640000
1071.651107	1537.130000
1073.780752	1521.610000
1075.909885	1509.290000
1078.038506	1488.390000
1080.166616	1474.880000
1082.292300	1459.300000
1084.417474	1437.780000
1086.544052	1422.530000
1088.666293	1412.880000
1090.789937	1384.470000
1092.909248	1364.390000
1095.033787	1337.080000
1097.152081	1324.660000
1099.271780	1308.130000
1101.389060	1290.490000
1103.505834	1268.670000
1105.622101	1246.050000
1107.735953	1220.660000
1109.851208	1195.620000
1111.962141	1182.470000
1114.076385	1162.310000
1116.186309	1131.100000
1118.297637	1123.980000
1120.408460	1098.800000
1122.514968	1073.980000
1124.624784	1070.970000
1126.730286	1050.340000
1128.837191	1030.700000
1130.937881	1016.860000
1133.043783	993.460000
1135.145376	978.430000
1137.248372	965.260000
1139.350867	947.630000
1141.447155	930.030000
1143.548651	916.760000
1145.645844	911.070000
1147.742538	887.500000
1149.838734	869.260000
1151.934433	857.370000
1154.029634	853.040000
1156.122438	832.160000
1158.216644	824.370000
1160.304659	810.360000
1162.397872	796.230000
1164.484897	781.640000
1166.575221	767.700000
1168.661258	756.610000
1170.750592	752.680000
1172.833745	736.990000
1174.918301	733.190000
1177.004257	714.280000
1179.085932	714.390000
1181.169009	706.860000
1183.249700	691.830000
1185.329899	685.800000
1187.409607	673.970000
1189.488824	675.330000
1191.565659	656.870000
1193.640113	658.440000
1195.717859	646.870000
1197.791334	645.530000
1199.866210	638.350000
1201.936819	641.590000
1204.008830	634.150000
1206.078464	624.490000
1208.149499	616.640000
1210.220046	626.100000
1212.286332	613.050000
1214.354019	612.350000
1216.419334	609.610000
1218.486049	599.860000
1220.548508	598.950000
1222.614252	600.490000
1224.675743	605.610000
1226.738633	600.020000
1228.799156	594.320000
1230.859195	593.400000
1232.918752	585.520000
1234.975943	594.370000
1237.032653	586.400000
1239.087000	585.520000
1241.144627	581.570000
1243.199892	587.050000
1245.250916	587.320000
1247.303340	575.650000
1249.355284	584.710000
1251.404870	581.350000
1253.453977	581.820000
1255.502606	587.940000
1257.550756	581.670000
1259.598428	576.880000
1261.641869	582.220000
1263.688585	572.280000
1265.732948	562.250000
1267.776835	574.870000
1269.818371	577.400000
1271.857557	566.780000
1273.900015	566.440000
1275.938251	578.200000
1277.977886	567.350000
1280.017046	566.520000
1282.051987	574.050000
1284.088328	565.290000
1286.122323	566.630000
1288.157717	569.240000
1290.188897	570.810000
1292.221476	559.430000
1294.253582	563.690000
1296.283348	564.980000
1298.314512	564.760000
1300.341468	565.120000
1302.369822	560.130000
1304.393972	566.770000
1306.421386	573.690000
1308.444598	567.120000
1310.469208	570.500000
1312.491484	565.360000
1314.515157	563.370000
1316.536497	571.220000
1318.557369	564.900000
1320.577775	565.690000
1322.593986	567.360000
1324.611596	564.190000
1326.626877	568.040000
1328.645416	567.310000
1330.659767	576.400000
1332.671792	576.080000
1334.687074	577.450000
1336.698171	573.010000
1338.710665	571.600000
1340.718976	576.800000
1342.730543	578.540000
1344.736070	578.620000
1346.744853	575.540000
1348.749458	577.200000
1350.757317	580.540000
1352.764714	583.660000
1354.766080	584.200000
1356.768843	582.640000
1358.771145	576.820000
1360.772988	584.710000
1362.774371	585.350000
1364.773441	584.970000
1366.772052	585.530000
1368.770205	581.860000
1370.767900	575.220000
1372.761431	584.960000
1374.756359	580.440000
1376.750830	578.270000
1378.744844	578.670000
1380.736551	579.360000
1382.727802	574.590000
1384.716748	577.320000
1386.707089	579.460000
1388.696975	567.750000
1390.684558	581.210000
1392.671686	572.130000
1394.656514	575.010000
1396.642735	581.870000
1398.626657	574.650000
1400.610126	573.130000
1402.593143	567.810000
1404.573861	564.720000
1406.555975	564.680000
1408.535791	576.780000
1410.515157	556.270000
1412.490383	563.540000
1414.468849	558.520000
1416.445020	564.040000
1418.420743	555.170000
1420.396016	564.000000
1422.368998	556.200000
1424.341532	556.350000
1426.313619	544.350000
1428.285257	549.820000
1430.252767	547.550000
1432.225352	548.710000
1434.190130	541.820000
1436.159981	541.380000
1438.125707	545.810000
1440.092826	543.970000
1442.057662	542.690000
1444.018379	547.290000
1445.984163	534.930000
1447.943992	532.940000
1449.905214	532.460000
1451.867829	532.220000
1453.826329	528.640000
1455.784387	528.550000
1457.742002	530.690000
1459.699176	515.100000
1461.654074	529.840000
1463.610364	525.790000
1465.564380	526.150000
1467.517956	527.830000
1469.469259	518.200000
1471.421954	519.730000
1473.372378	516.970000
1475.322363	508.090000
1477.271908	516.810000
1479.219185	524.460000
1481.164195	518.330000
1483.110596	517.940000
1485.056561	512.260000
1487.002087	522.830000
1488.945349	508.530000
1490.888174	505.760000
1492.828736	510.920000
1494.770689	509.660000
1496.710381	506.630000
1498.649637	503.820000
1500.588458	503.640000
1502.525020	500.530000
1504.462973	508.020000
1506.398668	514.330000
1508.333929	506.380000
1510.266933	500.840000
1512.199505	504.420000
1514.131645	498.790000
1516.063353	502.570000
1517.992807	502.480000
1519.923652	499.110000
1521.854066	505.060000
1523.780406	498.750000
1525.708138	499.240000
1527.633619	498.770000
1529.558671	492.990000
1531.483294	496.380000
1533.407488	500.730000
1535.329435	488.320000
1537.252771	499.600000
1539.173862	492.760000
1541.092708	498.330000
1543.012944	500.110000
1544.930936	494.650000
1546.848502	487.170000
1548.763826	492.120000
1550.680540	498.000000
1552.593199	492.930000
1554.509062	492.240000
1556.422685	486.500000
1558.334071	494.000000
1560.246845	486.750000
1562.155570	489.390000
1564.065685	487.720000
1565.975376	482.260000
1567.884643	483.340000
1569.791677	490.320000
1571.696478	487.990000
1573.602668	488.630000
1575.506626	490.730000
1577.410164	488.000000
1579.313280	491.210000
1581.214168	489.720000
1583.116443	489.160000
1585.016491	489.600000
1586.917926	490.420000
1588.815328	486.370000
1590.712311	489.000000
1592.608876	478.800000
1594.506829	475.750000
1596.398947	484.530000
1598.294258	478.190000
1600.189152	487.060000
1602.081824	484.980000
1603.974080	477.660000
1605.864115	473.210000
1607.753736	476.140000
1609.642940	475.820000
1611.531730	483.630000
1613.418303	483.520000
1615.306262	482.920000
1617.190205	479.200000
1619.075536	482.340000
1620.960452	475.890000
1622.843155	470.700000
1624.727245	475.490000
1626.607324	480.940000
1628.488789	481.410000
1630.368044	474.380000
1632.248685	470.450000
1634.123522	482.070000
1636.003341	475.790000
1637.879154	467.640000
1639.754557	477.520000
1641.631347	472.460000
1643.502339	480.640000
1645.376513	483.780000
1647.246689	475.440000
1649.120045	473.910000
1650.991198	469.230000
1652.860149	475.830000
1654.730486	473.190000
1656.596829	466.490000
1658.464558	468.700000
1660.330089	473.630000
1662.197004	466.120000
1664.059931	467.130000
1665.924243	468.820000
1667.786359	468.660000
1669.648071	472.360000
1671.511167	466.180000
1673.372069	469.220000
1675.230777	460.710000
1677.089082	463.680000
1678.948772	462.080000
1680.802695	460.800000
1682.659790	461.360000
1684.516483	466.050000
1686.369200	465.430000
1688.225087	460.910000
1690.077001	464.720000
1691.928514	457.620000
1693.779626	454.940000
1695.630338	453.110000
1697.480649	462.870000
1699.328776	460.980000
1701.178286	457.290000
1703.022048	458.680000
1704.870759	461.380000
1706.713725	459.740000
1708.559856	457.510000
1710.402026	453.840000
1712.247360	465.490000
1714.086954	455.230000
1715.927932	458.660000
1717.770293	456.010000
1719.608698	452.590000
1721.448486	456.820000
1723.286099	453.270000
1725.123316	453.620000
1726.958360	455.080000
1728.794787	459.840000
1730.629042	463.180000
1732.462902	448.880000
1734.296369	461.620000
1736.125889	450.100000
1737.958568	452.500000
1739.787303	451.890000
1741.619196	457.010000
1743.447146	452.900000
1745.274704	452.330000
1747.101870	451.860000
1748.928645	453.220000
1750.755029	454.410000
1752.577476	455.660000
1754.403077	450.290000
1756.224744	447.290000
1758.047793	455.090000
1759.868681	456.610000
1761.689179	447.810000
1763.511059	450.110000
1765.327239	454.420000
1767.146571	447.250000
1768.961976	450.880000
1770.780531	447.030000
1772.595161	453.410000
1774.409405	451.870000
1776.223261	450.790000
1778.036731	442.390000
1779.848048	447.900000
1781.660746	449.580000
1783.473057	453.670000
1785.281451	448.130000
1787.091226	444.060000
1788.897085	446.030000
1790.706090	445.630000
1792.511182	445.650000
1794.317655	442.660000
1796.123744	445.890000
1797.925923	435.740000
1799.731245	449.730000
1801.532659	447.650000
1803.335453	443.830000
1805.134341	445.300000
1806.934610	445.770000
1808.734497	443.340000
1810.532243	445.040000
1812.329607	441.910000
1814.126592	441.940000
1815.923196	440.430000
1817.717661	445.510000
1819.513505	443.160000
1821.303695	440.040000
1823.098781	439.750000
1824.888214	448.620000
1826.680784	439.310000
1828.471219	436.710000
1830.259520	435.230000
1832.050956	441.120000
1833.836746	440.480000
1835.623916	437.750000
1837.408954	435.500000
1839.197126	440.860000
1840.981412	436.510000
1842.763569	441.480000
1844.547104	435.600000
1846.328511	439.690000
1848.111297	440.180000
1849.890203	439.570000
1851.670487	442.210000
1853.448645	436.130000
1855.228182	437.400000
1857.005594	435.230000
1858.780882	435.670000
1860.557549	434.040000
1862.332092	427.790000
1864.108014	438.550000
1865.878316	433.720000
1867.651744	434.990000
1869.423053	434.460000
1871.193992	434.400000
1872.966307	430.200000
1874.733010	439.130000
1876.502837	431.110000
1878.268801	436.970000
1880.037889	437.430000
1881.803115	436.490000
1883.567972	432.410000
1885.334207	432.710000
1887.096583	438.710000
1888.858592	434.480000
1890.620233	442.150000
1892.381508	431.080000
1894.142415	434.720000
1895.902956	427.630000
1897.661387	432.610000
1899.419453	426.810000
1901.175410	433.410000
1902.932745	435.070000
1904.689713	430.250000
1906.444576	427.450000
1908.197333	432.940000
1909.949727	431.210000
1911.703496	430.040000
1913.455162	424.060000
1915.204726	427.820000
1916.955666	427.120000
1918.706242	427.710000
1920.452979	428.150000
1922.201093	429.170000
1923.947107	425.930000
1925.694497	430.630000
1927.439788	425.200000
1929.182982	419.830000
1930.927552	421.080000
1932.670025	425.090000
1934.412138	420.690000
1936.153891	420.260000
1937.895285	424.760000
1939.634585	420.330000
1941.373525	430.210000
1943.112108	423.490000
1944.848598	433.470000
1946.584731	430.000000
1948.322238	426.530000
1950.055923	422.420000
1951.790983	424.830000
1953.523955	423.820000
1955.256570	427.150000
1956.988828	429.240000
1958.720730	430.060000
1960.450546	434.720000
1962.178278	434.250000
1963.907383	430.590000
1965.636134	431.340000
1967.362801	429.710000
1969.089114	431.800000
1970.816800	428.980000
1972.538950	421.410000
1974.264201	428.390000
1975.985646	429.140000
1977.710190	423.650000
1979.432655	426.600000
1981.151316	425.080000
1982.873076	431.210000
1984.591034	427.340000
1986.310365	429.210000
1988.025897	435.720000
1989.746250	428.500000
1991.462803	430.660000
1993.175561	428.760000
1994.891414	425.740000
1996.605194	426.350000
1998.318625	426.660000
2000.029985	427.100000
2001.742718	433.700000
2003.451659	428.510000
2005.163694	430.650000
2006.870219	423.680000
2008.579837	436.010000
2010.287387	433.710000
2011.994590	431.540000
2013.699727	427.670000
2015.404517	427.430000
2017.110679	428.660000
2018.813059	427.050000
2020.516811	431.890000
2022.218499	428.870000
2023.919843	427.340000
2025.620841	430.360000
2027.319779	434.890000
2029.020087	430.840000
2030.716621	421.630000
2032.414526	429.150000
2034.110372	425.460000
2035.809304	426.010000
2037.502750	430.130000
2039.197568	427.140000
2040.892042	426.240000
2042.582748	427.500000
2044.276538	431.070000
2045.966561	432.210000
2047.657955	427.330000
2049.347296	431.770000
2051.038007	425.930000
2052.724956	426.510000
2054.411564	425.410000
2056.099543	423.690000
2057.783762	425.630000
2059.469351	418.720000
2061.154601	424.200000
2062.837803	426.200000
2064.522374	427.330000
2066.201483	423.570000
2067.885377	424.160000
2069.563811	412.810000
2071.245321	416.490000
2072.923081	417.030000
2074.600503	424.670000
2076.279296	415.230000
2077.956045	422.040000
2079.630753	424.080000
2081.306830	416.540000
2082.980867	421.420000
2084.654568	418.600000
2086.327934	422.410000
2087.999262	412.950000
2089.670255	411.430000
2091.340914	411.730000
2093.011238	415.410000
2094.681229	419.430000
2096.349184	422.480000
2098.016806	416.580000
2099.682393	420.000000
2101.349350	420.020000
2103.014272	412.720000
2104.678863	413.770000
2106.341422	419.670000
2108.005349	424.010000
2109.667246	417.260000
2111.328811	424.190000
2112.990045	422.970000
2114.649251	420.320000
2116.308126	418.200000
2117.966672	421.100000
2119.624888	422.750000
2121.279380	419.170000
2122.936937	425.140000
2124.594165	425.800000
2126.247671	428.140000
2127.902545	421.350000
2129.553701	423.790000
2131.207918	421.090000
2132.858419	420.280000
2134.510286	419.920000
2136.156745	415.520000
2137.807959	425.630000
2139.455459	422.390000
2141.104326	421.920000
2142.751175	416.680000
2144.397697	420.880000
2146.043894	421.520000
2147.686383	421.930000
2149.331930	416.190000
2150.973770	417.730000
2152.618667	417.260000
2154.259859	414.780000
2155.900727	417.400000
2157.541271	420.080000
2159.179803	417.210000
2160.819702	410.560000
2162.455900	414.140000
2164.093464	410.520000
2165.730705	416.160000
2167.365937	409.800000
2169.000848	416.320000
2170.635437	411.480000
2172.269704	421.380000
2173.900279	409.140000
2175.533904	417.400000
2177.163838	415.770000
2178.795137	408.600000
2180.424432	409.640000
2182.053406	410.850000
2183.682062	409.320000
2185.310398	408.500000
2186.936731	410.640000
2188.562746	411.340000
2190.186760	408.140000
2191.812138	410.200000
2193.435517	397.210000
2195.060259	406.200000
2196.681321	405.710000
2198.302066	403.330000
2199.924176	401.660000
2201.544288	407.070000
2203.162403	401.270000
2204.780203	402.670000
2206.397688	401.850000
2208.014857	399.950000
2209.631711	403.910000
2211.248250	404.410000
2212.862795	402.160000
2214.475348	400.850000
2216.089265	402.650000
2217.701191	404.730000
2219.314480	394.690000
2220.925779	403.470000
2222.535088	397.540000
2224.145761	406.850000
2225.754445	405.730000
2227.362817	400.150000
2228.969201	399.240000
2230.576949	398.310000
2232.182710	402.840000
2233.788160	403.890000
2235.391625	405.130000
2236.996454	403.030000
2238.599298	395.910000
2240.200159	401.380000
2241.802383	405.550000
2243.402624	405.750000
2245.004228	405.430000
2246.602180	402.190000
2248.201494	402.820000
2249.798828	404.390000
2251.395853	401.490000
2252.994241	400.760000
2254.588980	404.230000
2256.181742	401.870000
2257.775867	403.520000
2259.371353	405.750000
2260.963195	404.090000
2262.554730	404.460000
2264.147626	403.140000
2265.735213	397.470000
2267.327497	399.640000
2268.914473	396.120000
2270.504478	399.530000
2272.089178	399.880000
2273.678572	400.610000
2275.262663	401.620000
2276.848116	399.710000
2278.431599	398.370000
2280.018109	387.780000
2281.600985	397.370000
2283.183557	390.140000
2284.765826	398.690000
2286.344466	394.970000
2287.926129	397.850000
2289.504164	390.850000
2291.085222	391.790000
2292.662654	388.950000
2294.238121	386.110000
2295.816611	387.790000
2297.391477	392.190000
2298.966042	389.780000
2300.540307	389.210000
2302.114271	389.750000
2303.687935	389.610000
2305.261298	385.790000
2306.831043	386.950000
2308.400489	388.000000
2309.972954	391.180000
2311.540143	388.700000
2313.110351	385.890000
2314.676944	382.770000
2316.244897	382.150000
2317.810894	387.220000
2319.376594	390.420000
2320.941997	392.490000
2322.505445	386.560000
2324.070253	395.470000
2325.631453	392.270000
2327.195667	404.870000
2328.754620	407.410000
2330.316586	405.890000
2331.876602	394.250000
2333.436322	398.260000
2334.994093	396.070000
2336.551569	395.490000
2338.108751	396.040000
2339.663986	392.170000
2341.218926	395.650000
2342.773573	389.640000
2344.327926	393.360000
2345.881985	393.360000
2347.435750	394.200000
2348.987572	390.540000
2350.537450	390.000000
2352.090336	395.160000
2353.637980	392.000000
2355.188631	389.510000
2356.735692	392.270000
2358.284110	395.060000
2359.832236	394.930000
2361.376774	394.920000
2362.922671	401.130000
2364.466628	392.230000
2366.011943	396.190000
2367.553673	400.720000
2369.096760	398.710000
2370.637912	399.110000
2372.178774	392.970000
2373.719347	400.850000
2375.259631	396.330000
2376.799625	393.910000
2378.336042	398.420000
2379.875460	388.460000
2381.411301	399.470000
2382.948498	392.250000
2384.482120	395.770000
2386.018743	395.550000
2387.553434	386.310000
2389.086196	388.540000
2390.618671	391.860000
2392.149219	392.670000
2393.682764	391.350000
2395.211098	399.160000
2396.740788	393.660000
2398.270193	391.910000
2399.799312	398.800000
2401.328147	399.380000
2402.851776	390.750000
2404.380042	397.670000
2405.903104	387.120000
2407.430800	397.830000
2408.951657	394.530000
2410.477147	399.890000
2411.999076	391.560000
2413.522361	389.860000
2415.043725	392.530000
2416.563169	396.500000
2418.083968	398.140000
2419.602848	394.010000
2421.121446	392.750000
2422.638127	387.540000
2424.156162	401.320000
2425.673916	396.190000
2427.188119	391.320000
2428.702041	393.910000
2430.215683	400.620000
2431.730680	395.210000
2433.242128	395.850000
2434.754931	389.510000
2436.265821	392.650000
2437.776431	390.700000
2439.285130	389.350000
2440.796816	393.790000
2442.304957	389.590000
2443.812821	391.080000
2445.320407	381.020000
2446.824452	388.860000
2448.331483	392.150000
2449.836605	386.810000
2451.341450	384.070000
2452.844388	389.570000
2454.347049	383.380000
2455.849434	387.790000
2457.349914	394.460000
2458.851747	381.610000
2460.351676	387.870000
2461.851329	385.320000
2463.350706	379.200000
2464.848181	384.400000
2466.343755	382.970000
2467.842308	380.440000
2469.337332	378.810000
2470.833710	382.800000
2472.326561	378.970000
2473.820764	380.930000
2475.314694	381.220000
2476.805101	374.500000
2478.298484	376.300000
2479.789970	373.400000
2481.279559	389.080000
2482.768876	377.380000
2484.256298	380.260000
2485.746695	376.910000
2487.233573	375.540000
2488.721803	371.130000
2490.206517	379.120000
2491.690960	380.040000
2493.176755	377.350000
2494.660657	376.250000
2496.145911	377.520000
2497.626031	381.980000
2499.109123	380.920000
2500.590325	377.010000
2502.071258	379.620000
2503.550302	368.860000
2505.029077	378.180000
2506.507584	378.870000
2507.985823	382.550000
2509.463793	378.640000
2510.938259	371.220000
2512.415693	376.790000
2513.889624	381.610000
2515.364906	375.750000
2516.839920	379.290000
2518.311433	381.940000
2519.784296	382.310000
2521.255277	386.160000
2522.727608	379.820000
2524.194826	381.190000
2525.665009	376.290000
2527.133312	377.140000
2528.601350	386.030000
2530.069123	383.580000
2531.536631	382.100000
2533.003874	381.420000
2534.467625	380.810000
2535.932726	376.570000
2537.395950	379.500000
2538.860524	380.300000
2540.321608	378.440000
2541.784042	377.330000
2543.246213	385.280000
2544.704898	381.430000
2546.168155	379.460000
2547.626315	385.480000
2549.085824	381.930000
2550.540240	381.220000
2551.999225	383.610000
2553.456339	382.320000
2554.911582	379.010000
2556.366564	384.950000
2557.819676	382.620000
2559.274137	378.250000
2560.726729	380.490000
2562.179061	375.580000
2563.629525	381.190000
2565.082945	381.640000
2566.531283	378.360000
2567.982577	382.100000
2569.432004	377.350000
2570.877959	381.300000
2572.326870	374.500000
2573.772309	379.980000
2575.219097	374.030000
2576.664021	367.580000
2578.108688	380.940000
2579.554702	379.330000
2580.997249	374.450000
2582.441144	373.810000
2583.881574	374.160000
2585.323351	374.560000
2586.763269	380.900000
2588.204534	373.890000
2589.642338	375.570000
2591.083091	382.730000
2592.518781	373.690000
2593.957421	374.930000
2595.394204	377.990000
2596.829130	376.220000
2598.267005	377.050000
2599.699821	382.840000
2601.133985	373.700000
2602.566295	376.730000
2603.999951	371.590000
2605.431754	365.000000
2606.863304	378.500000
2608.294600	369.370000
2609.724044	374.130000
2611.153237	373.030000
2612.580578	380.100000
2614.009266	371.020000
2615.437701	370.080000
2616.862689	368.940000
2618.289024	374.720000
2619.713510	372.380000
2621.139342	370.580000
2622.561730	371.500000
2623.985464	369.810000
2625.407351	377.030000
2626.828989	368.790000
2628.248781	373.260000
2629.669919	373.530000
2631.090807	368.140000
2632.508257	373.810000
2633.928646	370.610000
2635.345598	373.180000
2636.762302	365.130000
2638.178757	370.940000
2639.594964	369.910000
2641.010922	369.120000
2642.425040	362.200000
2643.838911	376.560000
2645.250942	372.200000
2646.664318	370.220000
2648.074264	369.450000
2649.487145	368.330000
2650.896599	371.550000
2652.305806	373.870000
2653.713177	369.390000
2655.123482	371.840000
2656.531951	375.220000
2657.938585	371.160000
2659.344974	371.460000
2660.749529	367.330000
2662.155428	368.280000
2663.559494	374.960000
2664.963316	375.550000
2666.366893	367.750000
2667.768638	364.210000
2669.171727	377.000000
2670.571399	378.480000
2671.972413	369.240000
2673.370012	369.730000
2674.770541	371.360000
2676.167655	370.990000
2677.566112	367.570000
2678.962741	365.320000
2680.359128	367.500000
2681.755274	370.820000
2683.149593	370.610000
2684.545255	366.950000
2685.937507	370.460000
2687.331103	364.660000
2688.722874	369.900000
2690.115987	363.110000
2691.507277	366.320000
2692.896744	371.310000
2694.285971	364.750000
2695.674959	367.450000
2697.065289	370.880000
2698.450634	365.220000
2699.838903	360.560000
2701.225352	362.240000
2702.611562	365.420000
2703.997534	365.060000
2705.380106	358.770000
2706.764021	359.140000
2708.147698	358.190000
2709.531137	365.830000
2710.911180	355.560000
2712.292565	364.520000
2713.672134	365.360000
2715.053045	361.200000
2716.432141	363.830000
2717.809422	364.640000
2719.188045	365.120000
2720.564855	367.860000
2721.941429	368.230000
2723.317767	367.460000
2724.692293	366.110000
2726.068160	361.000000
2727.440640	369.000000
2728.816036	358.480000
2730.186472	364.280000
2731.558249	367.930000
2732.929791	365.150000
2734.299525	368.210000
2735.670600	364.980000
2737.039867	370.510000
2738.408900	365.860000
2739.776126	356.090000
2741.143120	365.330000
2742.509881	357.780000
2743.876409	358.380000
2745.241132	366.970000
2746.605624	363.700000
2747.969883	357.070000
2749.333910	366.990000
2750.697706	361.760000
2752.058128	368.080000
2753.421461	366.530000
2754.779851	369.020000
2756.141151	363.640000
2757.499080	361.090000
2758.859919	354.880000
2760.218957	360.530000
2761.574627	359.720000
2762.933205	353.300000
2764.288417	358.040000
2765.643399	361.280000
2766.996584	368.210000
2768.352676	359.960000
2769.705404	356.260000
2771.057903	359.630000
2772.410174	355.310000
2773.763784	359.800000
2775.114032	358.370000
2776.462487	355.850000
2777.813846	357.660000
2779.161846	359.450000
2780.511185	357.150000
2781.858731	358.040000
2783.206050	355.290000
2784.553143	357.090000
2785.898445	357.710000
2787.243521	354.810000
2788.588371	353.130000
2789.932994	356.360000
2791.274266	351.280000
2792.616876	356.850000
2793.959260	347.560000
2795.301420	352.650000
2796.640230	353.600000
2797.981939	354.610000
2799.320301	356.310000
2800.660000	358.750000
2801.997913	352.860000
2803.334042	353.150000
2804.669947	355.030000
2806.007190	350.470000
2807.342649	360.670000
2808.677885	360.030000
2810.011338	350.850000
2811.346129	355.730000
2812.677578	364.530000
2814.011923	357.650000
2815.341370	355.000000
2816.672154	357.830000
2818.002716	351.630000
2819.331499	353.840000
2820.661618	361.900000
2821.989959	361.610000
2823.318079	356.570000
2824.644422	353.040000
2825.972100	356.880000
2827.296446	355.940000
2828.622127	354.850000
2829.946033	354.440000
2831.269720	357.040000
2832.594742	352.550000
2833.916434	354.810000
2835.237908	352.800000
2836.559163	346.950000
2837.880199	356.390000
2839.199463	347.650000
2840.520062	355.950000
2841.838889	350.930000
2843.157498	351.530000
2844.474336	349.100000
2845.790958	346.970000
2847.107361	353.670000
2848.421996	351.850000
2849.737965	356.060000
2851.050614	352.910000
2852.364599	355.060000
2853.678366	353.790000
2854.991918	360.060000
2856.303702	356.960000
2857.613720	356.560000
2858.925073	354.490000
2860.233111	354.370000
2861.542484	348.830000
2862.851641	354.100000
2864.160583	356.470000
2865.467762	354.710000
2866.773177	359.010000
2868.079927	363.480000
2869.384914	364.630000
2870.689688	356.350000
2871.992700	356.570000
2873.298594	358.040000
2874.599632	363.250000
2875.902005	352.430000
2877.202618	357.220000
2878.504565	359.440000
2879.806299	357.950000
2881.104728	355.600000
2882.404492	353.980000
2883.702497	359.280000
2885.000291	357.170000
2886.296329	357.020000
2887.593700	357.060000
2888.889315	355.700000
2890.184719	351.940000
2891.479913	352.200000
2892.771808	357.410000
2894.066580	357.130000
2895.358055	349.380000
2896.650863	357.280000
2897.943461	354.430000
2899.232765	356.870000
2900.523401	352.120000
2901.812286	355.760000
2903.102504	347.450000
2904.389430	349.230000
2905.677688	348.810000
2906.964196	354.200000
2908.250497	354.730000
2909.536589	350.150000
2910.820933	350.570000
2912.108149	348.400000
2913.390537	351.140000
2914.674258	355.130000
2915.956233	354.130000
2917.238001	345.240000
2918.518023	354.010000
2919.800915	357.410000
2921.082062	349.180000
2922.359927	348.720000
2923.640661	355.810000
2924.918114	354.060000
2926.195361	356.890000
2927.470867	355.920000
2928.749240	352.010000
2930.022798	359.140000
2931.299224	347.410000
2932.573909	348.880000
2933.846854	348.960000
2935.121129	345.680000
2936.393665	349.750000
2937.665997	342.950000
2938.935055	354.140000
2940.206979	352.100000
2941.477165	349.840000
2942.747148	350.250000
2944.016927	351.100000
2945.284969	348.830000
2946.551276	346.190000
2947.817380	342.030000
2949.084814	347.450000
2950.350514	349.100000
2951.616011	347.650000
2952.881306	345.630000
2954.143336	351.880000
2955.406697	347.500000
2956.669855	346.700000
2957.931282	350.220000
2959.194038	342.400000
2960.455063	351.860000
2961.714356	345.550000
2962.973450	343.740000
2964.232343	346.460000
2965.491036	348.040000
2966.749529	348.250000
2968.006293	337.300000
2969.262857	350.460000
2970.517694	345.860000
2971.773860	344.570000
2973.026770	350.760000
2974.281010	346.390000
2975.535051	352.180000
2976.787366	343.650000
2978.039483	350.440000
2979.289875	347.030000
2980.543122	348.270000
2981.791592	336.250000
2983.042916	346.900000
2984.290992	345.500000
2985.538870	345.430000
2986.786551	343.690000
2988.034036	347.110000
2989.279799	343.480000
2990.525365	345.010000
2991.772259	347.670000
2993.015909	344.500000
2994.260887	346.580000
2995.502622	347.970000
2996.747208	345.550000
2997.990074	342.860000
2999.229700	344.700000
3000.472176	344.170000
3001.711413	347.340000
3002.951977	347.160000
3004.190824	347.360000
3005.429477	346.440000
3006.666414	345.120000
3007.904678	338.870000
3009.141228	347.220000
3010.377583	340.600000
3011.613745	349.260000
3012.848194	347.030000
3014.082449	342.740000
3015.316511	348.800000
3016.548861	342.960000
3017.779499	353.110000
3019.012983	338.110000
3020.244755	343.870000
3021.474817	343.700000
3022.704687	347.930000
3023.932847	341.580000
3025.162333	347.350000
3026.390111	336.060000
3027.617697	345.250000
3028.846609	341.750000
3030.070779	342.510000
3031.297792	343.520000
3032.521581	339.310000
3033.746697	340.690000
3034.970106	347.260000
3036.193326	345.910000
3037.414840	341.010000
3038.639195	347.440000
3039.858815	343.500000
3041.079760	346.110000
3042.300517	342.350000
3043.519570	343.300000
3044.739949	350.820000
3045.957111	340.800000
3047.175598	340.060000
3048.392384	347.140000
3049.608981	344.010000
3050.825390	347.180000
3052.038587	341.100000
3053.254621	343.260000
3054.467443	344.080000
3055.683102	336.090000
3056.894038	338.460000
3058.106299	348.200000
3059.318374	339.730000
3060.530262	340.670000
3061.740452	346.410000
3062.950456	341.690000
3064.160275	344.730000
3065.368397	339.950000
3066.576333	338.900000
3067.782575	339.670000
3068.990140	344.640000
3070.196012	340.860000
3071.401698	337.080000
3072.607199	341.420000
3073.811007	338.950000
3075.016139	341.130000
3076.219579	343.720000
3077.421326	347.750000
3078.622890	338.510000
3079.824270	341.840000
3081.025466	336.250000
3082.224972	338.380000
3083.424294	341.430000
3084.624940	345.690000
3085.823896	341.990000
3087.019658	340.980000
3088.218249	341.100000
3089.413646	342.510000
3090.610366	333.130000
3091.803894	336.030000
3093.000251	339.300000
3094.194920	336.990000
3095.386399	331.720000
3096.582209	342.280000
3097.773326	337.680000
3098.965765	334.690000
3100.155017	339.050000
3101.347095	338.420000
3102.537488	338.270000
3103.724696	341.970000
3104.913227	341.150000
3106.103080	342.650000
3107.289748	333.070000
3108.476237	342.380000
3109.662546	343.000000
3110.850177	342.630000
3112.034627	336.840000
3113.217396	341.480000
3114.402989	338.380000
3115.586901	341.310000
3116.769135	333.420000
3117.951190	333.740000
3119.133068	339.360000
3120.314767	340.870000
3121.494788	340.240000
3122.673133	334.730000
3123.854299	336.360000
3125.032289	342.040000
3126.210102	335.200000
3127.387738	338.870000
3128.563699	332.190000
3129.739483	339.490000
3130.916589	335.140000
3132.092020	338.770000
3133.265778	333.950000
3134.437864	338.720000
3135.611270	334.460000
3136.784501	334.430000
3137.956059	332.510000
3139.128939	339.650000
3140.298651	328.780000
3141.469684	335.540000
3142.639046	336.810000
3143.806739	335.750000
3144.977247	337.060000
3146.143096	336.980000
3147.313255	331.350000
3148.478756	337.960000
3149.644084	343.240000
3150.809238	336.710000
3151.974218	343.680000
3153.140519	338.320000
3154.302166	336.920000
3155.465134	333.520000
3156.627928	338.200000
3157.790550	331.150000
3158.951507	327.570000
3160.112291	325.550000
3161.272903	328.320000
3162.431852	333.470000
3163.590628	328.560000
3164.749233	328.640000
3165.907666	326.260000
3167.065927	327.600000
3168.222526	325.230000
3169.377464	333.860000
3170.533721	326.990000
3171.688318	326.320000
3172.842743	325.550000
3173.995509	326.410000
3175.148105	327.910000
3176.300530	327.470000
3177.452786	327.970000
3178.604872	329.830000
3179.753811	326.860000
3180.905557	332.970000
3182.055645	331.350000
3183.204077	325.680000
3184.352340	329.920000
3185.500433	337.660000
3186.648358	330.280000
3187.794628	334.010000
3188.940729	333.140000
3190.085175	341.410000
3191.229454	339.480000
3192.373565	335.490000
3193.518994	332.640000
3194.661283	333.890000
3195.803406	329.200000
3196.945361	340.540000
3198.087150	342.860000
3199.228771	337.070000
3200.367256	334.220000
3201.507059	331.050000
3202.648180	333.430000
3203.786166	333.570000
3204.922503	327.980000
3206.058674	331.130000
3207.196163	334.950000
3208.332002	330.310000
3209.469159	328.260000
3210.601703	329.960000
3211.738529	328.750000
3212.870743	335.720000
3214.004275	332.270000
3215.137641	330.340000
3216.267880	332.660000
3217.400917	326.040000
3218.530828	324.100000
3219.662056	327.620000
3220.790158	325.140000
3221.921057	327.630000
3223.050313	325.080000
3224.177924	318.460000
3225.302414	320.230000
3226.431179	320.000000
3227.556822	322.010000
3228.682302	320.720000
3229.806141	322.160000
3230.932774	328.750000
3232.054810	323.130000
3233.178162	325.040000
3234.301352	327.440000
3235.424380	321.140000
3236.545768	327.270000
3237.666995	319.390000
3238.786583	324.320000
3239.906010	329.420000
3241.023799	326.010000
3242.144381	319.760000
3243.261848	331.230000
3244.379156	321.110000
3245.496302	333.290000
3246.611813	328.100000
3247.728639	335.950000
3248.842354	336.450000
3249.958860	337.790000
3251.073730	328.030000
3252.185492	336.520000
3253.297095	337.680000
3254.410012	333.270000
3255.522771	332.950000
3256.632423	331.520000
3257.743390	337.030000
3258.854197	327.980000
3259.963374	336.040000
3261.070919	334.060000
3262.179779	338.580000
3263.288480	333.330000
3264.394079	334.460000
3265.500992	336.290000
3266.606277	340.170000
3267.712875	334.040000
3268.816373	336.090000
3269.921185	333.760000
3271.025840	336.220000
3272.127396	334.410000
3273.228797	331.030000
3274.331511	328.780000
3275.434068	331.170000
3276.533530	334.620000
3277.635774	335.440000
3278.734923	340.730000
3279.832448	330.560000
3280.929817	333.610000
3282.029969	332.890000
3283.127027	336.180000
3284.223930	338.770000
3285.320679	331.220000
3286.412868	335.170000
3287.509306	332.060000
3288.604123	338.370000
3289.698784	331.180000
3290.791824	339.870000
3291.884710	337.810000
3292.975975	335.250000
3294.068553	332.580000
3295.159510	331.970000
3296.248848	334.130000
3297.338033	330.400000
3298.428531	334.730000
3299.515944	334.710000
3300.603205	335.300000
3301.691778	337.270000
3302.780198	336.370000
3303.864071	328.750000
3304.952186	337.660000
3306.037220	331.790000
3307.120637	337.170000
3308.205367	341.130000
3309.288482	339.040000
3310.372908	333.340000
3311.454256	334.840000
3312.536916	338.920000
3313.617962	336.100000
3314.698857	340.980000
3315.778139	340.930000
3316.857270	336.120000
3317.937712	336.280000
3319.015081	333.670000
3320.093760	335.250000
3321.170829	336.210000
3322.247747	339.950000
3323.323054	329.990000
3324.398212	338.170000
3325.474681	337.730000
3326.548080	343.190000
3327.621330	334.100000
3328.695891	341.740000
3329.768842	340.050000
3330.840186	341.090000
3331.912840	339.920000
3332.982427	339.720000
3334.053325	339.460000
3335.122616	336.340000
3336.193218	338.690000
3337.262213	339.710000
3338.329602	331.330000
3339.395386	337.820000
3340.465396	335.290000
3341.532343	338.050000
3342.596228	337.130000
3343.662881	331.420000
3344.727929	331.580000
3345.791374	334.550000
3346.854673	332.550000
3347.917826	331.690000
3348.980832	334.530000
3350.043691	335.570000
3351.104949	336.240000
3352.163150	336.400000
3353.225572	339.830000
3354.284937	330.120000
3355.344157	334.750000
3356.404687	326.700000
3357.460707	335.780000
3358.519492	336.570000
3359.573769	337.740000
3360.630809	331.740000
3361.686252	339.760000
3362.743003	331.300000
3363.798157	333.970000
3364.851713	338.730000
3365.903672	341.200000
3366.958393	340.300000
3368.010065	337.880000
3369.061594	339.830000
3370.114432	342.680000
3371.164222	338.120000
3372.215320	341.930000
3373.263373	342.070000
3374.314186	343.680000
3375.361953	333.240000
3376.409578	340.490000
3377.457060	339.770000
3378.502950	336.740000
3379.550148	339.980000
3380.594304	347.110000
3381.641218	329.950000
3382.686540	340.590000
3383.728822	342.670000
3384.770962	343.860000
3385.814410	339.090000
3386.857718	339.800000
3387.899435	338.060000
3388.941011	336.250000
3389.982447	341.400000
3391.022293	336.560000
3392.060552	343.840000
3393.100118	340.130000
3394.139543	338.090000
3395.177381	333.950000
3396.213633	338.740000
3397.249744	343.350000
3398.287163	339.860000
3399.321549	332.770000
3400.357242	341.460000
3401.392796	335.530000
3402.425319	337.600000
3403.460595	340.130000
3404.492840	335.860000
3405.524947	340.420000
3406.555470	340.850000
3407.587301	332.600000
3408.618992	339.050000
3409.647657	346.620000
3410.676183	339.890000
3411.706017	341.030000
3412.735712	342.390000
3413.762382	343.290000
3414.790359	333.900000
3415.815311	344.120000
3416.843013	339.400000
3417.867692	345.980000
3418.893677	338.940000
3419.918082	339.270000
3420.942351	344.680000
3421.965041	340.580000
3422.987595	339.220000
3424.011455	330.860000
3425.032295	336.140000
3426.053000	337.360000
3427.075010	331.420000
3428.094002	330.910000
3429.112859	330.750000
3430.133021	334.990000
3431.150167	332.220000
