-118.106446	8.180000
-115.436846	9.760000
-112.770181	10.060000
-110.104268	6.520000
-107.441287	12.020000
-104.776877	10.290000
-102.115397	9.030000
-99.452487	14.390000
-96.794685	7.940000
-94.135452	8.630000
-91.476968	6.080000
-88.821409	15.490000
-86.164421	9.920000
-83.512530	14.250000
-80.859210	15.270000
-78.208810	10.060000
-75.556980	10.350000
-72.910241	17.830000
-70.262072	12.080000
-67.614647	15.780000
-64.970135	12.080000
-62.324195	8.170000
-59.683336	14.230000
-57.041048	19.840000
-54.401668	13.600000
-51.760860	16.610000
-49.120792	10.790000
-46.485796	11.360000
-43.849371	14.360000
-41.215850	15.940000
-38.580900	19.740000
-35.951015	12.090000
-33.317538	12.440000
-30.689123	19.220000
-28.061441	20.860000
-25.432332	20.000000
-22.808279	23.070000
-20.180637	26.710000
-17.558048	32.990000
-14.936191	42.210000
-12.315064	71.890000
-9.694667	167.860000
-7.077158	522.940000
-4.458221	1604.140000
-1.842170	3488.440000
0.773153	3647.030000
3.387749	1716.180000
5.999462	191.910000
8.612604	45.240000
11.220712	29.590000
13.832402	27.840000
16.439061	24.520000
19.047148	18.450000
21.654511	22.540000
24.256849	20.570000
26.862765	21.710000
29.463659	15.860000
32.065981	16.650000
34.663286	16.640000
37.264166	21.240000
39.860032	20.260000
42.457325	16.550000
45.053899	15.270000
47.645464	17.460000
50.238457	19.620000
52.828589	20.300000
55.420149	21.510000
58.008849	18.280000
60.598976	21.710000
63.184105	18.020000
65.770660	16.700000
68.356502	18.880000
70.939490	18.800000
73.523905	21.670000
76.101190	27.330000
78.682042	14.670000
81.260045	26.220000
83.837338	19.750000
86.416057	20.990000
88.989795	24.190000
91.564959	26.020000
94.137280	25.230000
96.708893	33.040000
99.277666	41.180000
101.847866	34.460000
104.415228	38.230000
106.984015	39.020000
109.549966	50.120000
112.113082	70.200000
114.679754	90.710000
117.237205	112.060000
119.800341	153.620000
122.358518	212.030000
124.920248	305.720000
127.477023	464.970000
130.035223	689.020000
132.588471	1017.100000
135.141020	1461.220000
137.697120	2019.740000
140.248273	2638.910000
142.798727	3229.850000
145.348485	3669.760000
147.895423	4000.660000
150.441665	4149.170000
152.989333	4241.340000
155.536306	4281.790000
158.078342	4250.400000
160.619685	4231.420000
163.160335	4228.090000
165.702411	4192.610000
168.241676	4202.560000
170.778131	4154.080000
173.313896	4136.410000
175.851086	4118.050000
178.387584	4087.930000
180.921277	4073.870000
183.452167	4051.020000
185.982368	4026.140000
188.513994	4024.310000
191.042819	4019.020000
193.568845	4012.630000
196.094186	3970.520000
198.620951	3983.040000
201.144919	3969.550000
203.668203	3979.960000
206.190802	3962.750000
208.710608	3949.210000
211.229731	3932.200000
213.748171	3917.080000
216.268035	3927.230000
218.780898	3928.570000
221.297292	3931.220000
223.813004	3959.210000
226.323827	3946.020000
228.836074	3963.310000
231.345538	3964.520000
233.854324	3973.900000
236.362432	3995.430000
238.871963	4003.040000
241.376615	3997.020000
243.880590	4003.010000
246.385989	4017.190000
248.886513	4036.720000
251.390560	4040.660000
253.887637	4032.830000
256.388236	4043.950000
258.886064	4058.550000
261.383219	4026.780000
263.879701	4072.090000
266.371320	4054.750000
268.866459	4067.720000
271.358832	4049.930000
273.850534	4068.700000
276.339473	4068.550000
278.829835	4044.970000
281.317436	4034.180000
283.802277	4048.540000
286.290632	4053.640000
288.772048	4024.150000
291.256978	4036.830000
293.737063	4049.990000
296.220660	4043.470000
298.699414	4059.970000
301.179592	4074.540000
303.657017	4051.210000
306.133779	4048.700000
308.609878	4055.450000
311.083228	4046.760000
313.555916	4060.180000
316.027943	4044.400000
318.499309	4113.530000
320.967931	4111.930000
323.435893	4133.770000
325.905278	4070.210000
328.369840	4078.980000
330.837905	4046.520000
333.301151	4056.490000
335.763740	4046.190000
338.225671	4028.220000
340.686946	4028.840000
343.145487	4009.420000
345.605450	3983.680000
348.062680	3953.000000
350.519256	3948.810000
352.975178	3916.590000
355.428371	3872.140000
357.882985	3861.190000
360.332798	3826.280000
362.786108	3792.700000
365.234618	3747.480000
367.682478	3718.390000
370.131759	3679.520000
372.576247	3654.700000
375.022157	3606.480000
377.467418	3558.680000
379.909960	3552.810000
382.351854	3507.780000
384.793100	3480.620000
387.231631	3463.530000
389.671584	3413.180000
392.108823	3378.990000
394.543350	3345.740000
396.981365	3336.060000
399.414603	3301.730000
401.849263	3260.730000
404.279149	3249.780000
406.712521	3223.220000
409.141123	3223.590000
411.569084	3174.670000
413.998465	3156.880000
416.423081	3190.250000
418.849119	3150.620000
421.274516	3132.300000
423.699273	3133.650000
426.119272	3108.210000
428.540692	3121.960000
430.959415	3094.070000
433.379559	3104.920000
435.797008	3104.230000
438.215877	3085.850000
440.632053	3101.010000
443.043482	3096.250000
445.458387	3081.460000
447.870602	3064.360000
450.282183	3082.510000
452.693130	3074.510000
455.101391	3070.400000
457.509019	3054.290000
459.916016	3050.500000
462.322380	3019.830000
464.726062	3034.160000
467.129114	3017.710000
469.531536	3010.850000
471.933329	3001.720000
474.332443	2984.530000
476.732977	2986.010000
479.132882	2965.940000
481.528064	2962.190000
483.926713	2971.670000
486.320642	2943.700000
488.713945	2931.880000
491.106622	2904.390000
493.498674	2912.200000
495.892145	2885.970000
498.280903	2881.620000
500.666995	2889.060000
503.054507	2876.610000
505.441395	2849.980000
507.825620	2849.670000
510.211264	2858.650000
512.594245	2833.740000
514.974566	2829.020000
517.356306	2852.860000
519.735387	2826.680000
522.115887	2836.370000
524.493729	2816.270000
526.868916	2833.130000
529.243485	2807.530000
531.619473	2804.790000
533.992807	2772.370000
536.367559	2755.610000
538.737626	2732.990000
541.107077	2711.900000
543.477946	2674.950000
545.844135	2630.810000
548.211742	2625.740000
550.576703	2582.820000
552.941051	2557.970000
555.304787	2519.810000
557.669940	2491.590000
560.030420	2442.840000
562.392319	2427.750000
564.751578	2390.670000
567.108198	2352.520000
569.468263	2314.620000
571.821638	2270.610000
574.178457	2247.020000
576.532640	2213.000000
578.886216	2179.600000
581.239183	2142.270000
583.589519	2104.450000
585.941271	2094.050000
588.286347	2057.530000
590.636887	2020.010000
592.980754	2007.460000
595.330081	1994.530000
597.674761	1960.370000
600.016815	1957.870000
602.360287	1929.140000
604.701136	1913.690000
607.041383	1895.520000
609.379009	1899.880000
611.720070	1880.000000
614.056494	1875.390000
616.394334	1873.350000
618.729556	1877.010000
621.062163	1888.420000
623.396186	1891.330000
625.727596	1897.830000
628.058407	1883.710000
630.388620	1885.760000
632.718235	1882.100000
635.043228	1880.800000
637.373662	1871.020000
639.699474	1875.630000
642.022680	1865.150000
644.347301	1854.720000
646.669318	1849.330000
648.990740	1854.430000
651.309559	1862.500000
653.629794	1855.780000
655.949436	1865.070000
658.266477	1869.280000
660.582926	1884.110000
662.896778	1886.740000
665.212044	1912.540000
667.524714	1929.160000
669.838799	1935.720000
672.148284	1963.600000
674.459185	1986.670000
676.767493	1980.670000
679.075213	2012.840000
681.384348	2045.000000
683.688890	2060.620000
685.992845	2065.960000
688.296215	2082.350000
690.600999	2106.520000
692.901197	2115.760000
695.202809	2139.290000
697.503837	2147.150000
699.800282	2174.890000
702.098143	2194.910000
704.395420	2221.500000
706.692114	2231.710000
708.984232	2229.810000
711.279761	2258.060000
713.570717	2285.080000
715.863087	2303.390000
718.152881	2316.880000
720.442096	2331.070000
722.730730	2358.590000
725.016793	2371.960000
727.304269	2383.320000
729.589175	2394.270000
731.873502	2434.100000
734.155261	2443.740000
736.438434	2458.950000
738.721030	2472.360000
740.999071	2494.230000
743.278525	2522.810000
745.557404	2553.930000
747.835707	2581.780000
750.109461	2587.000000
752.384629	2621.330000
754.659223	2652.620000
756.931258	2658.130000
759.204705	2690.030000
761.475595	2725.890000
763.743929	2732.300000
766.013676	2771.510000
768.280869	2784.610000
770.547491	2806.580000
772.813544	2845.830000
775.077044	2843.110000
777.341958	2874.160000
779.606302	2905.790000
781.866117	2916.870000
784.127345	2938.050000
786.388005	2950.610000
788.646118	2993.070000
790.901687	2991.360000
793.160647	3012.630000
795.413108	3037.820000
797.670936	3039.080000
799.924244	3058.440000
802.175013	3071.570000
804.427194	3069.510000
806.676837	3084.740000
808.927891	3095.110000
811.174434	3105.360000
813.422389	3114.340000
815.667810	3139.110000
817.914642	3140.050000
820.160913	3169.370000
822.402680	3178.250000
824.647829	3195.830000
826.886506	3202.890000
829.128566	3224.530000
831.366127	3239.050000
833.605099	3271.300000
835.841545	3264.030000
838.079402	3287.470000
840.314735	3303.960000
842.547543	3342.030000
844.781763	3368.940000
847.013461	3390.970000
849.244604	3434.080000
851.475192	3464.760000
853.705226	3523.940000
855.934705	3551.730000
858.159703	3597.930000
860.388076	3650.420000
862.611970	3703.490000
864.837274	3772.730000
867.058103	3850.040000
869.282304	3904.600000
871.502032	3954.690000
873.723171	4030.710000
875.943759	4111.690000
878.161837	4186.930000
880.381326	4262.790000
882.596348	4326.720000
884.810822	4370.830000
887.024749	4451.510000
889.238128	4481.270000
891.450960	4497.730000
893.663246	4523.560000
895.873029	4567.160000
898.082267	4550.700000
900.290960	4566.090000
902.497154	4550.040000
904.704757	4511.980000
906.909863	4465.440000
909.114425	4436.770000
911.316491	4392.750000
913.519967	4301.390000
915.720949	4219.790000
917.921390	4132.360000
920.123239	4048.450000
922.318696	3939.240000
924.517513	3859.440000
926.711891	3748.810000
928.909627	3623.790000
931.102927	3536.200000
933.297636	3471.370000
935.489859	3369.330000
937.681544	3315.600000
939.872691	3245.630000
942.061355	3205.060000
944.249482	3176.760000
946.435129	3135.780000
948.624128	3129.740000
950.808704	3097.270000
952.992745	3101.690000
955.180136	3070.880000
957.359223	3089.940000
959.541661	3092.460000
961.723565	3091.200000
963.902995	3102.790000
966.079952	3100.640000
968.258316	3082.310000
970.438088	3086.820000
972.611511	3068.530000
974.788280	3049.070000
976.960643	3038.720000
979.134412	2992.270000
981.303778	2944.730000
983.476489	2933.970000
985.646733	2880.470000
987.816449	2828.270000
989.985636	2775.860000
992.150426	2743.270000
994.318557	2698.200000
996.482294	2640.690000
998.647437	2600.140000
1000.810122	2553.140000
1002.972280	2502.610000
1005.131982	2462.140000
1007.291160	2402.540000
1009.451744	2367.170000
1011.609873	2313.940000
1013.767478	2284.030000
1015.924560	2229.960000
1018.081119	2184.080000
1020.233298	2160.400000
1022.386883	2108.130000
1024.539947	2089.430000
1026.690563	2051.570000
1028.842584	2029.870000
1030.990232	2003.660000
1033.141212	1980.030000
1035.287821	1950.350000
1037.433912	1933.740000
1039.579483	1908.390000
1041.726460	1881.340000
1043.867149	1859.860000
1046.011166	1836.280000
1048.152743	1827.270000
1050.293804	1808.250000
1052.436269	1782.410000
1054.572455	1771.150000
1056.711967	1758.950000
1058.847123	1741.290000
1060.985604	1718.460000
1063.119731	1694.180000
1065.253345	1671.690000
1067.388364	1653.140000
1069.519033	1640.860000
1071.651107	1622.820000
1073.780752	1602.720000
1075.909885	1588.890000
1078.038506	1553.680000
1080.166616	1548.410000
1082.292300	1512.390000
1084.417474	1509.850000
1086.544052	1475.270000
1088.666293	1453.360000
1090.789937	1428.510000
1092.909248	1403.280000
1095.033787	1371.980000
1097.152081	1350.320000
1099.271780	1333.960000
1101.389060	1311.030000
1103.505834	1270.930000
1105.622101	1250.410000
1107.735953	1233.220000
1109.851208	1204.720000
1111.962141	1186.670000
1114.076385	1155.610000
1116.186309	1134.890000
1118.297637	1101.620000
1120.408460	1079.570000
1122.514968	1058.460000
1124.624784	1040.310000
1126.730286	1015.140000
1128.837191	985.690000
1130.937881	970.560000
1133.043783	950.530000
1135.145376	925.980000
1137.248372	905.110000
1139.350867	885.500000
1141.447155	875.850000
1143.548651	842.520000
1145.645844	832.250000
1147.742538	808.260000
1149.838734	794.500000
1151.934433	769.880000
1154.029634	762.720000
1156.122438	738.940000
1158.216644	739.130000
1160.304659	701.800000
1162.397872	698.300000
1164.484897	675.760000
1166.575221	665.750000
1168.661258	652.780000
1170.750592	635.420000
1172.833745	628.020000
1174.918301	611.540000
1177.004257	599.980000
1179.085932	594.420000
1181.169009	578.080000
1183.249700	567.800000
1185.329899	563.000000
1187.409607	548.800000
1189.488824	538.320000
1191.565659	523.780000
1193.640113	520.620000
1195.717859	515.330000
1197.791334	505.120000
1199.866210	497.750000
1201.936819	490.970000
1204.008830	486.360000
1206.078464	479.290000
1208.149499	474.670000
1210.220046	471.740000
1212.286332	463.120000
1214.354019	462.510000
1216.419334	459.990000
1218.486049	457.140000
1220.548508	456.130000
1222.614252	453.750000
1224.675743	452.650000
1226.738633	440.490000
1228.799156	441.190000
1230.859195	442.130000
1232.918752	433.610000
1234.975943	438.730000
1237.032653	441.630000
1239.087000	431.930000
1241.144627	435.140000
1243.199892	437.430000
1245.250916	421.880000
1247.303340	430.010000
1249.355284	426.590000
1251.404870	422.370000
1253.453977	424.450000
1255.502606	419.430000
1257.550756	413.220000
1259.598428	423.750000
1261.641869	417.340000
1263.688585	416.110000
1265.732948	423.010000
1267.776835	408.690000
1269.818371	413.960000
1271.857557	408.530000
1273.900015	414.150000
1275.938251	411.650000
1277.977886	405.530000
1280.017046	412.230000
1282.051987	408.650000
1284.088328	407.490000
1286.122323	399.480000
1288.157717	408.690000
1290.188897	401.340000
1292.221476	407.940000
1294.253582	401.050000
1296.283348	407.300000
1298.314512	406.370000
1300.341468	408.070000
1302.369822	407.100000
1304.393972	412.930000
1306.421386	408.500000
1308.444598	404.680000
1310.469208	409.770000
1312.491484	410.100000
1314.515157	410.940000
1316.536497	406.610000
1318.557369	409.630000
1320.577775	414.700000
1322.593986	420.010000
1324.611596	412.850000
1326.626877	421.630000
1328.645416	418.830000
1330.659767	421.520000
1332.671792	426.890000
1334.687074	423.820000
1336.698171	426.970000
1338.710665	427.730000
1340.718976	434.510000
1342.730543	428.580000
1344.736070	429.370000
1346.744853	438.690000
1348.749458	434.630000
1350.757317	442.160000
1352.764714	435.530000
1354.766080	431.870000
1356.768843	438.970000
1358.771145	438.170000
1360.772988	437.510000
1362.774371	438.680000
1364.773441	436.770000
1366.772052	435.450000
1368.770205	438.650000
1370.767900	436.940000
1372.761431	428.570000
1374.756359	429.980000
1376.750830	432.830000
1378.744844	433.240000
1380.736551	429.360000
1382.727802	431.690000
1384.716748	429.620000
1386.707089	426.460000
1388.696975	420.810000
1390.684558	421.790000
1392.671686	420.200000
1394.656514	420.000000
1396.642735	423.070000
1398.626657	421.010000
1400.610126	415.900000
1402.593143	421.430000
1404.573861	408.250000
1406.555975	407.500000
1408.535791	415.590000
1410.515157	407.030000
1412.490383	402.960000
1414.468849	403.540000
1416.445020	401.570000
1418.420743	404.580000
1420.396016	396.020000
1422.368998	394.380000
1424.341532	390.550000
1426.313619	393.650000
1428.285257	388.410000
1430.252767	387.190000
1432.225352	386.790000
1434.190130	383.240000
1436.159981	382.050000
1438.125707	383.920000
1440.092826	376.870000
1442.057662	376.820000
1444.018379	370.750000
1445.984163	371.190000
1447.943992	371.090000
1449.905214	378.450000
1451.867829	373.830000
1453.826329	365.310000
1455.784387	363.270000
1457.742002	361.340000
1459.699176	359.730000
1461.654074	359.690000
1463.610364	358.270000
1465.564380	355.500000
1467.517956	355.640000
1469.469259	352.940000
1471.421954	353.000000
1473.372378	348.250000
1475.322363	348.830000
1477.271908	349.820000
1479.219185	344.390000
1481.164195	347.280000
1483.110596	347.100000
1485.056561	342.100000
1487.002087	348.540000
1488.945349	340.570000
1490.888174	343.700000
1492.828736	341.250000
1494.770689	338.690000
1496.710381	342.790000
1498.649637	341.730000
1500.588458	333.040000
1502.525020	338.550000
1504.462973	338.550000
1506.398668	332.980000
1508.333929	336.280000
1510.266933	328.460000
1512.199505	332.200000
1514.131645	335.710000
1516.063353	335.100000
1517.992807	332.400000
1519.923652	329.330000
1521.854066	325.910000
1523.780406	321.740000
1525.708138	332.890000
1527.633619	322.680000
1529.558671	326.350000
1531.483294	328.920000
1533.407488	329.590000
1535.329435	330.420000
1537.252771	329.350000
1539.173862	323.620000
1541.092708	321.210000
1543.012944	329.820000
1544.930936	314.050000
1546.848502	326.010000
1548.763826	319.950000
1550.680540	324.940000
1552.593199	324.060000
1554.509062	323.670000
1556.422685	331.560000
1558.334071	323.810000
1560.246845	323.070000
1562.155570	325.070000
1564.065685	322.340000
1565.975376	311.470000
1567.884643	320.150000
1569.791677	315.980000
1571.696478	324.420000
1573.602668	316.240000
1575.506626	322.260000
1577.410164	313.840000
1579.313280	319.820000
1581.214168	318.180000
1583.116443	316.260000
1585.016491	324.000000
1586.917926	322.880000
1588.815328	316.390000
1590.712311	317.560000
1592.608876	314.240000
1594.506829	317.760000
1596.398947	312.110000
1598.294258	308.630000
1600.189152	312.480000
1602.081824	306.630000
1603.974080	308.980000
1605.864115	309.460000
1607.753736	308.410000
1609.642940	302.530000
1611.531730	312.430000
1613.418303	307.560000
1615.306262	311.480000
1617.190205	312.030000
1619.075536	306.030000
1620.960452	304.330000
1622.843155	304.850000
1624.727245	305.490000
1626.607324	303.170000
1628.488789	309.670000
1630.368044	302.060000
1632.248685	304.950000
1634.123522	298.470000
1636.003341	302.580000
1637.879154	296.440000
1639.754557	301.900000
1641.631347	297.490000
1643.502339	296.390000
1645.376513	296.860000
1647.246689	293.410000
1649.120045	287.430000
1650.991198	299.100000
1652.860149	303.240000
1654.730486	289.660000
1656.596829	294.760000
1658.464558	291.370000
1660.330089	300.060000
1662.197004	297.160000
1664.059931	288.870000
1665.924243	287.690000
1667.786359	287.010000
1669.648071	287.670000
1671.511167	287.640000
1673.372069	291.030000
1675.230777	289.330000
1677.089082	285.910000
1678.948772	284.940000
1680.802695	284.940000
1682.659790	283.780000
1684.516483	292.460000
1686.369200	284.790000
1688.225087	288.510000
1690.077001	285.470000
1691.928514	286.550000
1693.779626	278.260000
1695.630338	290.580000
1697.480649	288.950000
1699.328776	283.400000
1701.178286	289.470000
1703.022048	281.690000
1704.870759	287.830000
1706.713725	284.140000
1708.559856	285.500000
1710.402026	279.870000
1712.247360	284.900000
1714.086954	281.030000
1715.927932	279.830000
1717.770293	280.260000
1719.608698	279.280000
1721.448486	280.260000
1723.286099	283.400000
1725.123316	281.850000
1726.958360	282.020000
1728.794787	281.380000
1730.629042	281.680000
1732.462902	273.410000
1734.296369	274.740000
1736.125889	281.380000
1737.958568	275.590000
1739.787303	279.230000
1741.619196	278.640000
1743.447146	279.510000
1745.274704	279.100000
1747.101870	284.720000
1748.928645	279.800000
1750.755029	282.150000
1752.577476	281.730000
1754.403077	277.460000
1756.224744	277.590000
1758.047793	274.150000
1759.868681	272.780000
1761.689179	276.220000
1763.511059	278.130000
1765.327239	275.740000
1767.146571	279.030000
1768.961976	282.150000
1770.780531	272.240000
1772.595161	279.180000
1774.409405	276.710000
1776.223261	275.310000
1778.036731	276.110000
1779.848048	282.820000
1781.660746	280.530000
1783.473057	280.250000
1785.281451	280.340000
1787.091226	268.650000
1788.897085	274.580000
1790.706090	272.620000
1792.511182	280.840000
1794.317655	277.030000
1796.123744	280.870000
1797.925923	280.170000
1799.731245	273.270000
1801.532659	270.720000
1803.335453	276.090000
1805.134341	276.030000
1806.934610	272.500000
1808.734497	276.230000
1810.532243	274.290000
1812.329607	270.160000
1814.126592	272.210000
1815.923196	271.200000
1817.717661	273.500000
1819.513505	274.440000
1821.303695	272.630000
1823.098781	268.010000
1824.888214	273.630000
1826.680784	271.130000
1828.471219	272.020000
1830.259520	269.430000
1832.050956	273.760000
1833.836746	272.720000
1835.623916	267.900000
1837.408954	277.300000
1839.197126	271.450000
1840.981412	262.400000
1842.763569	267.270000
1844.547104	270.150000
1846.328511	268.210000
1848.111297	267.190000
1849.890203	267.990000
1851.670487	268.650000
1853.448645	268.610000
1855.228182	263.720000
1857.005594	270.150000
1858.780882	277.320000
1860.557549	269.260000
1862.332092	267.860000
1864.108014	269.980000
1865.878316	265.510000
1867.651744	269.600000
1869.423053	268.210000
1871.193992	270.480000
1872.966307	263.590000
1874.733010	271.020000
1876.502837	269.250000
1878.268801	270.700000
1880.037889	273.530000
1881.803115	274.080000
1883.567972	269.270000
1885.334207	267.720000
1887.096583	268.950000
1888.858592	262.650000
1890.620233	267.450000
1892.381508	271.770000
1894.142415	264.560000
1895.902956	264.990000
1897.661387	272.040000
1899.419453	268.570000
1901.175410	259.800000
1902.932745	269.990000
1904.689713	263.580000
1906.444576	266.990000
1908.197333	261.600000
1909.949727	267.000000
1911.703496	263.080000
1913.455162	268.620000
1915.204726	263.640000
1916.955666	263.540000
1918.706242	262.860000
1920.452979	265.680000
1922.201093	259.040000
1923.947107	259.380000
1925.694497	262.680000
1927.439788	261.110000
1929.182982	260.160000
1930.927552	264.950000
1932.670025	259.940000
1934.412138	262.710000
1936.153891	260.480000
1937.895285	265.100000
1939.634585	262.620000
1941.373525	268.640000
1943.112108	258.380000
1944.848598	260.520000
1946.584731	262.435000
1948.322238	264.350000
1950.055923	261.140000
1951.790983	261.170000
1953.523955	263.950000
1955.256570	266.250000
1956.988828	257.990000
1958.720730	259.250000
1960.450546	262.870000
1962.178278	264.850000
1963.907383	267.810000
1965.636134	260.840000
1967.362801	270.410000
1969.089114	269.280000
1970.816800	265.320000
1972.538950	266.660000
1974.264201	264.120000
1975.985646	266.570000
1977.710190	266.040000
1979.432655	259.870000
1981.151316	267.090000
1982.873076	263.970000
1984.591034	269.190000
1986.310365	260.420000
1988.025897	262.430000
1989.746250	267.620000
1991.462803	263.830000
1993.175561	266.580000
1994.891414	265.390000
1996.605194	261.310000
1998.318625	262.230000
2000.029985	270.170000
2001.742718	261.670000
2003.451659	262.420000
2005.163694	262.590000
2006.870219	265.060000
2008.579837	266.430000
2010.287387	271.660000
2011.994590	265.730000
2013.699727	270.160000
2015.404517	260.610000
2017.110679	261.100000
2018.813059	265.730000
2020.516811	263.540000
2022.218499	256.470000
2023.919843	261.620000
2025.620841	259.750000
2027.319779	262.340000
2029.020087	260.620000
2030.716621	262.240000
2032.414526	266.500000
2034.110372	263.690000
2035.809304	266.980000
2037.502750	266.330000
2039.197568	268.690000
2040.892042	264.160000
2042.582748	262.010000
2044.276538	262.620000
2045.966561	261.340000
2047.657955	264.180000
2049.347296	266.120000
2051.038007	259.680000
2052.724956	261.400000
2054.411564	261.280000
2056.099543	260.640000
2057.783762	257.900000
2059.469351	252.020000
2061.154601	257.620000
2062.837803	264.320000
2064.522374	261.140000
2066.201483	256.570000
2067.885377	257.000000
2069.563811	256.490000
2071.245321	258.060000
2072.923081	257.290000
2074.600503	258.760000
2076.279296	256.310000
2077.956045	263.530000
2079.630753	261.850000
2081.306830	261.220000
2082.980867	257.910000
2084.654568	255.040000
2086.327934	260.370000
2087.999262	253.730000
2089.670255	250.730000
2091.340914	259.370000
2093.011238	257.190000
2094.681229	259.590000
2096.349184	254.910000
2098.016806	249.330000
2099.682393	259.010000
2101.349350	255.110000
2103.014272	255.960000
2104.678863	259.810000
2106.341422	251.540000
2108.005349	263.180000
2109.667246	258.460000
2111.328811	260.540000
2112.990045	261.040000
2114.649251	260.890000
2116.308126	257.000000
2117.966672	255.460000
2119.624888	261.530000
2121.279380	257.480000
2122.936937	254.360000
2124.594165	256.070000
2126.247671	253.180000
2127.902545	258.450000
2129.553701	261.770000
2131.207918	263.830000
2132.858419	262.730000
2134.510286	264.770000
2136.156745	260.010000
2137.807959	253.370000
2139.455459	259.460000
2141.104326	254.310000
2142.751175	259.780000
2144.397697	252.030000
2146.043894	263.200000
2147.686383	252.990000
2149.331930	252.690000
2150.973770	259.160000
2152.618667	253.830000
2154.259859	255.790000
2155.900727	258.670000
2157.541271	250.130000
2159.179803	261.050000
2160.819702	254.790000
2162.455900	244.690000
2164.093464	252.060000
2165.730705	254.070000
2167.365937	253.340000
2169.000848	254.130000
2170.635437	252.710000
2172.269704	258.550000
2173.900279	255.230000
2175.533904	245.500000
2177.163838	251.090000
2178.795137	259.500000
2180.424432	250.040000
2182.053406	249.420000
2183.682062	250.740000
2185.310398	248.930000
2186.936731	254.390000
2188.562746	251.490000
2190.186760	252.670000
2191.812138	252.100000
2193.435517	253.730000
2195.060259	251.070000
2196.681321	248.350000
2198.302066	247.970000
2199.924176	247.340000
2201.544288	254.650000
2203.162403	249.220000
2204.780203	252.180000
2206.397688	252.130000
2208.014857	248.640000
2209.631711	252.330000
2211.248250	244.240000
2212.862795	245.170000
2214.475348	253.160000
2216.089265	250.970000
2217.701191	252.420000
2219.314480	248.790000
2220.925779	251.120000
2222.535088	241.800000
2224.145761	247.120000
2225.754445	246.310000
2227.362817	245.480000
2228.969201	246.230000
2230.576949	249.970000
2232.182710	240.880000
2233.788160	250.150000
2235.391625	246.760000
2236.996454	247.530000
2238.599298	241.920000
2240.200159	244.210000
2241.802383	251.070000
2243.402624	242.670000
2245.004228	248.400000
2246.602180	240.540000
2248.201494	246.260000
2249.798828	252.700000
2251.395853	243.080000
2252.994241	244.960000
2254.588980	249.960000
2256.181742	254.700000
2257.775867	247.290000
2259.371353	246.820000
2260.963195	241.920000
2262.554730	246.290000
2264.147626	246.020000
2265.735213	247.890000
2267.327497	246.070000
2268.914473	244.990000
2270.504478	247.200000
2272.089178	247.460000
2273.678572	241.160000
2275.262663	242.520000
2276.848116	246.990000
2278.431599	244.160000
2280.018109	242.240000
2281.600985	241.260000
2283.183557	236.700000
2284.765826	248.690000
2286.344466	235.810000
2287.926129	233.170000
2289.504164	239.830000
2291.085222	237.990000
2292.662654	238.750000
2294.238121	239.510000
2295.816611	239.730000
2297.391477	234.970000
2298.966042	236.710000
2300.540307	234.820000
2302.114271	240.390000
2303.687935	239.340000
2305.261298	236.660000
2306.831043	239.600000
2308.400489	238.360000
2309.972954	236.850000
2311.540143	239.360000
2313.110351	238.090000
2314.676944	241.070000
2316.244897	243.860000
2317.810894	245.510000
2319.376594	243.540000
2320.941997	239.060000
2322.505445	244.680000
2324.070253	247.650000
2325.631453	248.710000
2327.195667	257.400000
2328.754620	249.590000
2330.316586	257.410000
2331.876602	250.720000
2333.436322	236.710000
2334.994093	238.760000
2336.551569	242.090000
2338.108751	239.920000
2339.663986	246.630000
2341.218926	245.840000
2342.773573	252.290000
2344.327926	249.320000
2345.881985	249.550000
2347.435750	247.800000
2348.987572	249.410000
2350.537450	247.130000
2352.090336	243.750000
2353.637980	244.120000
2355.188631	246.090000
2356.735692	248.540000
2358.284110	237.360000
2359.832236	246.440000
2361.376774	242.510000
2362.922671	244.310000
2364.466628	244.690000
2366.011943	241.890000
2367.553673	244.110000
2369.096760	242.700000
2370.637912	243.560000
2372.178774	248.200000
2373.719347	243.460000
2375.259631	246.280000
2376.799625	249.220000
2378.336042	243.580000
2379.875460	243.620000
2381.411301	247.120000
2382.948498	243.700000
2384.482120	249.650000
2386.018743	239.460000
2387.553434	249.960000
2389.086196	245.750000
2390.618671	253.900000
2392.149219	250.210000
2393.682764	249.720000
2395.211098	253.480000
2396.740788	247.160000
2398.270193	249.240000
2399.799312	241.550000
2401.328147	244.290000
2402.851776	246.740000
2404.380042	251.560000
2405.903104	248.820000
2407.430800	255.030000
2408.951657	246.070000
2410.477147	253.690000
2411.999076	258.950000
2413.522361	248.390000
2415.043725	248.910000
2416.563169	258.190000
2418.083968	257.280000
2419.602848	248.850000
2421.121446	247.490000
2422.638127	246.830000
2424.156162	250.990000
2425.673916	249.960000
2427.188119	245.460000
2428.702041	249.790000
2430.215683	251.540000
2431.730680	248.510000
2433.242128	246.900000
2434.754931	252.180000
2436.265821	254.370000
2437.776431	248.420000
2439.285130	248.980000
2440.796816	241.560000
2442.304957	256.300000
2443.812821	244.020000
2445.320407	244.970000
2446.824452	244.510000
2448.331483	247.270000
2449.836605	246.910000
2451.341450	248.020000
2452.844388	249.010000
2454.347049	243.390000
2455.849434	241.480000
2457.349914	250.150000
2458.851747	247.620000
2460.351676	248.020000
2461.851329	247.830000
2463.350706	238.390000
2464.848181	239.400000
2466.343755	243.000000
2467.842308	240.870000
2469.337332	245.030000
2470.833710	245.910000
2472.326561	236.050000
2473.820764	241.860000
2475.314694	238.530000
2476.805101	236.090000
2478.298484	249.840000
2479.789970	239.640000
2481.279559	241.900000
2482.768876	237.730000
2484.256298	240.560000
2485.746695	237.450000
2487.233573	239.670000
2488.721803	244.610000
2490.206517	241.930000
2491.690960	236.700000
2493.176755	240.170000
2494.660657	235.990000
2496.145911	241.480000
2497.626031	245.730000
2499.109123	239.580000
2500.590325	241.690000
2502.071258	241.060000
2503.550302	237.200000
2505.029077	244.610000
2506.507584	242.720000
2507.985823	240.510000
2509.463793	239.210000
2510.938259	241.110000
2512.415693	244.060000
2513.889624	240.540000
2515.364906	246.260000
2516.839920	242.290000
2518.311433	244.460000
2519.784296	243.510000
2521.255277	241.920000
2522.727608	241.030000
2524.194826	245.380000
2525.665009	242.090000
2527.133312	240.570000
2528.601350	246.310000
2530.069123	245.130000
2531.536631	250.300000
2533.003874	239.440000
2534.467625	244.300000
2535.932726	242.450000
2537.395950	245.290000
2538.860524	246.370000
2540.321608	250.700000
2541.784042	250.610000
2543.246213	250.280000
2544.704898	245.460000
2546.168155	243.440000
2547.626315	248.740000
2549.085824	245.140000
2550.540240	243.830000
2551.999225	245.440000
2553.456339	245.980000
2554.911582	244.600000
2556.366564	249.580000
2557.819676	240.540000
2559.274137	237.410000
2560.726729	247.660000
2562.179061	248.890000
2563.629525	241.980000
2565.082945	248.180000
2566.531283	246.120000
2567.982577	247.300000
2569.432004	246.900000
2570.877959	245.280000
2572.326870	246.520000
2573.772309	245.390000
2575.219097	250.260000
2576.664021	242.950000
2578.108688	246.040000
2579.554702	241.290000
2580.997249	242.370000
2582.441144	238.520000
2583.881574	247.370000
2585.323351	241.210000
2586.763269	245.240000
2588.204534	245.570000
2589.642338	244.990000
2591.083091	241.060000
2592.518781	243.630000
2593.957421	240.400000
2595.394204	241.180000
2596.829130	248.750000
2598.267005	242.700000
2599.699821	240.810000
2601.133985	241.670000
2602.566295	243.530000
2603.999951	244.330000
2605.431754	243.500000
2606.863304	243.030000
2608.294600	240.840000
2609.724044	247.300000
2611.153237	239.840000
2612.580578	238.170000
2614.009266	239.010000
2615.437701	244.590000
2616.862689	244.570000
2618.289024	246.470000
2619.713510	244.030000
2621.139342	241.590000
2622.561730	248.810000
2623.985464	242.530000
2625.407351	239.140000
2626.828989	239.610000
2628.248781	238.930000
2629.669919	246.210000
2631.090807	243.020000
2632.508257	238.170000
2633.928646	243.420000
2635.345598	238.290000
2636.762302	234.620000
2638.178757	246.770000
2639.594964	243.580000
2641.010922	241.090000
2642.425040	240.060000
2643.838911	247.660000
2645.250942	242.280000
2646.664318	243.160000
2648.074264	240.590000
2649.487145	238.670000
2650.896599	238.050000
2652.305806	241.570000
2653.713177	241.290000
2655.123482	243.170000
2656.531951	244.240000
2657.938585	243.150000
2659.344974	244.770000
2660.749529	248.360000
2662.155428	240.740000
2663.559494	248.090000
2664.963316	246.900000
2666.366893	245.000000
2667.768638	254.460000
2669.171727	244.960000
2670.571399	245.140000
2671.972413	244.620000
2673.370012	244.760000
2674.770541	242.790000
2676.167655	243.160000
2677.566112	241.430000
2678.962741	245.260000
2680.359128	241.800000
2681.755274	243.240000
2683.149593	244.510000
2684.545255	243.690000
2685.937507	247.990000
2687.331103	241.460000
2688.722874	246.650000
2690.115987	245.550000
2691.507277	237.690000
2692.896744	245.080000
2694.285971	242.250000
2695.674959	244.930000
2697.065289	242.710000
2698.450634	244.180000
2699.838903	248.090000
2701.225352	246.190000
2702.611562	240.070000
2703.997534	238.370000
2705.380106	247.700000
2706.764021	244.170000
2708.147698	238.460000
2709.531137	242.380000
2710.911180	246.290000
2712.292565	238.260000
2713.672134	238.700000
2715.053045	240.920000
2716.432141	244.280000
2717.809422	242.560000
2719.188045	248.270000
2720.564855	242.210000
2721.941429	241.360000
2723.317767	241.920000
2724.692293	246.070000
2726.068160	238.370000
2727.440640	239.700000
2728.816036	243.720000
2730.186472	245.670000
2731.558249	237.510000
2732.929791	246.580000
2734.299525	246.270000
2735.670600	245.780000
2737.039867	240.890000
2738.408900	243.060000
2739.776126	239.490000
2741.143120	239.510000
2742.509881	237.530000
2743.876409	237.290000
2745.241132	240.820000
2746.605624	237.290000
2747.969883	242.390000
2749.333910	239.380000
2750.697706	244.280000
2752.058128	241.590000
2753.421461	241.900000
2754.779851	242.190000
2756.141151	241.280000
2757.499080	238.730000
2758.859919	239.520000
2760.218957	236.790000
2761.574627	243.320000
2762.933205	237.150000
2764.288417	238.790000
2765.643399	234.940000
2766.996584	236.440000
2768.352676	239.860000
2769.705404	242.600000
2771.057903	234.070000
2772.410174	235.820000
2773.763784	241.050000
2775.114032	230.760000
2776.462487	242.150000
2777.813846	231.710000
2779.161846	236.790000
2780.511185	238.540000
2781.858731	235.750000
2783.206050	244.630000
2784.553143	239.280000
2785.898445	228.520000
2787.243521	236.900000
2788.588371	230.880000
2789.932994	232.820000
2791.274266	231.640000
2792.616876	236.180000
2793.959260	239.250000
2795.301420	238.130000
2796.640230	234.100000
2797.981939	236.540000
2799.320301	233.850000
2800.660000	237.400000
2801.997913	236.390000
2803.334042	233.600000
2804.669947	240.180000
2806.007190	235.420000
2807.342649	232.290000
2808.677885	237.740000
2810.011338	233.340000
2811.346129	242.210000
2812.677578	240.530000
2814.011923	234.450000
2815.341370	232.100000
2816.672154	243.180000
2818.002716	237.330000
2819.331499	241.810000
2820.661618	239.710000
2821.989959	233.410000
2823.318079	237.620000
2824.644422	241.920000
2825.972100	235.950000
2827.296446	240.920000
2828.622127	237.770000
2829.946033	236.950000
2831.269720	234.200000
2832.594742	233.720000
2833.916434	236.030000
2835.237908	238.100000
2836.559163	231.260000
2837.880199	232.790000
2839.199463	235.230000
2840.520062	231.990000
2841.838889	229.460000
2843.157498	226.420000
2844.474336	236.480000
2845.790958	238.400000
2847.107361	232.250000
2848.421996	235.940000
2849.737965	235.680000
2851.050614	239.150000
2852.364599	236.600000
2853.678366	236.800000
2854.991918	232.510000
2856.303702	236.270000
2857.613720	231.540000
2858.925073	240.150000
2860.233111	238.550000
2861.542484	239.480000
2862.851641	232.570000
2864.160583	237.710000
2865.467762	233.590000
2866.773177	238.450000
2868.079927	240.020000
2869.384914	240.920000
2870.689688	242.900000
2871.992700	247.300000
2873.298594	243.000000
2874.599632	238.830000
2875.902005	238.240000
2877.202618	234.770000
2878.504565	242.190000
2879.806299	240.190000
2881.104728	239.570000
2882.404492	239.170000
2883.702497	240.210000
2885.000291	237.460000
2886.296329	239.350000
2887.593700	234.790000
2888.889315	240.190000
2890.184719	236.870000
2891.479913	242.350000
2892.771808	243.390000
2894.066580	237.660000
2895.358055	237.930000
2896.650863	238.180000
2897.943461	240.280000
2899.232765	237.540000
2900.523401	235.850000
2901.812286	242.970000
2903.102504	234.420000
2904.389430	238.110000
2905.677688	242.320000
2906.964196	242.130000
2908.250497	239.440000
2909.536589	240.890000
2910.820933	243.730000
2912.108149	238.230000
2913.390537	237.240000
2914.674258	242.450000
2915.956233	238.710000
2917.238001	239.660000
2918.518023	243.390000
2919.800915	238.770000
2921.082062	239.730000
2922.359927	244.660000
2923.640661	240.170000
2924.918114	236.800000
2926.195361	236.270000
2927.470867	235.420000
2928.749240	241.060000
2930.022798	238.580000
2931.299224	234.390000
2932.573909	238.130000
2933.846854	237.800000
2935.121129	240.060000
2936.393665	240.440000
2937.665997	239.980000
2938.935055	236.410000
2940.206979	239.020000
2941.477165	239.820000
2942.747148	237.270000
2944.016927	239.310000
2945.284969	240.630000
2946.551276	239.450000
2947.817380	237.830000
2949.084814	238.380000
2950.350514	235.540000
2951.616011	237.610000
2952.881306	236.700000
2954.143336	242.940000
2955.406697	240.500000
2956.669855	234.750000
2957.931282	241.140000
2959.194038	240.300000
2960.455063	234.940000
2961.714356	242.970000
2962.973450	235.140000
2964.232343	239.760000
2965.491036	242.750000
2966.749529	235.080000
2968.006293	232.770000
2969.262857	241.630000
2970.517694	242.110000
2971.773860	238.980000
2973.026770	243.580000
2974.281010	236.390000
2975.535051	236.030000
2976.787366	237.080000
2978.039483	238.060000
2979.289875	239.330000
2980.543122	234.890000
2981.791592	235.390000
2983.042916	240.680000
2984.290992	238.240000
2985.538870	239.910000
2986.786551	239.690000
2988.034036	236.840000
2989.279799	234.440000
2990.525365	234.510000
2991.772259	245.130000
2993.015909	239.010000
2994.260887	243.150000
2995.502622	241.660000
2996.747208	244.690000
2997.990074	236.360000
2999.229700	236.600000
3000.472176	238.880000
3001.711413	235.690000
3002.951977	235.220000
3004.190824	233.510000
3005.429477	243.480000
3006.666414	234.170000
3007.904678	233.340000
3009.141228	244.780000
3010.377583	235.380000
3011.613745	242.240000
3012.848194	241.610000
3014.082449	236.680000
3015.316511	238.010000
3016.548861	236.100000
3017.779499	238.750000
3019.012983	241.200000
3020.244755	240.360000
3021.474817	239.270000
3022.704687	238.660000
3023.932847	243.030000
3025.162333	238.380000
3026.390111	238.390000
3027.617697	240.720000
3028.846609	244.800000
3030.070779	237.310000
3031.297792	237.480000
3032.521581	240.720000
3033.746697	240.480000
3034.970106	240.740000
3036.193326	241.510000
3037.414840	239.920000
3038.639195	234.270000
3039.858815	238.460000
3041.079760	239.170000
3042.300517	237.140000
3043.519570	235.260000
3044.739949	240.900000
3045.957111	241.220000
3047.175598	242.730000
3048.392384	237.710000
3049.608981	234.990000
3050.825390	237.500000
3052.038587	241.940000
3053.254621	234.580000
3054.467443	239.540000
3055.683102	237.290000
3056.894038	237.090000
3058.106299	241.910000
3059.318374	240.970000
3060.530262	244.140000
3061.740452	239.110000
3062.950456	240.340000
3064.160275	242.290000
3065.368397	244.240000
3066.576333	234.520000
3067.782575	239.880000
3068.990140	241.000000
3070.196012	242.460000
3071.401698	243.920000
3072.607199	239.570000
3073.811007	243.000000
3075.016139	234.680000
3076.219579	243.860000
3077.421326	238.540000
3078.622890	238.960000
3079.824270	241.420000
3081.025466	237.910000
3082.224972	241.140000
3083.424294	247.540000
3084.624940	236.780000
3085.823896	240.950000
3087.019658	239.320000
3088.218249	240.890000
3089.413646	243.320000
3090.610366	237.020000
3091.803894	240.660000
3093.000251	243.250000
3094.194920	245.740000
3095.386399	238.690000
3096.582209	240.100000
3097.773326	239.710000
3098.965765	240.280000
3100.155017	243.620000
3101.347095	243.530000
3102.537488	234.560000
3103.724696	233.590000
3104.913227	239.010000
3106.103080	242.670000
3107.289748	244.560000
3108.476237	237.450000
3109.662546	236.990000
3110.850177	242.980000
3112.034627	245.640000
3113.217396	235.470000
3114.402989	238.020000
3115.586901	238.520000
3116.769135	242.190000
3117.951190	242.760000
3119.133068	236.000000
3120.314767	237.270000
3121.494788	237.400000
3122.673133	239.580000
3123.854299	236.220000
3125.032289	239.200000
3126.210102	235.990000
3127.387738	233.790000
3128.563699	236.410000
3129.739483	237.620000
3130.916589	241.230000
3132.092020	237.540000
3133.265778	234.180000
3134.437864	241.230000
3135.611270	240.270000
3136.784501	235.710000
3137.956059	237.920000
3139.128939	241.170000
3140.298651	237.090000
3141.469684	243.110000
3142.639046	242.090000
3143.806739	235.510000
3144.977247	242.250000
3146.143096	239.710000
3147.313255	236.470000
3148.478756	235.410000
3149.644084	239.180000
3150.809238	239.890000
3151.974218	242.320000
3153.140519	242.120000
3154.302166	243.340000
3155.465134	236.320000
3156.627928	231.350000
3157.790550	238.860000
3158.951507	232.690000
3160.112291	235.230000
3161.272903	237.560000
3162.431852	237.920000
3163.590628	239.320000
3164.749233	234.670000
3165.907666	236.610000
3167.065927	236.160000
3168.222526	235.030000
3169.377464	229.910000
3170.533721	231.550000
3171.688318	228.670000
3172.842743	234.450000
3173.995509	238.690000
3175.148105	240.760000
3176.300530	235.310000
3177.452786	233.520000
3178.604872	235.310000
3179.753811	233.620000
3180.905557	235.790000
3182.055645	237.540000
3183.204077	239.110000
3184.352340	235.280000
3185.500433	244.250000
3186.648358	237.290000
3187.794628	241.840000
3188.940729	243.160000
3190.085175	243.460000
3191.229454	235.840000
3192.373565	236.230000
3193.518994	236.150000
3194.661283	246.930000
3195.803406	239.400000
3196.945361	241.470000
3198.087150	240.270000
3199.228771	242.990000
3200.367256	238.900000
3201.507059	238.990000
3202.648180	240.700000
3203.786166	240.980000
3204.922503	238.520000
3206.058674	238.220000
3207.196163	241.900000
3208.332002	245.200000
3209.469159	241.840000
3210.601703	245.880000
3211.738529	241.070000
3212.870743	236.390000
3214.004275	246.640000
3215.137641	236.180000
3216.267880	235.030000
3217.400917	235.380000
3218.530828	234.380000
3219.662056	234.520000
3220.790158	230.560000
3221.921057	242.710000
3223.050313	230.850000
3224.177924	235.080000
3225.302414	234.600000
3226.431179	237.450000
3227.556822	235.200000
3228.682302	240.050000
3229.806141	237.680000
3230.932774	233.310000
3232.054810	237.750000
3233.178162	232.050000
3234.301352	233.910000
3235.424380	234.970000
3236.545768	235.220000
3237.666995	239.680000
3238.786583	235.130000
3239.906010	228.600000
3241.023799	236.930000
3242.144381	236.470000
3243.261848	235.910000
3244.379156	243.280000
3245.496302	245.350000
3246.611813	239.860000
3247.728639	241.340000
3248.842354	234.910000
3249.958860	244.000000
3251.073730	245.850000
3252.185492	238.690000
3253.297095	246.400000
3254.410012	241.760000
3255.522771	243.800000
3256.632423	245.270000
3257.743390	249.640000
3258.854197	248.050000
3259.963374	241.790000
3261.070919	247.400000
3262.179779	243.500000
3263.288480	244.430000
3264.394079	241.510000
3265.500992	241.400000
3266.606277	242.990000
3267.712875	243.840000
3268.816373	246.320000
3269.921185	240.530000
3271.025840	245.440000
3272.127396	240.330000
3273.228797	245.890000
3274.331511	246.190000
3275.434068	243.880000
3276.533530	246.610000
3277.635774	246.570000
3278.734923	248.360000
3279.832448	245.580000
3280.929817	242.300000
3282.029969	248.050000
3283.127027	244.080000
3284.223930	240.650000
3285.320679	245.870000
3286.412868	244.600000
3287.509306	242.330000
3288.604123	243.000000
3289.698784	238.750000
3290.791824	246.270000
3291.884710	245.940000
3292.975975	241.610000
3294.068553	245.670000
3295.159510	250.510000
3296.248848	246.600000
3297.338033	247.590000
3298.428531	243.420000
3299.515944	244.080000
3300.603205	243.730000
3301.691778	245.210000
3302.780198	248.410000
3303.864071	244.960000
3304.952186	244.880000
3306.037220	251.880000
3307.120637	244.170000
3308.205367	243.440000
3309.288482	253.430000
3310.372908	245.410000
3311.454256	250.950000
3312.536916	247.680000
3313.617962	248.380000
3314.698857	245.490000
3315.778139	251.070000
3316.857270	252.110000
3317.937712	244.090000
3319.015081	245.720000
3320.093760	248.320000
3321.170829	250.590000
3322.247747	247.080000
3323.323054	250.270000
3324.398212	245.950000
3325.474681	246.720000
3326.548080	246.800000
3327.621330	249.900000
3328.695891	248.000000
3329.768842	251.960000
3330.840186	244.140000
3331.912840	254.870000
3332.982427	243.240000
3334.053325	251.370000
3335.122616	242.520000
3336.193218	243.580000
3337.262213	248.400000
3338.329602	242.850000
3339.395386	246.460000
3340.465396	249.420000
3341.532343	248.630000
3342.596228	242.560000
3343.662881	245.720000
3344.727929	248.330000
3345.791374	243.010000
3346.854673	243.100000
3347.917826	246.050000
3348.980832	241.890000
3350.043691	240.040000
3351.104949	244.320000
3352.163150	245.250000
3353.225572	242.690000
3354.284937	244.850000
3355.344157	248.680000
3356.404687	244.290000
3357.460707	241.860000
3358.519492	251.600000
3359.573769	244.010000
3360.630809	244.880000
3361.686252	245.840000
3362.743003	246.790000
3363.798157	246.230000
3364.851713	249.270000
3365.903672	251.890000
3366.958393	250.970000
3368.010065	247.230000
3369.061594	250.300000
3370.114432	248.110000
3371.164222	249.450000
3372.215320	244.690000
3373.263373	247.430000
3374.314186	252.860000
3375.361953	250.570000
3376.409578	255.480000
3377.457060	248.140000
3378.502950	253.020000
3379.550148	252.030000
3380.594304	251.060000
3381.641218	258.810000
3382.686540	249.230000
3383.728822	249.710000
3384.770962	253.730000
3385.814410	253.610000
3386.857718	248.680000
3387.899435	248.800000
3388.941011	253.630000
3389.982447	250.150000
3391.022293	247.810000
3392.060552	256.660000
3393.100118	252.330000
3394.139543	251.590000
3395.177381	251.060000
3396.213633	251.470000
3397.249744	252.860000
3398.287163	256.010000
3399.321549	254.180000
3400.357242	251.910000
3401.392796	248.540000
3402.425319	245.300000
3403.460595	265.870000
3404.492840	253.680000
3405.524947	255.130000
3406.555470	254.800000
3407.587301	251.290000
3408.618992	251.310000
3409.647657	252.700000
3410.676183	250.800000
3411.706017	254.210000
3412.735712	252.680000
3413.762382	252.900000
3414.790359	252.500000
3415.815311	251.030000
3416.843013	252.010000
3417.867692	252.090000
3418.893677	248.870000
3419.918082	259.160000
3420.942351	257.480000
3421.965041	255.200000
3422.987595	255.420000
3424.011455	244.560000
3425.032295	252.390000
3426.053000	256.970000
3427.075010	255.350000
3428.094002	249.140000
3429.112859	250.960000
3430.133021	248.700000
3431.150167	250.030000
