-118.106446	6.880000
-115.436846	11.950000
-112.770181	9.820000
-110.104268	8.140000
-107.441287	9.730000
-104.776877	9.950000
-102.115397	13.120000
-99.452487	11.340000
-96.794685	11.260000
-94.135452	9.900000
-91.476968	15.050000
-88.821409	11.070000
-86.164421	8.930000
-83.512530	4.850000
-80.859210	14.480000
-78.208810	14.790000
-75.556980	3.920000
-72.910241	7.670000
-70.262072	13.700000
-67.614647	17.710000
-64.970135	7.400000
-62.324195	12.960000
-59.683336	8.280000
-57.041048	10.910000
-54.401668	15.210000
-51.760860	10.890000
-49.120792	9.760000
-46.485796	16.280000
-43.849371	13.220000
-41.215850	13.320000
-38.580900	10.430000
-35.951015	10.810000
-33.317538	14.070000
-30.689123	14.660000
-28.061441	23.490000
-25.432332	21.130000
-22.808279	22.550000
-20.180637	23.050000
-17.558048	29.390000
-14.936191	39.580000
-12.315064	67.310000
-9.694667	152.480000
-7.077158	465.970000
-4.458221	1414.470000
-1.842170	3197.890000
0.773153	3418.640000
3.387749	1678.410000
5.999462	186.060000
8.612604	43.550000
11.220712	27.980000
13.832402	23.510000
16.439061	19.570000
19.047148	18.990000
21.654511	23.820000
24.256849	12.750000
26.862765	18.520000
29.463659	15.020000
32.065981	16.150000
34.663286	19.190000
37.264166	16.370000
39.860032	18.080000
42.457325	22.240000
45.053899	16.740000
47.645464	14.580000
50.238457	19.850000
52.828589	17.670000
55.420149	12.830000
58.008849	16.560000
60.598976	18.160000
63.184105	18.960000
65.770660	22.190000
68.356502	19.180000
70.939490	23.290000
73.523905	21.250000
76.101190	25.690000
78.682042	27.240000
81.260045	23.840000
83.837338	25.000000
86.416057	19.120000
88.989795	26.310000
91.564959	27.070000
94.137280	26.840000
96.708893	25.350000
99.277666	33.740000
101.847866	36.430000
104.415228	39.450000
106.984015	44.490000
109.549966	61.860000
112.113082	64.870000
114.679754	87.900000
117.237205	109.250000
119.800341	156.040000
122.358518	221.690000
124.920248	327.570000
127.477023	480.490000
130.035223	726.850000
132.588471	1069.510000
135.141020	1541.700000
137.697120	2135.370000
140.248273	2785.840000
142.798727	3407.960000
145.348485	3883.540000
147.895423	4239.250000
150.441665	4404.070000
152.989333	4495.240000
155.536306	4541.360000
158.078342	4508.810000
160.619685	4488.470000
163.160335	4487.050000
165.702411	4430.080000
168.241676	4453.340000
170.778131	4405.760000
173.313896	4377.650000
175.851086	4353.980000
178.387584	4338.870000
180.921277	4310.450000
183.452167	4269.210000
185.982368	4254.190000
188.513994	4239.540000
191.042819	4244.300000
193.568845	4229.760000
196.094186	4200.980000
198.620951	4218.340000
201.144919	4204.540000
203.668203	4200.230000
206.190802	4193.960000
208.710608	4185.140000
211.229731	4166.860000
213.748171	4149.080000
216.268035	4168.680000
218.780898	4161.770000
221.297292	4184.000000
223.813004	4193.550000
226.323827	4180.180000
228.836074	4195.070000
231.345538	4193.250000
233.854324	4209.130000
236.362432	4236.110000
238.871963	4226.530000
241.376615	4245.350000
243.880590	4232.230000
246.385989	4249.220000
248.886513	4272.230000
251.390560	4264.990000
253.887637	4273.360000
256.388236	4287.410000
258.886064	4288.590000
261.383219	4285.550000
263.879701	4299.320000
266.371320	4293.320000
268.866459	4292.360000
271.358832	4275.110000
273.850534	4297.290000
276.339473	4298.530000
278.829835	4285.650000
281.317436	4262.000000
283.802277	4277.450000
286.290632	4280.970000
288.772048	4251.330000
291.256978	4267.930000
293.737063	4288.960000
296.220660	4270.230000
298.699414	4290.960000
301.179592	4296.520000
303.657017	4281.660000
306.133779	4259.330000
308.609878	4272.300000
311.083228	4264.550000
313.555916	4273.600000
316.027943	4276.300000
318.499309	4314.710000
320.967931	4343.800000
323.435893	4360.090000
325.905278	4298.400000
328.369840	4293.130000
330.837905	4272.880000
333.301151	4273.620000
335.763740	4269.480000
338.225671	4257.000000
340.686946	4249.990000
343.145487	4234.570000
345.605450	4191.990000
348.062680	4160.450000
350.519256	4159.150000
352.975178	4117.490000
355.428371	4063.950000
357.882985	4056.010000
360.332798	4030.840000
362.786108	3998.140000
365.234618	3947.660000
367.682478	3916.850000
370.131759	3885.510000
372.576247	3861.340000
375.022157	3794.490000
377.467418	3737.130000
379.909960	3748.920000
382.351854	3690.850000
384.793100	3661.620000
387.231631	3632.580000
389.671584	3585.180000
392.108823	3548.800000
394.543350	3522.400000
396.981365	3522.270000
399.414603	3467.280000
401.849263	3436.420000
404.279149	3412.330000
406.712521	3406.360000
409.141123	3393.250000
411.569084	3347.760000
413.998465	3339.700000
416.423081	3333.210000
418.849119	3308.820000
421.274516	3300.610000
423.699273	3302.760000
426.119272	3275.740000
428.540692	3281.650000
430.959415	3258.980000
433.379559	3259.410000
435.797008	3256.320000
438.215877	3261.260000
440.632053	3248.480000
443.043482	3250.980000
445.458387	3226.820000
447.870602	3215.790000
450.282183	3226.910000
452.693130	3225.050000
455.101391	3208.360000
457.509019	3190.470000
459.916016	3198.320000
462.322380	3177.340000
464.726062	3166.030000
467.129114	3163.650000
469.531536	3155.300000
471.933329	3150.350000
474.332443	3148.110000
476.732977	3136.640000
479.132882	3121.160000
481.528064	3100.770000
483.926713	3103.740000
486.320642	3089.960000
488.713945	3079.130000
491.106622	3069.110000
493.498674	3069.350000
495.892145	3039.470000
498.280903	3032.360000
500.666995	3031.460000
503.054507	3009.410000
505.441395	2994.140000
507.825620	2988.070000
510.211264	2992.450000
512.594245	2968.890000
514.974566	2977.090000
517.356306	2991.420000
519.735387	2962.540000
522.115887	2979.240000
524.493729	2946.290000
526.868916	2965.920000
529.243485	2934.890000
531.619473	2937.990000
533.992807	2892.250000
536.367559	2892.660000
538.737626	2868.510000
541.107077	2852.080000
543.477946	2812.220000
545.844135	2751.790000
548.211742	2750.090000
550.576703	2709.930000
552.941051	2667.740000
555.304787	2629.480000
557.669940	2616.250000
560.030420	2568.110000
562.392319	2542.830000
564.751578	2481.290000
567.108198	2460.830000
569.468263	2424.050000
571.821638	2387.320000
574.178457	2367.070000
576.532640	2315.400000
578.886216	2279.360000
581.239183	2251.120000
583.589519	2195.520000
585.941271	2191.300000
588.286347	2156.870000
590.636887	2123.050000
592.980754	2090.470000
595.330081	2070.770000
597.674761	2058.140000
600.016815	2039.980000
602.360287	2020.830000
604.701136	2004.220000
607.041383	1982.670000
609.379009	1986.550000
611.720070	1963.090000
614.056494	1978.480000
616.394334	1971.240000
618.729556	1968.550000
621.062163	1964.880000
623.396186	1987.980000
625.727596	1981.780000
628.058407	1982.580000
630.388620	1969.580000
632.718235	1973.540000
635.043228	1964.840000
637.373662	1959.030000
639.699474	1949.430000
642.022680	1954.220000
644.347301	1937.650000
646.669318	1950.010000
648.990740	1938.490000
651.309559	1945.000000
653.629794	1948.220000
655.949436	1949.990000
658.266477	1962.870000
660.582926	1970.770000
662.896778	1982.270000
665.212044	2001.580000
667.524714	2023.710000
669.838799	2021.830000
672.148284	2051.080000
674.459185	2082.150000
676.767493	2074.870000
679.075213	2098.690000
681.384348	2114.080000
683.688890	2144.050000
685.992845	2163.360000
688.296215	2176.720000
690.600999	2210.110000
692.901197	2209.250000
695.202809	2257.020000
697.503837	2250.250000
699.800282	2273.410000
702.098143	2310.060000
704.395420	2310.170000
706.692114	2331.210000
708.984232	2338.870000
711.279761	2379.420000
713.570717	2411.500000
715.863087	2403.360000
718.152881	2424.780000
720.442096	2437.230000
722.730730	2466.880000
725.016793	2478.590000
727.304269	2504.420000
729.589175	2513.980000
731.873502	2545.510000
734.155261	2578.510000
736.438434	2559.270000
738.721030	2599.350000
740.999071	2622.480000
743.278525	2662.020000
745.557404	2673.940000
747.835707	2701.030000
750.109461	2731.900000
752.384629	2753.070000
754.659223	2786.860000
756.931258	2795.150000
759.204705	2834.630000
761.475595	2855.140000
763.743929	2871.850000
766.013676	2907.340000
768.280869	2912.680000
770.547491	2949.360000
772.813544	2991.720000
775.077044	2995.800000
777.341958	3026.090000
779.606302	3052.810000
781.866117	3065.520000
784.127345	3080.340000
786.388005	3106.010000
788.646118	3120.910000
790.901687	3152.430000
793.160647	3171.540000
795.413108	3167.330000
797.670936	3180.540000
799.924244	3211.440000
802.175013	3230.660000
804.427194	3202.910000
806.676837	3250.820000
808.927891	3255.640000
811.174434	3257.490000
813.422389	3273.580000
815.667810	3304.100000
817.914642	3303.800000
820.160913	3322.200000
822.402680	3340.100000
824.647829	3355.330000
826.886506	3366.310000
829.128566	3371.300000
831.366127	3407.280000
833.605099	3429.300000
835.841545	3424.540000
838.079402	3447.180000
840.314735	3464.590000
842.547543	3516.280000
844.781763	3537.740000
847.013461	3566.160000
849.244604	3599.000000
851.475192	3642.400000
853.705226	3703.210000
855.934705	3729.090000
858.159703	3791.680000
860.388076	3850.050000
862.611970	3903.640000
864.837274	3964.110000
867.058103	4052.810000
869.282304	4084.610000
871.502032	4168.880000
873.723171	4247.320000
875.943759	4325.530000
878.161837	4415.650000
880.381326	4496.110000
882.596348	4535.320000
884.810822	4593.320000
887.024749	4674.990000
889.238128	4723.350000
891.450960	4742.930000
893.663246	4760.080000
895.873029	4802.900000
898.082267	4799.360000
900.290960	4800.150000
902.497154	4794.270000
904.704757	4752.140000
906.909863	4695.620000
909.114425	4669.670000
911.316491	4631.890000
913.519967	4513.260000
915.720949	4438.740000
917.921390	4355.940000
920.123239	4255.710000
922.318696	4138.660000
924.517513	4044.480000
926.711891	3947.180000
928.909627	3825.650000
931.102927	3731.740000
933.297636	3642.690000
935.489859	3556.170000
937.681544	3470.930000
939.872691	3421.320000
942.061355	3373.530000
944.249482	3350.060000
946.435129	3278.110000
948.624128	3283.460000
950.808704	3269.070000
952.992745	3249.730000
955.180136	3247.990000
957.359223	3269.150000
959.541661	3257.570000
961.723565	3242.150000
963.902995	3256.730000
966.079952	3250.260000
968.258316	3241.990000
970.438088	3236.010000
972.611511	3224.880000
974.788280	3204.420000
976.960643	3203.990000
979.134412	3143.250000
981.303778	3092.310000
983.476489	3082.970000
985.646733	3041.430000
987.816449	2973.080000
989.985636	2918.360000
992.150426	2892.280000
994.318557	2841.690000
996.482294	2774.180000
998.647437	2720.650000
1000.810122	2679.850000
1002.972280	2611.410000
1005.131982	2592.070000
1007.291160	2520.220000
1009.451744	2470.470000
1011.609873	2425.380000
1013.767478	2385.240000
1015.924560	2316.980000
1018.081119	2276.430000
1020.233298	2265.180000
1022.386883	2214.220000
1024.539947	2182.640000
1026.690563	2159.060000
1028.842584	2116.910000
1030.990232	2092.890000
1033.141212	2075.260000
1035.287821	2044.520000
1037.433912	2012.170000
1039.579483	2008.020000
1041.726460	1980.050000
1043.867149	1948.830000
1046.011166	1919.630000
1048.152743	1903.090000
1050.293804	1878.590000
1052.436269	1858.530000
1054.572455	1849.750000
1056.711967	1821.410000
1058.847123	1804.570000
1060.985604	1789.890000
1063.119731	1765.670000
1065.253345	1753.000000
1067.388364	1735.660000
1069.519033	1728.570000
1071.651107	1691.150000
1073.780752	1671.390000
1075.909885	1653.270000
1078.038506	1618.860000
1080.166616	1606.840000
1082.292300	1579.300000
1084.417474	1558.400000
1086.544052	1537.230000
1088.666293	1521.330000
1090.789937	1499.050000
1092.909248	1461.290000
1095.033787	1428.490000
1097.152081	1408.300000
1099.271780	1387.570000
1101.389060	1372.260000
1103.505834	1333.830000
1105.622101	1308.940000
1107.735953	1275.310000
1109.851208	1246.340000
1111.962141	1227.740000
1114.076385	1190.250000
1116.186309	1174.290000
1118.297637	1141.750000
1120.408460	1118.680000
1122.514968	1099.300000
1124.624784	1077.240000
1126.730286	1047.250000
1128.837191	1029.120000
1130.937881	998.620000
1133.043783	981.500000
1135.145376	960.610000
1137.248372	944.080000
1139.350867	910.760000
1141.447155	897.630000
1143.548651	877.310000
1145.645844	853.850000
1147.742538	835.130000
1149.838734	819.140000
1151.934433	803.450000
1154.029634	773.780000
1156.122438	763.130000
1158.216644	749.470000
1160.304659	732.760000
1162.397872	712.320000
1164.484897	700.630000
1166.575221	679.640000
1168.661258	664.490000
1170.750592	658.640000
1172.833745	637.390000
1174.918301	634.670000
1177.004257	615.480000
1179.085932	607.740000
1181.169009	590.890000
1183.249700	584.210000
1185.329899	570.780000
1187.409607	562.950000
1189.488824	552.810000
1191.565659	532.100000
1193.640113	536.200000
1195.717859	521.620000
1197.791334	518.280000
1199.866210	507.440000
1201.936819	502.870000
1204.008830	492.850000
1206.078464	486.780000
1208.149499	481.520000
1210.220046	475.660000
1212.286332	470.470000
1214.354019	472.190000
1216.419334	467.240000
1218.486049	462.330000
1220.548508	458.810000
1222.614252	455.920000
1224.675743	458.280000
1226.738633	445.940000
1228.799156	447.320000
1230.859195	444.840000
1232.918752	433.310000
1234.975943	444.640000
1237.032653	441.190000
1239.087000	439.750000
1241.144627	427.700000
1243.199892	427.500000
1245.250916	434.350000
1247.303340	432.210000
1249.355284	427.640000
1251.404870	429.000000
1253.453977	426.320000
1255.502606	424.970000
1257.550756	425.580000
1259.598428	419.330000
1261.641869	420.810000
1263.688585	418.820000
1265.732948	419.610000
1267.776835	415.000000
1269.818371	410.040000
1271.857557	406.390000
1273.900015	412.770000
1275.938251	410.920000
1277.977886	413.960000
1280.017046	403.920000
1282.051987	410.100000
1284.088328	398.680000
1286.122323	409.970000
1288.157717	403.390000
1290.188897	406.010000
1292.221476	399.930000
1294.253582	400.730000
1296.283348	404.110000
1298.314512	406.540000
1300.341468	401.450000
1302.369822	406.970000
1304.393972	396.950000
1306.421386	403.910000
1308.444598	398.420000
1310.469208	404.710000
1312.491484	414.170000
1314.515157	406.890000
1316.536497	403.800000
1318.557369	407.060000
1320.577775	411.960000
1322.593986	413.220000
1324.611596	404.930000
1326.626877	411.150000
1328.645416	411.620000
1330.659767	413.100000
1332.671792	413.490000
1334.687074	425.520000
1336.698171	418.120000
1338.710665	419.190000
1340.718976	425.680000
1342.730543	419.760000
1344.736070	425.660000
1346.744853	426.570000
1348.749458	421.750000
1350.757317	426.550000
1352.764714	425.030000
1354.766080	423.490000
1356.768843	423.520000
1358.771145	434.940000
1360.772988	429.910000
1362.774371	428.620000
1364.773441	429.730000
1366.772052	431.710000
1368.770205	430.510000
1370.767900	427.900000
1372.761431	421.600000
1374.756359	434.260000
1376.750830	431.600000
1378.744844	421.790000
1380.736551	434.660000
1382.727802	426.490000
1384.716748	429.640000
1386.707089	427.670000
1388.696975	421.110000
1390.684558	421.600000
1392.671686	425.870000
1394.656514	416.560000
1396.642735	416.380000
1398.626657	419.870000
1400.610126	413.090000
1402.593143	417.920000
1404.573861	408.580000
1406.555975	410.130000
1408.535791	412.170000
1410.515157	399.270000
1412.490383	408.290000
1414.468849	402.640000
1416.445020	401.330000
1418.420743	400.980000
1420.396016	397.380000
1422.368998	392.440000
1424.341532	402.180000
1426.313619	388.040000
1428.285257	392.210000
1430.252767	390.240000
1432.225352	386.020000
1434.190130	385.450000
1436.159981	384.520000
1438.125707	381.940000
1440.092826	385.440000
1442.057662	373.290000
1444.018379	374.550000
1445.984163	368.170000
1447.943992	369.430000
1449.905214	369.730000
1451.867829	360.130000
1453.826329	366.260000
1455.784387	369.520000
1457.742002	363.000000
1459.699176	368.580000
1461.654074	360.800000
1463.610364	355.940000
1465.564380	352.460000
1467.517956	355.920000
1469.469259	358.130000
1471.421954	357.930000
1473.372378	351.810000
1475.322363	346.900000
1477.271908	352.810000
1479.219185	343.540000
1481.164195	344.670000
1483.110596	347.990000
1485.056561	344.920000
1487.002087	338.570000
1488.945349	338.460000
1490.888174	342.080000
1492.828736	338.390000
1494.770689	336.640000
1496.710381	342.440000
1498.649637	345.470000
1500.588458	333.040000
1502.525020	329.020000
1504.462973	336.490000
1506.398668	329.580000
1508.333929	333.190000
1510.266933	327.980000
1512.199505	328.760000
1514.131645	335.870000
1516.063353	327.700000
1517.992807	322.590000
1519.923652	327.210000
1521.854066	326.890000
1523.780406	328.740000
1525.708138	324.360000
1527.633619	327.850000
1529.558671	324.120000
1531.483294	324.040000
1533.407488	330.280000
1535.329435	320.710000
1537.252771	317.340000
1539.173862	315.870000
1541.092708	317.420000
1543.012944	316.550000
1544.930936	312.900000
1546.848502	318.810000
1548.763826	321.880000
1550.680540	311.440000
1552.593199	320.170000
1554.509062	319.950000
1556.422685	316.860000
1558.334071	314.250000
1560.246845	315.930000
1562.155570	310.950000
1564.065685	309.910000
1565.975376	315.340000
1567.884643	308.230000
1569.791677	312.010000
1571.696478	312.660000
1573.602668	307.910000
1575.506626	307.630000
1577.410164	310.060000
1579.313280	308.480000
1581.214168	309.440000
1583.116443	308.130000
1585.016491	311.340000
1586.917926	308.610000
1588.815328	312.460000
1590.712311	305.450000
1592.608876	301.530000
1594.506829	305.060000
1596.398947	303.180000
1598.294258	302.480000
1600.189152	309.270000
1602.081824	295.900000
1603.974080	298.480000
1605.864115	304.060000
1607.753736	306.560000
1609.642940	298.420000
1611.531730	306.670000
1613.418303	295.800000
1615.306262	297.370000
1617.190205	299.100000
1619.075536	298.970000
1620.960452	296.410000
1622.843155	296.060000
1624.727245	290.490000
1626.607324	301.810000
1628.488789	296.730000
1630.368044	296.320000
1632.248685	298.410000
1634.123522	299.410000
1636.003341	297.840000
1637.879154	290.300000
1639.754557	302.290000
1641.631347	292.040000
1643.502339	288.600000
1645.376513	292.510000
1647.246689	294.450000
1649.120045	285.550000
1650.991198	291.280000
1652.860149	287.920000
1654.730486	294.320000
1656.596829	290.960000
1658.464558	288.310000
1660.330089	282.220000
1662.197004	288.020000
1664.059931	287.690000
1665.924243	287.780000
1667.786359	287.670000
1669.648071	286.210000
1671.511167	287.020000
1673.372069	288.920000
1675.230777	290.170000
1677.089082	282.880000
1678.948772	285.460000
1680.802695	282.260000
1682.659790	284.850000
1684.516483	285.640000
1686.369200	282.490000
1688.225087	283.610000
1690.077001	284.520000
1691.928514	278.650000
1693.779626	275.800000
1695.630338	278.550000
1697.480649	282.570000
1699.328776	283.390000
1701.178286	287.830000
1703.022048	279.960000
1704.870759	277.330000
1706.713725	278.860000
1708.559856	281.200000
1710.402026	278.240000
1712.247360	280.670000
1714.086954	278.830000
1715.927932	283.690000
1717.770293	284.040000
1719.608698	278.470000
1721.448486	274.010000
1723.286099	278.660000
1725.123316	280.240000
1726.958360	283.060000
1728.794787	273.940000
1730.629042	279.930000
1732.462902	270.400000
1734.296369	274.200000
1736.125889	278.590000
1737.958568	276.470000
1739.787303	279.390000
1741.619196	269.070000
1743.447146	276.990000
1745.274704	274.970000
1747.101870	277.110000
1748.928645	274.030000
1750.755029	270.110000
1752.577476	267.960000
1754.403077	275.830000
1756.224744	271.040000
1758.047793	275.290000
1759.868681	271.150000
1761.689179	277.660000
1763.511059	276.230000
1765.327239	273.970000
1767.146571	271.180000
1768.961976	265.200000
1770.780531	273.880000
1772.595161	281.320000
1774.409405	277.210000
1776.223261	269.220000
1778.036731	275.240000
1779.848048	272.570000
1781.660746	274.230000
1783.473057	271.260000
1785.281451	270.030000
1787.091226	268.060000
1788.897085	272.510000
1790.706090	270.440000
1792.511182	277.080000
1794.317655	274.900000
1796.123744	273.860000
1797.925923	266.570000
1799.731245	274.990000
1801.532659	269.560000
1803.335453	270.290000
1805.134341	268.040000
1806.934610	273.890000
1808.734497	264.170000
1810.532243	268.240000
1812.329607	267.020000
1814.126592	271.320000
1815.923196	266.040000
1817.717661	267.150000
1819.513505	264.580000
1821.303695	269.300000
1823.098781	273.220000
1824.888214	266.190000
1826.680784	271.610000
1828.471219	269.000000
1830.259520	271.270000
1832.050956	276.890000
1833.836746	269.870000
1835.623916	268.090000
1837.408954	267.650000
1839.197126	267.220000
1840.981412	264.980000
1842.763569	262.990000
1844.547104	273.770000
1846.328511	268.840000
1848.111297	268.340000
1849.890203	264.050000
1851.670487	268.810000
1853.448645	269.040000
1855.228182	261.380000
1857.005594	263.980000
1858.780882	260.240000
1860.557549	268.990000
1862.332092	275.330000
1864.108014	267.380000
1865.878316	268.930000
1867.651744	262.250000
1869.423053	270.440000
1871.193992	265.730000
1872.966307	270.030000
1874.733010	267.250000
1876.502837	264.220000
1878.268801	272.480000
1880.037889	274.210000
1881.803115	257.190000
1883.567972	268.570000
1885.334207	265.730000
1887.096583	259.630000
1888.858592	260.370000
1890.620233	263.730000
1892.381508	258.270000
1894.142415	265.030000
1895.902956	259.280000
1897.661387	259.260000
1899.419453	261.940000
1901.175410	262.030000
1902.932745	258.870000
1904.689713	261.960000
1906.444576	258.690000
1908.197333	260.400000
1909.949727	257.230000
1911.703496	264.220000
1913.455162	256.660000
1915.204726	256.170000
1916.955666	256.200000
1918.706242	257.780000
1920.452979	257.280000
1922.201093	258.390000
1923.947107	260.830000
1925.694497	262.820000
1927.439788	257.250000
1929.182982	257.780000
1930.927552	260.570000
1932.670025	256.240000
1934.412138	262.200000
1936.153891	259.310000
1937.895285	256.540000
1939.634585	257.670000
1941.373525	257.260000
1943.112108	261.360000
1944.848598	260.250000
1946.584731	258.505000
1948.322238	256.760000
1950.055923	258.670000
1951.790983	260.250000
1953.523955	262.140000
1955.256570	258.590000
1956.988828	258.080000
1958.720730	258.900000
1960.450546	260.710000
1962.178278	258.880000
1963.907383	263.880000
1965.636134	257.030000
1967.362801	263.430000
1969.089114	258.560000
1970.816800	260.030000
1972.538950	255.130000
1974.264201	256.320000
1975.985646	258.810000
1977.710190	259.970000
1979.432655	259.320000
1981.151316	256.540000
1982.873076	260.210000
1984.591034	255.850000
1986.310365	257.410000
1988.025897	266.140000
1989.746250	257.290000
1991.462803	262.400000
1993.175561	258.230000
1994.891414	259.130000
1996.605194	261.550000
1998.318625	260.400000
2000.029985	254.830000
2001.742718	256.460000
2003.451659	254.150000
2005.163694	259.370000
2006.870219	253.110000
2008.579837	251.980000
2010.287387	259.030000
2011.994590	264.380000
2013.699727	260.210000
2015.404517	260.360000
2017.110679	256.370000
2018.813059	261.630000
2020.516811	262.610000
2022.218499	256.030000
2023.919843	263.600000
2025.620841	253.210000
2027.319779	262.070000
2029.020087	261.850000
2030.716621	258.320000
2032.414526	265.280000
2034.110372	263.140000
2035.809304	258.690000
2037.502750	256.210000
2039.197568	254.970000
2040.892042	257.940000
2042.582748	257.480000
2044.276538	257.280000
2045.966561	259.750000
2047.657955	258.070000
2049.347296	261.070000
2051.038007	261.100000
2052.724956	259.330000
2054.411564	257.480000
2056.099543	255.100000
2057.783762	254.280000
2059.469351	254.120000
2061.154601	250.900000
2062.837803	252.380000
2064.522374	251.890000
2066.201483	251.230000
2067.885377	261.760000
2069.563811	256.050000
2071.245321	258.880000
2072.923081	260.430000
2074.600503	251.820000
2076.279296	251.210000
2077.956045	258.620000
2079.630753	251.490000
2081.306830	253.300000
2082.980867	251.590000
2084.654568	249.120000
2086.327934	252.310000
2087.999262	249.080000
2089.670255	253.340000
2091.340914	249.920000
2093.011238	254.920000
2094.681229	251.920000
2096.349184	252.620000
2098.016806	247.070000
2099.682393	249.980000
2101.349350	248.960000
2103.014272	252.350000
2104.678863	254.930000
2106.341422	252.040000
2108.005349	258.780000
2109.667246	255.950000
2111.328811	255.240000
2112.990045	250.870000
2114.649251	252.960000
2116.308126	258.230000
2117.966672	256.300000
2119.624888	258.810000
2121.279380	254.920000
2122.936937	257.390000
2124.594165	248.180000
2126.247671	260.080000
2127.902545	256.860000
2129.553701	255.840000
2131.207918	256.110000
2132.858419	251.080000
2134.510286	255.380000
2136.156745	259.640000
2137.807959	253.670000
2139.455459	252.580000
2141.104326	258.920000
2142.751175	252.760000
2144.397697	259.280000
2146.043894	247.140000
2147.686383	254.770000
2149.331930	250.450000
2150.973770	252.200000
2152.618667	247.590000
2154.259859	250.900000
2155.900727	250.970000
2157.541271	256.360000
2159.179803	248.370000
2160.819702	253.300000
2162.455900	256.320000
2164.093464	249.300000
2165.730705	250.240000
2167.365937	249.600000
2169.000848	255.800000
2170.635437	246.870000
2172.269704	251.470000
2173.900279	243.300000
2175.533904	245.540000
2177.163838	245.710000
2178.795137	250.230000
2180.424432	246.150000
2182.053406	244.380000
2183.682062	246.000000
2185.310398	252.450000
2186.936731	247.730000
2188.562746	245.680000
2190.186760	244.660000
2191.812138	250.450000
2193.435517	247.040000
2195.060259	244.070000
2196.681321	243.480000
2198.302066	246.680000
2199.924176	243.880000
2201.544288	243.200000
2203.162403	245.850000
2204.780203	246.120000
2206.397688	243.860000
2208.014857	247.050000
2209.631711	244.710000
2211.248250	243.030000
2212.862795	242.150000
2214.475348	244.430000
2216.089265	244.580000
2217.701191	241.430000
2219.314480	253.300000
2220.925779	243.740000
2222.535088	243.360000
2224.145761	242.700000
2225.754445	240.020000
2227.362817	237.620000
2228.969201	242.150000
2230.576949	246.570000
2232.182710	243.500000
2233.788160	242.100000
2235.391625	244.920000
2236.996454	238.600000
2238.599298	250.140000
2240.200159	243.420000
2241.802383	245.170000
2243.402624	249.500000
2245.004228	238.000000
2246.602180	245.570000
2248.201494	249.130000
2249.798828	245.600000
2251.395853	242.340000
2252.994241	240.640000
2254.588980	241.640000
2256.181742	241.180000
2257.775867	239.120000
2259.371353	245.020000
2260.963195	242.390000
2262.554730	245.960000
2264.147626	243.260000
2265.735213	246.930000
2267.327497	238.010000
2268.914473	247.990000
2270.504478	242.100000
2272.089178	237.000000
2273.678572	235.890000
2275.262663	245.900000
2276.848116	244.480000
2278.431599	244.260000
2280.018109	244.550000
2281.600985	233.280000
2283.183557	246.220000
2284.765826	240.160000
2286.344466	241.900000
2287.926129	244.030000
2289.504164	240.370000
2291.085222	232.300000
2292.662654	232.320000
2294.238121	232.340000
2295.816611	236.540000
2297.391477	233.420000
2298.966042	232.490000
2300.540307	235.140000
2302.114271	233.860000
2303.687935	237.270000
2305.261298	234.500000
2306.831043	233.550000
2308.400489	234.850000
2309.972954	236.680000
2311.540143	237.050000
2313.110351	234.450000
2314.676944	237.380000
2316.244897	235.380000
2317.810894	237.730000
2319.376594	238.370000
2320.941997	244.230000
2322.505445	242.010000
2324.070253	248.960000
2325.631453	248.600000
2327.195667	259.330000
2328.754620	252.170000
2330.316586	253.330000
2331.876602	244.370000
2333.436322	242.980000
2334.994093	239.320000
2336.551569	241.950000
2338.108751	240.340000
2339.663986	242.750000
2341.218926	237.650000
2342.773573	234.470000
2344.327926	245.340000
2345.881985	244.190000
2347.435750	238.800000
2348.987572	243.630000
2350.537450	245.170000
2352.090336	242.630000
2353.637980	244.510000
2355.188631	243.320000
2356.735692	242.600000
2358.284110	239.420000
2359.832236	245.370000
2361.376774	243.910000
2362.922671	243.190000
2364.466628	246.940000
2366.011943	236.760000
2367.553673	241.300000
2369.096760	242.510000
2370.637912	248.870000
2372.178774	248.200000
2373.719347	239.760000
2375.259631	239.680000
2376.799625	247.000000
2378.336042	241.890000
2379.875460	244.590000
2381.411301	242.110000
2382.948498	243.220000
2384.482120	249.860000
2386.018743	250.380000
2387.553434	239.280000
2389.086196	244.980000
2390.618671	248.830000
2392.149219	248.320000
2393.682764	239.710000
2395.211098	248.880000
2396.740788	245.970000
2398.270193	251.840000
2399.799312	240.810000
2401.328147	251.740000
2402.851776	245.830000
2404.380042	251.040000
2405.903104	247.660000
2407.430800	248.160000
2408.951657	244.610000
2410.477147	247.770000
2411.999076	249.210000
2413.522361	249.400000
2415.043725	253.890000
2416.563169	247.880000
2418.083968	252.810000
2419.602848	247.520000
2421.121446	246.620000
2422.638127	250.910000
2424.156162	252.410000
2425.673916	246.910000
2427.188119	248.770000
2428.702041	256.360000
2430.215683	251.930000
2431.730680	248.000000
2433.242128	249.070000
2434.754931	252.120000
2436.265821	242.510000
2437.776431	246.540000
2439.285130	247.160000
2440.796816	249.900000
2442.304957	248.310000
2443.812821	248.540000
2445.320407	246.650000
2446.824452	246.560000
2448.331483	252.580000
2449.836605	251.800000
2451.341450	249.450000
2452.844388	246.920000
2454.347049	245.000000
2455.849434	240.670000
2457.349914	244.190000
2458.851747	243.540000
2460.351676	238.240000
2461.851329	245.200000
2463.350706	238.020000
2464.848181	237.440000
2466.343755	245.750000
2467.842308	245.420000
2469.337332	237.910000
2470.833710	239.140000
2472.326561	242.980000
2473.820764	237.320000
2475.314694	236.510000
2476.805101	242.110000
2478.298484	247.370000
2479.789970	236.980000
2481.279559	244.200000
2482.768876	233.920000
2484.256298	242.990000
2485.746695	240.950000
2487.233573	239.920000
2488.721803	240.410000
2490.206517	245.090000
2491.690960	236.110000
2493.176755	238.630000
2494.660657	234.660000
2496.145911	247.100000
2497.626031	239.910000
2499.109123	239.270000
2500.590325	239.090000
2502.071258	244.070000
2503.550302	246.060000
2505.029077	244.280000
2506.507584	242.860000
2507.985823	246.990000
2509.463793	245.020000
2510.938259	245.350000
2512.415693	242.780000
2513.889624	247.330000
2515.364906	242.160000
2516.839920	238.490000
2518.311433	244.340000
2519.784296	248.220000
2521.255277	241.710000
2522.727608	248.780000
2524.194826	246.920000
2525.665009	235.400000
2527.133312	244.900000
2528.601350	239.370000
2530.069123	244.890000
2531.536631	241.870000
2533.003874	244.780000
2534.467625	242.800000
2535.932726	246.160000
2537.395950	239.530000
2538.860524	244.200000
2540.321608	242.290000
2541.784042	247.370000
2543.246213	241.650000
2544.704898	249.240000
2546.168155	249.150000
2547.626315	251.660000
2549.085824	246.830000
2550.540240	245.780000
2551.999225	251.480000
2553.456339	246.050000
2554.911582	247.780000
2556.366564	241.310000
2557.819676	246.390000
2559.274137	245.070000
2560.726729	248.030000
2562.179061	245.180000
2563.629525	243.770000
2565.082945	243.180000
2566.531283	241.350000
2567.982577	250.260000
2569.432004	239.030000
2570.877959	242.030000
2572.326870	248.730000
2573.772309	240.430000
2575.219097	240.990000
2576.664021	241.420000
2578.108688	247.740000
2579.554702	238.260000
2580.997249	247.790000
2582.441144	240.400000
2583.881574	249.260000
2585.323351	246.730000
2586.763269	251.160000
2588.204534	243.200000
2589.642338	240.860000
2591.083091	247.080000
2592.518781	243.080000
2593.957421	245.720000
2595.394204	245.720000
2596.829130	250.920000
2598.267005	245.810000
2599.699821	242.900000
2601.133985	237.030000
2602.566295	237.230000
2603.999951	239.270000
2605.431754	240.770000
2606.863304	249.600000
2608.294600	244.480000
2609.724044	248.190000
2611.153237	244.880000
2612.580578	240.030000
2614.009266	245.710000
2615.437701	243.360000
2616.862689	244.130000
2618.289024	242.980000
2619.713510	243.070000
2621.139342	235.790000
2622.561730	238.250000
2623.985464	244.740000
2625.407351	240.570000
2626.828989	239.840000
2628.248781	242.070000
2629.669919	244.530000
2631.090807	238.910000
2632.508257	240.090000
2633.928646	244.510000
2635.345598	246.250000
2636.762302	249.550000
2638.178757	239.510000
2639.594964	245.300000
2641.010922	243.700000
2642.425040	237.190000
2643.838911	240.890000
2645.250942	246.090000
2646.664318	245.380000
2648.074264	237.270000
2649.487145	241.570000
2650.896599	243.040000
2652.305806	240.420000
2653.713177	245.160000
2655.123482	245.890000
2656.531951	239.810000
2657.938585	240.530000
2659.344974	239.720000
2660.749529	243.120000
2662.155428	249.020000
2663.559494	242.700000
2664.963316	245.970000
2666.366893	242.520000
2667.768638	246.830000
2669.171727	240.460000
2670.571399	248.400000
2671.972413	242.650000
2673.370012	241.010000
2674.770541	243.670000
2676.167655	247.400000
2677.566112	245.590000
2678.962741	246.410000
2680.359128	241.120000
2681.755274	248.290000
2683.149593	236.810000
2684.545255	239.920000
2685.937507	249.450000
2687.331103	243.120000
2688.722874	246.890000
2690.115987	240.420000
2691.507277	238.650000
2692.896744	249.360000
2694.285971	243.340000
2695.674959	240.660000
2697.065289	238.660000
2698.450634	239.680000
2699.838903	238.990000
2701.225352	241.930000
2702.611562	244.020000
2703.997534	235.980000
2705.380106	242.030000
2706.764021	246.940000
2708.147698	242.720000
2709.531137	245.470000
2710.911180	237.240000
2712.292565	243.430000
2713.672134	242.780000
2715.053045	243.130000
2716.432141	246.260000
2717.809422	240.360000
2719.188045	241.070000
2720.564855	233.500000
2721.941429	241.750000
2723.317767	246.420000
2724.692293	238.460000
2726.068160	248.740000
2727.440640	243.900000
2728.816036	247.210000
2730.186472	243.370000
2731.558249	240.220000
2732.929791	238.980000
2734.299525	247.660000
2735.670600	240.300000
2737.039867	242.230000
2738.408900	242.300000
2739.776126	245.790000
2741.143120	241.500000
2742.509881	243.120000
2743.876409	239.210000
2745.241132	241.580000
2746.605624	245.910000
2747.969883	241.110000
2749.333910	242.840000
2750.697706	241.510000
2752.058128	244.430000
2753.421461	237.520000
2754.779851	244.460000
2756.141151	240.420000
2757.499080	242.460000
2758.859919	241.500000
2760.218957	243.050000
2761.574627	237.270000
2762.933205	240.370000
2764.288417	235.820000
2765.643399	232.900000
2766.996584	238.280000
2768.352676	242.620000
2769.705404	240.920000
2771.057903	239.370000
2772.410174	237.230000
2773.763784	236.520000
2775.114032	236.870000
2776.462487	240.510000
2777.813846	233.550000
2779.161846	237.060000
2780.511185	237.530000
2781.858731	239.620000
2783.206050	243.370000
2784.553143	233.630000
2785.898445	235.000000
2787.243521	230.900000
2788.588371	233.910000
2789.932994	238.030000
2791.274266	238.100000
2792.616876	238.810000
2793.959260	236.360000
2795.301420	233.770000
2796.640230	245.900000
2797.981939	234.760000
2799.320301	241.490000
2800.660000	240.770000
2801.997913	237.040000
2803.334042	242.000000
2804.669947	240.850000
2806.007190	237.380000
2807.342649	246.440000
2808.677885	241.010000
2810.011338	238.550000
2811.346129	242.630000
2812.677578	241.580000
2814.011923	240.380000
2815.341370	238.110000
2816.672154	235.930000
2818.002716	241.410000
2819.331499	238.570000
2820.661618	240.830000
2821.989959	243.160000
2823.318079	242.280000
2824.644422	241.150000
2825.972100	239.560000
2827.296446	236.900000
2828.622127	234.950000
2829.946033	240.410000
2831.269720	242.130000
2832.594742	238.290000
2833.916434	238.850000
2835.237908	249.740000
2836.559163	242.010000
2837.880199	239.760000
2839.199463	238.260000
2840.520062	238.350000
2841.838889	232.740000
2843.157498	239.050000
2844.474336	236.550000
2845.790958	243.530000
2847.107361	238.660000
2848.421996	244.620000
2849.737965	242.390000
2851.050614	235.150000
2852.364599	238.660000
2853.678366	236.020000
2854.991918	239.770000
2856.303702	239.160000
2857.613720	244.530000
2858.925073	240.430000
2860.233111	237.180000
2861.542484	237.020000
2862.851641	239.930000
2864.160583	244.590000
2865.467762	242.350000
2866.773177	249.910000
2868.079927	243.490000
2869.384914	238.620000
2870.689688	247.030000
2871.992700	247.610000
2873.298594	241.750000
2874.599632	241.110000
2875.902005	244.280000
2877.202618	245.950000
2878.504565	244.990000
2879.806299	243.270000
2881.104728	244.770000
2882.404492	248.370000
2883.702497	243.290000
2885.000291	248.740000
2886.296329	245.940000
2887.593700	238.980000
2888.889315	245.230000
2890.184719	244.090000
2891.479913	241.550000
2892.771808	244.750000
2894.066580	242.380000
2895.358055	244.040000
2896.650863	247.670000
2897.943461	243.590000
2899.232765	243.610000
2900.523401	240.300000
2901.812286	242.400000
2903.102504	239.460000
2904.389430	241.740000
2905.677688	249.220000
2906.964196	244.430000
2908.250497	244.690000
2909.536589	241.690000
2910.820933	240.800000
2912.108149	247.230000
2913.390537	238.290000
2914.674258	240.740000
2915.956233	246.530000
2917.238001	240.700000
2918.518023	249.850000
2919.800915	245.100000
2921.082062	245.780000
2922.359927	242.920000
2923.640661	243.690000
2924.918114	242.150000
2926.195361	247.310000
2927.470867	243.360000
2928.749240	246.690000
2930.022798	242.320000
2931.299224	247.410000
2932.573909	243.510000
2933.846854	239.660000
2935.121129	244.860000
2936.393665	244.670000
2937.665997	244.200000
2938.935055	247.430000
2940.206979	243.970000
2941.477165	248.800000
2942.747148	244.170000
2944.016927	244.160000
2945.284969	239.120000
2946.551276	239.990000
2947.817380	248.000000
2949.084814	238.140000
2950.350514	246.940000
2951.616011	239.510000
2952.881306	249.600000
2954.143336	235.750000
2955.406697	242.700000
2956.669855	246.380000
2957.931282	243.720000
2959.194038	242.030000
2960.455063	241.430000
2961.714356	246.000000
2962.973450	248.420000
2964.232343	244.460000
2965.491036	241.630000
2966.749529	247.390000
2968.006293	239.090000
2969.262857	240.700000
2970.517694	246.070000
2971.773860	246.410000
2973.026770	246.090000
2974.281010	243.880000
2975.535051	247.710000
2976.787366	241.300000
2978.039483	244.980000
2979.289875	242.590000
2980.543122	240.890000
2981.791592	247.530000
2983.042916	243.420000
2984.290992	242.860000
2985.538870	242.740000
2986.786551	246.890000
2988.034036	245.040000
2989.279799	244.440000
2990.525365	245.360000
2991.772259	244.830000
2993.015909	242.140000
2994.260887	245.190000
2995.502622	241.900000
2996.747208	241.910000
2997.990074	248.890000
2999.229700	245.680000
3000.472176	246.160000
3001.711413	248.130000
3002.951977	242.430000
3004.190824	247.590000
3005.429477	243.630000
3006.666414	241.360000
3007.904678	247.300000
3009.141228	239.850000
3010.377583	242.720000
3011.613745	240.450000
3012.848194	243.220000
3014.082449	245.750000
3015.316511	246.390000
3016.548861	240.600000
3017.779499	246.380000
3019.012983	245.090000
3020.244755	247.030000
3021.474817	245.270000
3022.704687	242.580000
3023.932847	248.190000
3025.162333	243.170000
3026.390111	245.740000
3027.617697	248.520000
3028.846609	250.100000
3030.070779	244.940000
3031.297792	242.650000
3032.521581	244.310000
3033.746697	250.050000
3034.970106	247.900000
3036.193326	245.420000
3037.414840	242.410000
3038.639195	239.850000
3039.858815	240.020000
3041.079760	248.430000
3042.300517	247.530000
3043.519570	240.180000
3044.739949	255.620000
3045.957111	239.320000
3047.175598	239.260000
3048.392384	244.430000
3049.608981	249.100000
3050.825390	245.480000
3052.038587	247.590000
3053.254621	246.880000
3054.467443	249.440000
3055.683102	244.670000
3056.894038	244.130000
3058.106299	245.590000
3059.318374	244.920000
3060.530262	247.070000
3061.740452	250.060000
3062.950456	248.850000
3064.160275	244.650000
3065.368397	242.510000
3066.576333	248.950000
3067.782575	246.980000
3068.990140	243.570000
3070.196012	242.405000
3071.401698	241.240000
3072.607199	248.410000
3073.811007	249.590000
3075.016139	243.710000
3076.219579	252.410000
3077.421326	239.680000
3078.622890	243.530000
3079.824270	247.320000
3081.025466	253.790000
3082.224972	247.460000
3083.424294	242.780000
3084.624940	252.810000
3085.823896	244.960000
3087.019658	250.000000
3088.218249	243.420000
3089.413646	244.350000
3090.610366	249.090000
3091.803894	243.670000
3093.000251	248.830000
3094.194920	244.430000
3095.386399	247.010000
3096.582209	249.850000
3097.773326	249.630000
3098.965765	249.880000
3100.155017	250.900000
3101.347095	249.810000
3102.537488	243.030000
3103.724696	249.510000
3104.913227	247.950000
3106.103080	247.610000
3107.289748	246.620000
3108.476237	249.710000
3109.662546	246.870000
3110.850177	243.980000
3112.034627	243.270000
3113.217396	243.820000
3114.402989	241.480000
3115.586901	247.550000
3116.769135	243.800000
3117.951190	243.710000
3119.133068	248.150000
3120.314767	248.400000
3121.494788	243.970000
3122.673133	252.740000
3123.854299	246.750000
3125.032289	242.890000
3126.210102	246.940000
3127.387738	241.520000
3128.563699	245.300000
3129.739483	250.310000
3130.916589	247.910000
3132.092020	245.700000
3133.265778	247.500000
3134.437864	242.880000
3135.611270	239.070000
3136.784501	245.660000
3137.956059	248.290000
3139.128939	244.730000
3140.298651	249.290000
3141.469684	246.740000
3142.639046	248.290000
3143.806739	251.450000
3144.977247	244.570000
3146.143096	247.200000
3147.313255	252.990000
3148.478756	245.230000
3149.644084	249.400000
3150.809238	251.380000
3151.974218	247.170000
3153.140519	245.690000
3154.302166	253.640000
3155.465134	245.010000
3156.627928	243.620000
3157.790550	240.380000
3158.951507	239.980000
3160.112291	242.330000
3161.272903	234.400000
3162.431852	240.000000
3163.590628	243.800000
3164.749233	244.720000
3165.907666	244.040000
3167.065927	235.890000
3168.222526	238.530000
3169.377464	247.120000
3170.533721	238.700000
3171.688318	245.730000
3172.842743	237.870000
3173.995509	249.940000
3175.148105	242.170000
3176.300530	241.090000
3177.452786	240.910000
3178.604872	250.970000
3179.753811	246.870000
3180.905557	248.840000
3182.055645	245.780000
3183.204077	248.080000
3184.352340	246.540000
3185.500433	253.150000
3186.648358	248.270000
3187.794628	253.340000
3188.940729	250.000000
3190.085175	249.820000
3191.229454	253.030000
3192.373565	252.330000
3193.518994	256.220000
3194.661283	252.160000
3195.803406	248.840000
3196.945361	251.200000
3198.087150	248.080000
3199.228771	249.020000
3200.367256	250.290000
3201.507059	253.400000
3202.648180	246.220000
3203.786166	255.440000
3204.922503	254.390000
3206.058674	252.450000
3207.196163	259.060000
3208.332002	245.750000
3209.469159	257.770000
3210.601703	250.270000
3211.738529	248.380000
3212.870743	249.700000
3214.004275	249.220000
3215.137641	245.790000
3216.267880	250.000000
3217.400917	248.370000
3218.530828	245.690000
3219.662056	244.170000
3220.790158	242.040000
3221.921057	244.900000
3223.050313	247.330000
3224.177924	242.620000
3225.302414	245.800000
3226.431179	246.320000
3227.556822	243.110000
3228.682302	236.630000
3229.806141	243.380000
3230.932774	244.790000
3232.054810	248.530000
3233.178162	248.740000
3234.301352	242.690000
3235.424380	245.010000
3236.545768	243.960000
3237.666995	239.090000
3238.786583	242.740000
3239.906010	245.010000
3241.023799	246.150000
3242.144381	245.410000
3243.261848	244.490000
3244.379156	246.350000
3245.496302	250.260000
3246.611813	251.890000
3247.728639	250.470000
3248.842354	246.680000
3249.958860	249.850000
3251.073730	253.510000
3252.185492	253.880000
3253.297095	250.090000
3254.410012	253.850000
3255.522771	256.420000
3256.632423	254.230000
3257.743390	256.060000
3258.854197	253.890000
3259.963374	249.020000
3261.070919	254.670000
3262.179779	254.420000
3263.288480	255.420000
3264.394079	254.150000
3265.500992	254.230000
3266.606277	252.990000
3267.712875	253.510000
3268.816373	253.860000
3269.921185	259.200000
3271.025840	256.260000
3272.127396	251.490000
3273.228797	253.740000
3274.331511	257.690000
3275.434068	253.180000
3276.533530	255.070000
3277.635774	252.000000
3278.734923	254.430000
3279.832448	255.900000
3280.929817	256.590000
3282.029969	252.310000
3283.127027	258.320000
3284.223930	254.930000
3285.320679	253.040000
3286.412868	257.850000
3287.509306	253.690000
3288.604123	250.280000
3289.698784	259.840000
3290.791824	256.130000
3291.884710	255.170000
3292.975975	248.470000
3294.068553	252.460000
3295.159510	260.610000
3296.248848	259.940000
3297.338033	253.940000
3298.428531	254.080000
3299.515944	255.070000
3300.603205	261.120000
3301.691778	258.630000
3302.780198	258.780000
3303.864071	258.510000
3304.952186	252.620000
3306.037220	250.040000
3307.120637	258.630000
3308.205367	254.720000
3309.288482	259.500000
3310.372908	254.510000
3311.454256	262.350000
3312.536916	259.680000
3313.617962	259.080000
3314.698857	260.420000
3315.778139	259.080000
3316.857270	258.210000
3317.937712	257.560000
3319.015081	256.600000
3320.093760	263.620000
3321.170829	255.420000
3322.247747	261.960000
3323.323054	258.950000
3324.398212	261.950000
3325.474681	257.370000
3326.548080	263.020000
3327.621330	259.030000
3328.695891	262.240000
3329.768842	261.800000
3330.840186	254.430000
3331.912840	263.640000
3332.982427	259.950000
3334.053325	260.160000
3335.122616	257.160000
3336.193218	256.200000
3337.262213	259.380000
3338.329602	254.410000
3339.395386	254.010000
3340.465396	262.290000
3341.532343	253.750000
3342.596228	255.940000
3343.662881	255.860000
3344.727929	255.320000
3345.791374	260.430000
3346.854673	252.990000
3347.917826	255.460000
3348.980832	256.530000
3350.043691	260.640000
3351.104949	255.200000
3352.163150	260.040000
3353.225572	255.940000
3354.284937	259.390000
3355.344157	252.020000
3356.404687	250.780000
3357.460707	261.170000
3358.519492	263.570000
3359.573769	261.450000
3360.630809	264.210000
3361.686252	263.570000
3362.743003	261.860000
3363.798157	257.410000
3364.851713	258.490000
3365.903672	258.550000
3366.958393	264.880000
3368.010065	259.390000
3369.061594	264.860000
3370.114432	264.790000
3371.164222	260.030000
3372.215320	264.880000
3373.263373	260.440000
3374.314186	260.900000
3375.361953	258.500000
3376.409578	265.860000
3377.457060	264.460000
3378.502950	266.720000
3379.550148	263.350000
3380.594304	258.400000
3381.641218	265.200000
3382.686540	257.490000
3383.728822	260.530000
3384.770962	261.720000
3385.814410	259.620000
3386.857718	267.180000
3387.899435	262.070000
3388.941011	260.170000
3389.982447	260.260000
3391.022293	259.340000
3392.060552	262.040000
3393.100118	271.990000
3394.139543	265.490000
3395.177381	260.560000
3396.213633	266.180000
3397.249744	266.110000
3398.287163	263.710000
3399.321549	259.620000
3400.357242	266.750000
3401.392796	267.520000
3402.425319	260.700000
3403.460595	266.800000
3404.492840	263.950000
3405.524947	270.140000
3406.555470	264.300000
3407.587301	267.920000
3408.618992	266.180000
3409.647657	265.470000
3410.676183	266.380000
3411.706017	265.010000
3412.735712	265.990000
3413.762382	263.930000
3414.790359	265.740000
3415.815311	266.070000
3416.843013	267.480000
3417.867692	275.700000
3418.893677	263.160000
3419.918082	261.020000
3420.942351	265.220000
3421.965041	270.340000
3422.987595	266.270000
3424.011455	266.150000
3425.032295	257.530000
3426.053000	265.870000
3427.075010	262.720000
3428.094002	260.020000
3429.112859	264.290000
3430.133021	265.310000
3431.150167	264.310000
