-118.106446	13.360000
-115.436846	8.530000
-112.770181	11.070000
-110.104268	7.320000
-107.441287	11.910000
-104.776877	5.810000
-102.115397	9.190000
-99.452487	8.960000
-96.794685	12.710000
-94.135452	7.750000
-91.476968	15.340000
-88.821409	4.380000
-86.164421	11.380000
-83.512530	11.510000
-80.859210	13.650000
-78.208810	15.450000
-75.556980	9.490000
-72.910241	8.740000
-70.262072	9.130000
-67.614647	11.040000
-64.970135	17.370000
-62.324195	13.940000
-59.683336	10.900000
-57.041048	16.030000
-54.401668	12.020000
-51.760860	13.970000
-49.120792	13.020000
-46.485796	17.790000
-43.849371	9.110000
-41.215850	14.900000
-38.580900	16.920000
-35.951015	18.490000
-33.317538	13.620000
-30.689123	15.860000
-28.061441	19.690000
-25.432332	16.740000
-22.808279	25.850000
-20.180637	26.980000
-17.558048	27.500000
-14.936191	46.820000
-12.315064	75.580000
-9.694667	169.820000
-7.077158	538.650000
-4.458221	1671.420000
-1.842170	3673.060000
0.773153	3847.090000
3.387749	1896.140000
5.999462	203.300000
8.612604	45.350000
11.220712	29.080000
13.832402	26.400000
16.439061	24.530000
19.047148	25.570000
21.654511	20.430000
24.256849	20.760000
26.862765	23.070000
29.463659	23.880000
32.065981	14.970000
34.663286	17.890000
37.264166	16.320000
39.860032	15.880000
42.457325	16.700000
45.053899	17.700000
47.645464	24.010000
50.238457	19.830000
52.828589	19.790000
55.420149	19.900000
58.008849	21.750000
60.598976	22.040000
63.184105	20.970000
65.770660	24.820000
68.356502	21.910000
70.939490	22.680000
73.523905	25.390000
76.101190	23.770000
78.682042	22.180000
81.260045	19.470000
83.837338	22.690000
86.416057	22.250000
88.989795	24.340000
91.564959	23.260000
94.137280	30.650000
96.708893	30.650000
99.277666	34.140000
101.847866	36.000000
104.415228	40.000000
106.984015	47.690000
109.549966	54.460000
112.113082	65.910000
114.679754	81.890000
117.237205	106.850000
119.800341	153.600000
122.358518	219.710000
124.920248	319.920000
127.477023	473.550000
130.035223	708.640000
132.588471	1043.180000
135.141020	1509.110000
137.697120	2087.840000
140.248273	2721.410000
142.798727	3330.970000
145.348485	3763.020000
147.895423	4082.990000
150.441665	4239.690000
152.989333	4326.990000
155.536306	4349.510000
158.078342	4331.890000
160.619685	4299.420000
163.160335	4299.350000
165.702411	4247.170000
168.241676	4259.630000
170.778131	4218.490000
173.313896	4197.570000
175.851086	4183.540000
178.387584	4142.320000
180.921277	4152.940000
183.452167	4111.530000
185.982368	4083.380000
188.513994	4079.180000
191.042819	4067.650000
193.568845	4064.800000
196.094186	4056.200000
198.620951	4041.840000
201.144919	4027.490000
203.668203	4027.160000
206.190802	4033.430000
208.710608	4010.970000
211.229731	4001.410000
213.748171	3997.720000
216.268035	4006.460000
218.780898	4012.340000
221.297292	4023.010000
223.813004	4026.730000
226.323827	4020.410000
228.836074	4041.440000
231.345538	4039.120000
233.854324	4027.890000
236.362432	4061.780000
238.871963	4074.630000
241.376615	4070.810000
243.880590	4060.160000
246.385989	4072.310000
248.886513	4107.220000
251.390560	4111.090000
253.887637	4116.570000
256.388236	4118.480000
258.886064	4125.720000
261.383219	4117.480000
263.879701	4129.240000
266.371320	4128.580000
268.866459	4144.150000
271.358832	4127.620000
273.850534	4117.610000
276.339473	4140.880000
278.829835	4124.170000
281.317436	4106.040000
283.802277	4116.450000
286.290632	4099.300000
288.772048	4084.080000
291.256978	4085.810000
293.737063	4100.210000
296.220660	4099.850000
298.699414	4116.020000
301.179592	4124.270000
303.657017	4127.930000
306.133779	4109.620000
308.609878	4114.060000
311.083228	4093.850000
313.555916	4116.370000
316.027943	4099.860000
318.499309	4131.980000
320.967931	4156.550000
323.435893	4182.630000
325.905278	4134.990000
328.369840	4120.210000
330.837905	4110.540000
333.301151	4097.430000
335.763740	4100.600000
338.225671	4073.890000
340.686946	4071.860000
343.145487	4048.300000
345.605450	4032.310000
348.062680	4001.970000
350.519256	3994.380000
352.975178	3960.950000
355.428371	3898.470000
357.882985	3895.780000
360.332798	3855.190000
362.786108	3842.050000
365.234618	3800.650000
367.682478	3770.090000
370.131759	3738.550000
372.576247	3703.790000
375.022157	3638.130000
377.467418	3613.510000
379.909960	3613.900000
382.351854	3568.000000
384.793100	3527.100000
387.231631	3498.840000
389.671584	3468.340000
392.108823	3444.230000
394.543350	3399.700000
396.981365	3389.040000
399.414603	3340.350000
401.849263	3310.750000
404.279149	3300.990000
406.712521	3266.180000
409.141123	3273.370000
411.569084	3213.720000
413.998465	3223.390000
416.423081	3217.860000
418.849119	3203.420000
421.274516	3176.140000
423.699273	3185.090000
426.119272	3171.420000
428.540692	3177.950000
430.959415	3147.820000
433.379559	3152.720000
435.797008	3151.790000
438.215877	3149.820000
440.632053	3150.000000
443.043482	3138.330000
445.458387	3125.910000
447.870602	3122.950000
450.282183	3113.560000
452.693130	3122.030000
455.101391	3112.550000
457.509019	3084.540000
459.916016	3099.650000
462.322380	3083.030000
464.726062	3075.250000
467.129114	3071.640000
469.531536	3054.290000
471.933329	3044.950000
474.332443	3043.150000
476.732977	3033.260000
479.132882	3026.120000
481.528064	3007.300000
483.926713	3007.290000
486.320642	2989.990000
488.713945	2982.420000
491.106622	2971.470000
493.498674	2963.660000
495.892145	2942.450000
498.280903	2954.030000
500.666995	2936.660000
503.054507	2933.570000
505.441395	2909.290000
507.825620	2908.260000
510.211264	2907.650000
512.594245	2889.520000
514.974566	2867.290000
517.356306	2906.110000
519.735387	2877.400000
522.115887	2882.220000
524.493729	2856.770000
526.868916	2881.490000
529.243485	2851.760000
531.619473	2853.970000
533.992807	2820.340000
536.367559	2796.270000
538.737626	2763.240000
541.107077	2762.600000
543.477946	2730.650000
545.844135	2685.630000
548.211742	2682.640000
550.576703	2628.260000
552.941051	2604.810000
555.304787	2572.780000
557.669940	2552.510000
560.030420	2513.340000
562.392319	2492.230000
564.751578	2440.730000
567.108198	2412.180000
569.468263	2374.480000
571.821638	2341.890000
574.178457	2323.690000
576.532640	2270.410000
578.886216	2241.290000
581.239183	2202.230000
583.589519	2163.080000
585.941271	2155.800000
588.286347	2117.510000
590.636887	2081.440000
592.980754	2065.880000
595.330081	2044.910000
597.674761	2023.490000
600.016815	2014.990000
602.360287	2002.850000
604.701136	1973.570000
607.041383	1966.440000
609.379009	1969.480000
611.720070	1950.130000
614.056494	1960.900000
616.394334	1953.660000
618.729556	1949.530000
621.062163	1945.410000
623.396186	1967.070000
625.727596	1970.170000
628.058407	1963.340000
630.388620	1951.740000
632.718235	1954.390000
635.043228	1946.550000
637.373662	1950.960000
639.699474	1940.200000
642.022680	1937.870000
644.347301	1931.440000
646.669318	1938.030000
648.990740	1924.430000
651.309559	1936.800000
653.629794	1923.120000
655.949436	1928.150000
658.266477	1930.370000
660.582926	1955.700000
662.896778	1965.240000
665.212044	1976.290000
667.524714	1990.260000
669.838799	1996.690000
672.148284	2024.790000
674.459185	2052.220000
676.767493	2041.260000
679.075213	2080.120000
681.384348	2100.290000
683.688890	2113.170000
685.992845	2130.830000
688.296215	2154.870000
690.600999	2164.550000
692.901197	2175.450000
695.202809	2222.120000
697.503837	2204.360000
699.800282	2238.240000
702.098143	2259.650000
704.395420	2266.910000
706.692114	2280.810000
708.984232	2310.670000
711.279761	2315.590000
713.570717	2355.690000
715.863087	2358.590000
718.152881	2366.840000
720.442096	2370.680000
722.730730	2415.680000
725.016793	2424.410000
727.304269	2457.870000
729.589175	2446.620000
731.873502	2490.290000
734.155261	2510.900000
736.438434	2508.990000
738.721030	2524.450000
740.999071	2546.680000
743.278525	2577.110000
745.557404	2613.270000
747.835707	2630.900000
750.109461	2649.250000
752.384629	2676.060000
754.659223	2712.750000
756.931258	2705.340000
759.204705	2743.680000
761.475595	2777.730000
763.743929	2788.000000
766.013676	2824.290000
768.280869	2842.690000
770.547491	2864.380000
772.813544	2890.750000
775.077044	2910.440000
777.341958	2923.750000
779.606302	2961.730000
781.866117	2967.920000
784.127345	2992.580000
786.388005	3013.790000
788.646118	3041.590000
790.901687	3049.760000
793.160647	3069.410000
795.413108	3084.240000
797.670936	3071.870000
799.924244	3098.420000
802.175013	3122.660000
804.427194	3116.210000
806.676837	3152.020000
808.927891	3160.420000
811.174434	3154.190000
813.422389	3172.000000
815.667810	3184.640000
817.914642	3184.580000
820.160913	3206.430000
822.402680	3229.440000
824.647829	3238.580000
826.886506	3261.810000
829.128566	3267.150000
831.366127	3279.860000
833.605099	3301.260000
835.841545	3311.700000
838.079402	3333.900000
840.314735	3341.020000
842.547543	3384.130000
844.781763	3407.490000
847.013461	3435.520000
849.244604	3475.610000
851.475192	3515.790000
853.705226	3565.380000
855.934705	3595.250000
858.159703	3661.760000
860.388076	3707.650000
862.611970	3753.300000
864.837274	3817.950000
867.058103	3912.310000
869.282304	3937.380000
871.502032	4007.440000
873.723171	4078.430000
875.943759	4168.740000
878.161837	4241.420000
880.381326	4312.080000
882.596348	4358.480000
884.810822	4405.490000
887.024749	4473.770000
889.238128	4523.200000
891.450960	4517.160000
893.663246	4582.830000
895.873029	4604.750000
898.082267	4587.340000
900.290960	4600.330000
902.497154	4581.120000
904.704757	4537.050000
906.909863	4507.890000
909.114425	4462.400000
911.316491	4413.210000
913.519967	4331.960000
915.720949	4249.560000
917.921390	4160.170000
920.123239	4090.670000
922.318696	3974.870000
924.517513	3877.980000
926.711891	3798.450000
928.909627	3676.870000
931.102927	3593.710000
933.297636	3512.630000
935.489859	3422.360000
937.681544	3357.740000
939.872691	3310.320000
942.061355	3262.040000
944.249482	3245.060000
946.435129	3187.240000
948.624128	3183.370000
950.808704	3181.510000
952.992745	3142.740000
955.180136	3152.040000
957.359223	3169.630000
959.541661	3151.340000
961.723565	3154.500000
963.902995	3171.260000
966.079952	3162.490000
968.258316	3151.050000
970.438088	3160.160000
972.611511	3143.710000
974.788280	3096.170000
976.960643	3087.800000
979.134412	3060.460000
981.303778	3000.880000
983.476489	2994.280000
985.646733	2951.650000
987.816449	2891.320000
989.985636	2836.680000
992.150426	2801.490000
994.318557	2754.320000
996.482294	2689.580000
998.647437	2642.330000
1000.810122	2617.410000
1002.972280	2550.790000
1005.131982	2525.570000
1007.291160	2468.900000
1009.451744	2416.570000
1011.609873	2368.890000
1013.767478	2340.600000
1015.924560	2280.290000
1018.081119	2248.310000
1020.233298	2220.800000
1022.386883	2183.270000
1024.539947	2160.040000
1026.690563	2129.640000
1028.842584	2111.790000
1030.990232	2077.890000
1033.141212	2056.910000
1035.287821	2020.810000
1037.433912	1992.940000
1039.579483	1982.310000
1041.726460	1969.500000
1043.867149	1944.010000
1046.011166	1920.740000
1048.152743	1898.280000
1050.293804	1879.170000
1052.436269	1866.710000
1054.572455	1850.130000
1056.711967	1829.690000
1058.847123	1810.340000
1060.985604	1791.790000
1063.119731	1754.820000
1065.253345	1762.350000
1067.388364	1721.620000
1069.519033	1720.430000
1071.651107	1695.170000
1073.780752	1678.610000
1075.909885	1646.000000
1078.038506	1626.900000
1080.166616	1616.590000
1082.292300	1599.710000
1084.417474	1579.630000
1086.544052	1551.270000
1088.666293	1534.430000
1090.789937	1511.560000
1092.909248	1481.410000
1095.033787	1455.950000
1097.152081	1431.440000
1099.271780	1409.060000
1101.389060	1389.650000
1103.505834	1360.170000
1105.622101	1330.710000
1107.735953	1319.750000
1109.851208	1281.330000
1111.962141	1263.440000
1114.076385	1224.090000
1116.186309	1216.420000
1118.297637	1168.340000
1120.408460	1163.700000
1122.514968	1138.990000
1124.624784	1114.240000
1126.730286	1088.860000
1128.837191	1077.220000
1130.937881	1047.210000
1133.043783	1034.730000
1135.145376	1007.920000
1137.248372	986.340000
1139.350867	971.080000
1141.447155	944.610000
1143.548651	923.800000
1145.645844	908.900000
1147.742538	895.120000
1149.838734	869.580000
1151.934433	855.510000
1154.029634	842.790000
1156.122438	817.480000
1158.216644	806.300000
1160.304659	796.420000
1162.397872	781.940000
1164.484897	767.160000
1166.575221	748.640000
1168.661258	741.890000
1170.750592	717.870000
1172.833745	711.900000
1174.918301	698.780000
1177.004257	688.170000
1179.085932	670.440000
1181.169009	664.740000
1183.249700	652.640000
1185.329899	637.830000
1187.409607	634.060000
1189.488824	621.620000
1191.565659	616.530000
1193.640113	610.550000
1195.717859	601.830000
1197.791334	595.150000
1199.866210	592.900000
1201.936819	579.540000
1204.008830	573.060000
1206.078464	575.670000
1208.149499	562.170000
1210.220046	561.840000
1212.286332	551.950000
1214.354019	549.710000
1216.419334	545.100000
1218.486049	543.680000
1220.548508	547.140000
1222.614252	534.360000
1224.675743	532.210000
1226.738633	527.840000
1228.799156	533.280000
1230.859195	521.370000
1232.918752	526.110000
1234.975943	531.740000
1237.032653	521.490000
1239.087000	518.590000
1241.144627	517.700000
1243.199892	515.320000
1245.250916	515.280000
1247.303340	513.190000
1249.355284	506.640000
1251.404870	503.030000
1253.453977	508.700000
1255.502606	511.680000
1257.550756	493.730000
1259.598428	506.060000
1261.641869	501.370000
1263.688585	496.530000
1265.732948	500.300000
1267.776835	499.060000
1269.818371	493.020000
1271.857557	492.880000
1273.900015	496.050000
1275.938251	497.100000
1277.977886	496.800000
1280.017046	495.580000
1282.051987	492.070000
1284.088328	493.760000
1286.122323	486.110000
1288.157717	484.990000
1290.188897	481.160000
1292.221476	491.030000
1294.253582	490.030000
1296.283348	490.730000
1298.314512	487.160000
1300.341468	487.280000
1302.369822	484.410000
1304.393972	495.180000
1306.421386	497.380000
1308.444598	491.800000
1310.469208	489.310000
1312.491484	490.350000
1314.515157	489.560000
1316.536497	491.420000
1318.557369	504.360000
1320.577775	491.960000
1322.593986	499.370000
1324.611596	496.110000
1326.626877	498.540000
1328.645416	499.200000
1330.659767	501.220000
1332.671792	506.300000
1334.687074	489.450000
1336.698171	503.280000
1338.710665	496.570000
1340.718976	512.350000
1342.730543	499.740000
1344.736070	508.790000
1346.744853	497.750000
1348.749458	504.400000
1350.757317	505.970000
1352.764714	512.010000
1354.766080	510.480000
1356.768843	509.010000
1358.771145	507.390000
1360.772988	513.330000
1362.774371	508.300000
1364.773441	512.760000
1366.772052	514.440000
1368.770205	508.390000
1370.767900	505.110000
1372.761431	511.050000
1374.756359	510.760000
1376.750830	506.160000
1378.744844	507.980000
1380.736551	509.980000
1382.727802	508.120000
1384.716748	505.240000
1386.707089	505.130000
1388.696975	498.100000
1390.684558	507.730000
1392.671686	505.520000
1394.656514	503.750000
1396.642735	500.220000
1398.626657	495.350000
1400.610126	492.880000
1402.593143	491.230000
1404.573861	502.990000
1406.555975	488.980000
1408.535791	490.490000
1410.515157	473.740000
1412.490383	491.130000
1414.468849	480.880000
1416.445020	480.770000
1418.420743	482.140000
1420.396016	475.590000
1422.368998	479.480000
1424.341532	478.780000
1426.313619	472.670000
1428.285257	472.620000
1430.252767	468.960000
1432.225352	468.800000
1434.190130	469.280000
1436.159981	462.770000
1438.125707	460.860000
1440.092826	466.170000
1442.057662	463.080000
1444.018379	460.290000
1445.984163	456.860000
1447.943992	457.220000
1449.905214	450.230000
1451.867829	456.800000
1453.826329	448.260000
1455.784387	449.190000
1457.742002	446.380000
1459.699176	449.770000
1461.654074	449.920000
1463.610364	439.950000
1465.564380	437.520000
1467.517956	440.020000
1469.469259	439.470000
1471.421954	440.160000
1473.372378	429.970000
1475.322363	438.290000
1477.271908	438.530000
1479.219185	427.610000
1481.164195	431.070000
1483.110596	431.650000
1485.056561	429.780000
1487.002087	432.790000
1488.945349	425.960000
1490.888174	428.280000
1492.828736	430.030000
1494.770689	431.500000
1496.710381	430.870000
1498.649637	419.760000
1500.588458	421.330000
1502.525020	418.550000
1504.462973	419.820000
1506.398668	418.350000
1508.333929	415.980000
1510.266933	410.160000
1512.199505	416.870000
1514.131645	416.300000
1516.063353	414.400000
1517.992807	411.880000
1519.923652	409.600000
1521.854066	415.600000
1523.780406	412.890000
1525.708138	408.880000
1527.633619	413.300000
1529.558671	413.420000
1531.483294	407.840000
1533.407488	411.120000
1535.329435	413.330000
1537.252771	405.800000
1539.173862	411.440000
1541.092708	409.970000
1543.012944	410.320000
1544.930936	405.760000
1546.848502	403.530000
1548.763826	403.360000
1550.680540	407.580000
1552.593199	409.020000
1554.509062	407.330000
1556.422685	411.340000
1558.334071	403.130000
1560.246845	402.410000
1562.155570	395.310000
1564.065685	405.220000
1565.975376	403.560000
1567.884643	401.660000
1569.791677	397.450000
1571.696478	398.390000
1573.602668	394.510000
1575.506626	402.360000
1577.410164	394.780000
1579.313280	392.640000
1581.214168	394.850000
1583.116443	389.460000
1585.016491	398.250000
1586.917926	397.740000
1588.815328	387.730000
1590.712311	390.380000
1592.608876	390.050000
1594.506829	392.250000
1596.398947	391.480000
1598.294258	397.200000
1600.189152	392.040000
1602.081824	389.260000
1603.974080	386.860000
1605.864115	386.270000
1607.753736	385.300000
1609.642940	385.470000
1611.531730	389.680000
1613.418303	381.130000
1615.306262	385.140000
1617.190205	382.090000
1619.075536	379.280000
1620.960452	390.190000
1622.843155	386.380000
1624.727245	381.900000
1626.607324	382.820000
1628.488789	382.790000
1630.368044	382.740000
1632.248685	381.390000
1634.123522	385.180000
1636.003341	378.200000
1637.879154	384.550000
1639.754557	380.510000
1641.631347	383.240000
1643.502339	383.020000
1645.376513	380.390000
1647.246689	383.170000
1649.120045	384.310000
1650.991198	378.790000
1652.860149	383.660000
1654.730486	375.350000
1656.596829	377.540000
1658.464558	375.750000
1660.330089	374.580000
1662.197004	375.370000
1664.059931	375.020000
1665.924243	371.700000
1667.786359	379.280000
1669.648071	373.250000
1671.511167	372.510000
1673.372069	380.830000
1675.230777	374.540000
1677.089082	368.980000
1678.948772	374.230000
1680.802695	368.010000
1682.659790	377.710000
1684.516483	371.910000
1686.369200	365.630000
1688.225087	366.170000
1690.077001	368.280000
1691.928514	360.320000
1693.779626	367.220000
1695.630338	367.280000
1697.480649	362.800000
1699.328776	361.910000
1701.178286	364.380000
1703.022048	363.450000
1704.870759	358.180000
1706.713725	362.760000
1708.559856	365.440000
1710.402026	365.010000
1712.247360	354.320000
1714.086954	362.190000
1715.927932	365.020000
1717.770293	359.370000
1719.608698	354.910000
1721.448486	363.330000
1723.286099	357.400000
1725.123316	361.480000
1726.958360	356.670000
1728.794787	361.580000
1730.629042	369.040000
1732.462902	354.810000
1734.296369	355.520000
1736.125889	360.860000
1737.958568	363.110000
1739.787303	354.590000
1741.619196	358.390000
1743.447146	361.710000
1745.274704	352.900000
1747.101870	359.920000
1748.928645	360.000000
1750.755029	349.070000
1752.577476	358.870000
1754.403077	356.070000
1756.224744	353.260000
1758.047793	356.570000
1759.868681	359.330000
1761.689179	347.970000
1763.511059	357.980000
1765.327239	347.990000
1767.146571	356.730000
1768.961976	346.260000
1770.780531	355.170000
1772.595161	355.900000
1774.409405	351.230000
1776.223261	354.800000
1778.036731	360.010000
1779.848048	349.850000
1781.660746	353.520000
1783.473057	358.840000
1785.281451	353.120000
1787.091226	352.030000
1788.897085	357.400000
1790.706090	360.190000
1792.511182	354.620000
1794.317655	354.430000
1796.123744	355.620000
1797.925923	358.880000
1799.731245	357.890000
1801.532659	349.910000
1803.335453	355.740000
1805.134341	350.100000
1806.934610	352.290000
1808.734497	348.020000
1810.532243	349.190000
1812.329607	349.170000
1814.126592	353.400000
1815.923196	350.050000
1817.717661	344.660000
1819.513505	349.400000
1821.303695	352.990000
1823.098781	349.810000
1824.888214	341.720000
1826.680784	348.890000
1828.471219	348.170000
1830.259520	346.390000
1832.050956	344.660000
1833.836746	345.690000
1835.623916	345.860000
1837.408954	342.140000
1839.197126	345.130000
1840.981412	347.590000
1842.763569	342.490000
1844.547104	338.770000
1846.328511	340.410000
1848.111297	343.880000
1849.890203	351.480000
1851.670487	343.620000
1853.448645	348.530000
1855.228182	338.860000
1857.005594	343.700000
1858.780882	341.680000
1860.557549	340.910000
1862.332092	341.250000
1864.108014	338.030000
1865.878316	346.900000
1867.651744	347.430000
1869.423053	351.850000
1871.193992	341.400000
1872.966307	339.200000
1874.733010	340.440000
1876.502837	343.160000
1878.268801	343.870000
1880.037889	342.490000
1881.803115	346.440000
1883.567972	345.560000
1885.334207	336.810000
1887.096583	338.350000
1888.858592	338.520000
1890.620233	345.410000
1892.381508	341.040000
1894.142415	337.500000
1895.902956	341.570000
1897.661387	336.150000
1899.419453	332.820000
1901.175410	333.070000
1902.932745	341.800000
1904.689713	341.690000
1906.444576	338.150000
1908.197333	339.860000
1909.949727	337.410000
1911.703496	332.570000
1913.455162	329.840000
1915.204726	334.400000
1916.955666	329.520000
1918.706242	331.930000
1920.452979	330.170000
1922.201093	335.590000
1923.947107	334.610000
1925.694497	336.170000
1927.439788	332.730000
1929.182982	335.620000
1930.927552	328.220000
1932.670025	335.200000
1934.412138	335.230000
1936.153891	336.130000
1937.895285	337.290000
1939.634585	331.480000
1941.373525	329.580000
1943.112108	330.490000
1944.848598	331.670000
1946.584731	333.940000
1948.322238	336.210000
1950.055923	335.560000
1951.790983	332.490000
1953.523955	335.290000
1955.256570	334.520000
1956.988828	338.650000
1958.720730	340.520000
1960.450546	337.470000
1962.178278	325.310000
1963.907383	327.140000
1965.636134	338.110000
1967.362801	331.950000
1969.089114	336.680000
1970.816800	333.270000
1972.538950	338.160000
1974.264201	330.350000
1975.985646	337.500000
1977.710190	333.790000
1979.432655	334.740000
1981.151316	334.160000
1982.873076	337.680000
1984.591034	336.520000
1986.310365	335.330000
1988.025897	336.530000
1989.746250	335.120000
1991.462803	337.440000
1993.175561	332.910000
1994.891414	334.700000
1996.605194	331.740000
1998.318625	338.490000
2000.029985	335.090000
2001.742718	335.380000
2003.451659	330.810000
2005.163694	339.980000
2006.870219	339.090000
2008.579837	338.500000
2010.287387	337.800000
2011.994590	332.650000
2013.699727	334.760000
2015.404517	343.010000
2017.110679	333.620000
2018.813059	336.620000
2020.516811	339.400000
2022.218499	339.240000
2023.919843	332.660000
2025.620841	336.150000
2027.319779	332.830000
2029.020087	327.350000
2030.716621	331.770000
2032.414526	336.140000
2034.110372	331.270000
2035.809304	331.720000
2037.502750	332.040000
2039.197568	333.700000
2040.892042	340.530000
2042.582748	336.850000
2044.276538	338.440000
2045.966561	339.090000
2047.657955	324.190000
2049.347296	334.560000
2051.038007	333.950000
2052.724956	331.010000
2054.411564	323.120000
2056.099543	331.220000
2057.783762	326.900000
2059.469351	324.740000
2061.154601	322.850000
2062.837803	325.630000
2064.522374	324.420000
2066.201483	324.730000
2067.885377	323.230000
2069.563811	322.470000
2071.245321	321.150000
2072.923081	328.230000
2074.600503	329.190000
2076.279296	315.430000
2077.956045	324.120000
2079.630753	324.790000
2081.306830	322.090000
2082.980867	321.140000
2084.654568	321.910000
2086.327934	321.860000
2087.999262	320.670000
2089.670255	328.200000
2091.340914	323.690000
2093.011238	321.470000
2094.681229	323.660000
2096.349184	320.080000
2098.016806	320.060000
2099.682393	319.870000
2101.349350	324.490000
2103.014272	328.000000
2104.678863	333.670000
2106.341422	323.790000
2108.005349	326.950000
2109.667246	320.240000
2111.328811	328.730000
2112.990045	329.220000
2114.649251	326.300000
2116.308126	321.760000
2117.966672	328.690000
2119.624888	327.200000
2121.279380	327.030000
2122.936937	324.670000
2124.594165	331.220000
2126.247671	325.390000
2127.902545	326.140000
2129.553701	321.660000
2131.207918	322.130000
2132.858419	323.630000
2134.510286	326.120000
2136.156745	327.350000
2137.807959	324.860000
2139.455459	321.600000
2141.104326	322.430000
2142.751175	324.240000
2144.397697	331.200000
2146.043894	335.430000
2147.686383	323.970000
2149.331930	324.530000
2150.973770	323.850000
2152.618667	328.070000
2154.259859	321.220000
2155.900727	323.660000
2157.541271	322.840000
2159.179803	321.000000
2160.819702	325.510000
2162.455900	317.660000
2164.093464	314.620000
2165.730705	326.900000
2167.365937	316.690000
2169.000848	328.950000
2170.635437	313.470000
2172.269704	317.580000
2173.900279	312.820000
2175.533904	314.100000
2177.163838	317.270000
2178.795137	319.760000
2180.424432	320.730000
2182.053406	319.680000
2183.682062	315.580000
2185.310398	313.830000
2186.936731	316.010000
2188.562746	313.740000
2190.186760	315.060000
2191.812138	310.730000
2193.435517	308.420000
2195.060259	317.420000
2196.681321	310.360000
2198.302066	317.640000
2199.924176	310.430000
2201.544288	318.030000
2203.162403	310.660000
2204.780203	316.510000
2206.397688	305.580000
2208.014857	312.750000
2209.631711	310.860000
2211.248250	309.350000
2212.862795	312.180000
2214.475348	308.840000
2216.089265	315.480000
2217.701191	311.550000
2219.314480	311.610000
2220.925779	311.600000
2222.535088	306.740000
2224.145761	310.260000
2225.754445	309.220000
2227.362817	309.000000
2228.969201	307.850000
2230.576949	308.980000
2232.182710	307.460000
2233.788160	306.980000
2235.391625	315.740000
2236.996454	311.550000
2238.599298	304.110000
2240.200159	311.740000
2241.802383	307.580000
2243.402624	307.030000
2245.004228	309.820000
2246.602180	312.810000
2248.201494	303.660000
2249.798828	307.160000
2251.395853	309.780000
2252.994241	315.230000
2254.588980	312.720000
2256.181742	314.480000
2257.775867	312.600000
2259.371353	305.790000
2260.963195	308.310000
2262.554730	311.180000
2264.147626	305.280000
2265.735213	306.980000
2267.327497	309.530000
2268.914473	307.190000
2270.504478	311.310000
2272.089178	314.670000
2273.678572	305.300000
2275.262663	304.240000
2276.848116	302.260000
2278.431599	304.120000
2280.018109	302.110000
2281.600985	299.150000
2283.183557	301.900000
2284.765826	304.180000
2286.344466	299.940000
2287.926129	303.830000
2289.504164	300.590000
2291.085222	305.160000
2292.662654	302.305000
2294.238121	299.450000
2295.816611	292.460000
2297.391477	298.560000
2298.966042	295.800000
2300.540307	300.070000
2302.114271	301.160000
2303.687935	297.730000
2305.261298	299.900000
2306.831043	296.800000
2308.400489	298.340000
2309.972954	300.610000
2311.540143	296.440000
2313.110351	293.340000
2314.676944	294.180000
2316.244897	299.070000
2317.810894	301.030000
2319.376594	290.790000
2320.941997	299.880000
2322.505445	297.350000
2324.070253	304.800000
2325.631453	308.840000
2327.195667	308.780000
2328.754620	318.500000
2330.316586	318.590000
2331.876602	303.380000
2333.436322	306.360000
2334.994093	303.190000
2336.551569	300.590000
2338.108751	304.490000
2339.663986	305.580000
2341.218926	305.220000
2342.773573	302.600000
2344.327926	305.010000
2345.881985	304.810000
2347.435750	301.580000
2348.987572	301.760000
2350.537450	306.250000
2352.090336	304.620000
2353.637980	299.950000
2355.188631	303.960000
2356.735692	302.420000
2358.284110	308.440000
2359.832236	305.640000
2361.376774	305.620000
2362.922671	301.400000
2364.466628	305.400000
2366.011943	303.820000
2367.553673	304.690000
2369.096760	299.620000
2370.637912	298.740000
2372.178774	299.290000
2373.719347	308.900000
2375.259631	312.330000
2376.799625	309.400000
2378.336042	305.510000
2379.875460	306.700000
2381.411301	298.520000
2382.948498	308.320000
2384.482120	305.800000
2386.018743	303.910000
2387.553434	302.450000
2389.086196	311.080000
2390.618671	301.660000
2392.149219	303.620000
2393.682764	307.960000
2395.211098	308.070000
2396.740788	303.360000
2398.270193	314.450000
2399.799312	307.260000
2401.328147	306.380000
2402.851776	308.920000
2404.380042	311.290000
2405.903104	309.260000
2407.430800	307.910000
2408.951657	304.910000
2410.477147	310.080000
2411.999076	310.130000
2413.522361	309.900000
2415.043725	308.360000
2416.563169	307.480000
2418.083968	310.440000
2419.602848	307.940000
2421.121446	311.290000
2422.638127	306.310000
2424.156162	306.750000
2425.673916	306.080000
2427.188119	306.780000
2428.702041	307.380000
2430.215683	315.420000
2431.730680	307.560000
2433.242128	306.770000
2434.754931	309.210000
2436.265821	310.150000
2437.776431	301.080000
2439.285130	312.860000
2440.796816	307.340000
2442.304957	305.680000
2443.812821	304.350000
2445.320407	300.200000
2446.824452	306.620000
2448.331483	300.060000
2449.836605	301.780000
2451.341450	307.440000
2452.844388	307.110000
2454.347049	297.970000
2455.849434	298.580000
2457.349914	297.730000
2458.851747	295.040000
2460.351676	305.450000
2461.851329	299.320000
2463.350706	296.920000
2464.848181	298.430000
2466.343755	287.510000
2467.842308	300.280000
2469.337332	292.690000
2470.833710	297.240000
2472.326561	297.490000
2473.820764	298.000000
2475.314694	295.760000
2476.805101	294.560000
2478.298484	293.000000
2479.789970	294.370000
2481.279559	294.850000
2482.768876	298.010000
2484.256298	294.120000
2485.746695	296.920000
2487.233573	290.230000
2488.721803	294.270000
2490.206517	297.600000
2491.690960	292.700000
2493.176755	292.090000
2494.660657	298.240000
2496.145911	302.560000
2497.626031	295.190000
2499.109123	296.730000
2500.590325	292.750000
2502.071258	295.200000
2503.550302	295.560000
2505.029077	287.990000
2506.507584	292.120000
2507.985823	296.520000
2509.463793	296.580000
2510.938259	296.320000
2512.415693	297.300000
2513.889624	293.770000
2515.364906	297.580000
2516.839920	296.590000
2518.311433	300.780000
2519.784296	294.820000
2521.255277	297.180000
2522.727608	298.080000
2524.194826	294.620000
2525.665009	296.900000
2527.133312	296.090000
2528.601350	296.760000
2530.069123	298.230000
2531.536631	291.810000
2533.003874	296.900000
2534.467625	296.170000
2535.932726	298.360000
2537.395950	290.120000
2538.860524	299.230000
2540.321608	297.420000
2541.784042	299.360000
2543.246213	299.020000
2544.704898	294.230000
2546.168155	302.650000
2547.626315	304.510000
2549.085824	303.510000
2550.540240	305.320000
2551.999225	298.740000
2553.456339	293.580000
2554.911582	305.820000
2556.366564	298.930000
2557.819676	300.480000
2559.274137	300.160000
2560.726729	300.700000
2562.179061	295.000000
2563.629525	299.360000
2565.082945	297.890000
2566.531283	295.060000
2567.982577	299.900000
2569.432004	295.960000
2570.877959	298.050000
2572.326870	299.000000
2573.772309	297.910000
2575.219097	293.590000
2576.664021	298.800000
2578.108688	294.570000
2579.554702	297.800000
2580.997249	296.340000
2582.441144	296.560000
2583.881574	295.550000
2585.323351	294.820000
2586.763269	296.620000
2588.204534	294.900000
2589.642338	298.500000
2591.083091	294.270000
2592.518781	296.150000
2593.957421	297.230000
2595.394204	296.880000
2596.829130	290.440000
2598.267005	294.920000
2599.699821	292.270000
2601.133985	289.570000
2602.566295	296.160000
2603.999951	291.900000
2605.431754	288.500000
2606.863304	300.320000
2608.294600	288.410000
2609.724044	292.820000
2611.153237	295.080000
2612.580578	287.560000
2614.009266	291.040000
2615.437701	290.810000
2616.862689	291.650000
2618.289024	296.520000
2619.713510	293.020000
2621.139342	289.900000
2622.561730	291.620000
2623.985464	291.110000
2625.407351	289.400000
2626.828989	288.870000
2628.248781	290.900000
2629.669919	292.450000
2631.090807	291.520000
2632.508257	284.490000
2633.928646	290.830000
2635.345598	291.830000
2636.762302	288.040000
2638.178757	287.700000
2639.594964	289.260000
2641.010922	289.420000
2642.425040	291.010000
2643.838911	290.530000
2645.250942	290.250000
2646.664318	290.890000
2648.074264	294.200000
2649.487145	286.280000
2650.896599	290.820000
2652.305806	287.650000
2653.713177	296.090000
2655.123482	288.910000
2656.531951	291.290000
2657.938585	294.910000
2659.344974	288.800000
2660.749529	299.650000
2662.155428	294.940000
2663.559494	292.770000
2664.963316	294.630000
2666.366893	294.990000
2667.768638	291.360000
2669.171727	300.970000
2670.571399	287.140000
2671.972413	295.880000
2673.370012	288.820000
2674.770541	289.050000
2676.167655	291.960000
2677.566112	283.580000
2678.962741	295.000000
2680.359128	293.530000
2681.755274	289.060000
2683.149593	292.970000
2684.545255	290.360000
2685.937507	287.990000
2687.331103	291.490000
2688.722874	292.120000
2690.115987	288.440000
2691.507277	291.220000
2692.896744	293.220000
2694.285971	292.310000
2695.674959	291.390000
2697.065289	293.350000
2698.450634	294.960000
2699.838903	289.640000
2701.225352	289.620000
2702.611562	289.980000
2703.997534	293.800000
2705.380106	287.070000
2706.764021	290.910000
2708.147698	286.880000
2709.531137	289.880000
2710.911180	293.130000
2712.292565	283.590000
2713.672134	295.770000
2715.053045	292.040000
2716.432141	291.290000
2717.809422	287.850000
2719.188045	291.900000
2720.564855	288.100000
2721.941429	290.750000
2723.317767	293.850000
2724.692293	289.390000
2726.068160	293.880000
2727.440640	287.830000
2728.816036	293.980000
2730.186472	287.470000
2731.558249	289.720000
2732.929791	283.680000
2734.299525	293.430000
2735.670600	288.050000
2737.039867	293.100000
2738.408900	297.460000
2739.776126	285.620000
2741.143120	290.940000
2742.509881	286.600000
2743.876409	289.690000
2745.241132	286.620000
2746.605624	298.280000
2747.969883	292.130000
2749.333910	289.780000
2750.697706	291.340000
2752.058128	293.040000
2753.421461	291.640000
2754.779851	285.510000
2756.141151	289.260000
2757.499080	286.160000
2758.859919	286.120000
2760.218957	288.150000
2761.574627	289.220000
2762.933205	278.260000
2764.288417	284.290000
2765.643399	289.770000
2766.996584	284.550000
2768.352676	284.190000
2769.705404	283.160000
2771.057903	279.780000
2772.410174	280.990000
2773.763784	288.550000
2775.114032	287.350000
2776.462487	285.900000
2777.813846	284.130000
2779.161846	284.760000
2780.511185	282.990000
2781.858731	280.250000
2783.206050	285.830000
2784.553143	279.930000
2785.898445	283.430000
2787.243521	285.520000
2788.588371	289.160000
2789.932994	281.130000
2791.274266	279.550000
2792.616876	278.960000
2793.959260	285.910000
2795.301420	282.190000
2796.640230	285.740000
2797.981939	282.680000
2799.320301	285.500000
2800.660000	278.910000
2801.997913	280.290000
2803.334042	285.670000
2804.669947	283.800000
2806.007190	288.990000
2807.342649	283.850000
2808.677885	285.730000
2810.011338	285.120000
2811.346129	289.780000
2812.677578	286.800000
2814.011923	286.040000
2815.341370	288.230000
2816.672154	290.390000
2818.002716	287.640000
2819.331499	289.240000
2820.661618	284.320000
2821.989959	288.860000
2823.318079	278.710000
2824.644422	286.140000
2825.972100	287.430000
2827.296446	287.530000
2828.622127	279.380000
2829.946033	280.230000
2831.269720	289.060000
2832.594742	285.310000
2833.916434	285.900000
2835.237908	288.040000
2836.559163	284.750000
2837.880199	280.790000
2839.199463	279.800000
2840.520062	286.390000
2841.838889	278.300000
2843.157498	274.700000
2844.474336	286.640000
2845.790958	284.830000
2847.107361	281.670000
2848.421996	283.330000
2849.737965	277.960000
2851.050614	280.980000
2852.364599	288.100000
2853.678366	288.140000
2854.991918	279.900000
2856.303702	279.420000
2857.613720	285.410000
2858.925073	283.440000
2860.233111	279.180000
2861.542484	285.470000
2862.851641	278.820000
2864.160583	281.920000
2865.467762	281.270000
2866.773177	281.030000
2868.079927	289.950000
2869.384914	286.120000
2870.689688	287.040000
2871.992700	290.340000
2873.298594	290.700000
2874.599632	286.770000
2875.902005	283.520000
2877.202618	285.030000
2878.504565	290.560000
2879.806299	292.790000
2881.104728	290.260000
2882.404492	293.200000
2883.702497	287.230000
2885.000291	284.020000
2886.296329	283.280000
2887.593700	290.000000
2888.889315	285.110000
2890.184719	287.920000
2891.479913	281.150000
2892.771808	290.540000
2894.066580	285.630000
2895.358055	283.830000
2896.650863	288.500000
2897.943461	284.370000
2899.232765	286.240000
2900.523401	283.510000
2901.812286	283.150000
2903.102504	283.190000
2904.389430	291.250000
2905.677688	288.490000
2906.964196	288.580000
2908.250497	284.950000
2909.536589	291.300000
2910.820933	281.860000
2912.108149	284.510000
2913.390537	284.340000
2914.674258	281.370000
2915.956233	286.970000
2917.238001	282.080000
2918.518023	289.040000
2919.800915	291.380000
2921.082062	285.950000
2922.359927	289.000000
2923.640661	283.540000
2924.918114	284.770000
2926.195361	281.860000
2927.470867	283.820000
2928.749240	292.410000
2930.022798	281.350000
2931.299224	285.250000
2932.573909	280.810000
2933.846854	281.060000
2935.121129	281.100000
2936.393665	290.060000
2937.665997	279.100000
2938.935055	281.560000
2940.206979	286.390000
2941.477165	286.300000
2942.747148	285.760000
2944.016927	286.300000
2945.284969	283.650000
2946.551276	284.490000
2947.817380	282.000000
2949.084814	280.210000
2950.350514	284.730000
2951.616011	283.700000
2952.881306	285.290000
2954.143336	282.960000
2955.406697	277.450000
2956.669855	287.700000
2957.931282	284.020000
2959.194038	282.870000
2960.455063	283.530000
2961.714356	280.230000
2962.973450	282.360000
2964.232343	278.630000
2965.491036	288.630000
2966.749529	281.480000
2968.006293	282.200000
2969.262857	283.280000
2970.517694	286.030000
2971.773860	282.210000
2973.026770	285.700000
2974.281010	287.110000
2975.535051	280.090000
2976.787366	284.120000
2978.039483	284.230000
2979.289875	278.260000
2980.543122	290.170000
2981.791592	283.330000
2983.042916	289.200000
2984.290992	276.390000
2985.538870	283.330000
2986.786551	283.000000
2988.034036	278.280000
2989.279799	277.790000
2990.525365	284.260000
2991.772259	282.440000
2993.015909	283.970000
2994.260887	279.840000
2995.502622	277.480000
2996.747208	284.230000
2997.990074	284.500000
2999.229700	283.090000
3000.472176	281.850000
3001.711413	278.380000
3002.951977	281.990000
3004.190824	279.060000
3005.429477	290.530000
3006.666414	280.930000
3007.904678	279.340000
3009.141228	280.960000
3010.377583	279.690000
3011.613745	279.980000
3012.848194	285.290000
3014.082449	275.180000
3015.316511	280.740000
3016.548861	281.920000
3017.779499	281.450000
3019.012983	279.940000
3020.244755	281.010000
3021.474817	280.260000
3022.704687	278.650000
3023.932847	279.500000
3025.162333	281.950000
3026.390111	279.550000
3027.617697	281.930000
3028.846609	284.680000
3030.070779	278.590000
3031.297792	287.590000
3032.521581	286.520000
3033.746697	282.300000
3034.970106	280.370000
3036.193326	283.050000
3037.414840	284.050000
3038.639195	282.500000
3039.858815	280.940000
3041.079760	285.470000
3042.300517	280.530000
3043.519570	287.950000
3044.739949	284.080000
3045.957111	277.860000
3047.175598	280.000000
3048.392384	282.090000
3049.608981	280.000000
3050.825390	282.730000
3052.038587	281.100000
3053.254621	287.260000
3054.467443	281.260000
3055.683102	286.190000
3056.894038	279.930000
3058.106299	285.560000
3059.318374	281.750000
3060.530262	286.570000
3061.740452	286.470000
3062.950456	282.790000
3064.160275	289.240000
3065.368397	281.670000
3066.576333	284.000000
3067.782575	278.080000
3068.990140	282.060000
3070.196012	286.320000
3071.401698	290.580000
3072.607199	283.410000
3073.811007	279.960000
3075.016139	279.610000
3076.219579	281.250000
3077.421326	275.830000
3078.622890	284.060000
3079.824270	287.460000
3081.025466	286.380000
3082.224972	289.710000
3083.424294	285.720000
3084.624940	277.720000
3085.823896	284.550000
3087.019658	277.920000
3088.218249	282.360000
3089.413646	281.900000
3090.610366	280.780000
3091.803894	278.540000
3093.000251	283.820000
3094.194920	280.400000
3095.386399	284.540000
3096.582209	283.950000
3097.773326	277.930000
3098.965765	282.350000
3100.155017	284.160000
3101.347095	281.690000
3102.537488	281.590000
3103.724696	282.070000
3104.913227	283.240000
3106.103080	279.370000
3107.289748	287.800000
3108.476237	277.850000
3109.662546	285.310000
3110.850177	286.240000
3112.034627	278.830000
3113.217396	280.340000
3114.402989	273.030000
3115.586901	282.550000
3116.769135	281.150000
3117.951190	283.900000
3119.133068	285.090000
3120.314767	286.500000
3121.494788	281.950000
3122.673133	281.730000
3123.854299	276.800000
3125.032289	275.210000
3126.210102	284.160000
3127.387738	279.480000
3128.563699	287.370000
3129.739483	282.210000
3130.916589	281.460000
3132.092020	288.220000
3133.265778	279.820000
3134.437864	277.430000
3135.611270	281.070000
3136.784501	278.760000
3137.956059	279.710000
3139.128939	284.070000
3140.298651	278.120000
3141.469684	282.420000
3142.639046	284.220000
3143.806739	283.910000
3144.977247	282.290000
3146.143096	283.110000
3147.313255	282.280000
3148.478756	284.440000
3149.644084	286.030000
3150.809238	285.300000
3151.974218	285.520000
3153.140519	284.980000
3154.302166	277.610000
3155.465134	279.530000
3156.627928	277.250000
3157.790550	274.610000
3158.951507	280.860000
3160.112291	282.330000
3161.272903	271.620000
3162.431852	274.160000
3163.590628	275.610000
3164.749233	272.780000
3165.907666	274.450000
3167.065927	274.010000
3168.222526	267.900000
3169.377464	280.410000
3170.533721	267.320000
3171.688318	275.430000
3172.842743	276.040000
3173.995509	277.350000
3175.148105	279.030000
3176.300530	267.920000
3177.452786	280.610000
3178.604872	279.930000
3179.753811	275.400000
3180.905557	280.090000
3182.055645	280.740000
3183.204077	271.960000
3184.352340	282.180000
3185.500433	276.080000
3186.648358	281.540000
3187.794628	277.620000
3188.940729	279.050000
3190.085175	282.200000
3191.229454	281.300000
3192.373565	284.260000
3193.518994	279.470000
3194.661283	285.020000
3195.803406	285.280000
3196.945361	285.150000
3198.087150	288.060000
3199.228771	279.610000
3200.367256	292.630000
3201.507059	279.480000
3202.648180	286.070000
3203.786166	280.220000
3204.922503	283.350000
3206.058674	273.800000
3207.196163	281.080000
3208.332002	280.840000
3209.469159	284.680000
3210.601703	286.820000
3211.738529	284.410000
3212.870743	277.480000
3214.004275	278.980000
3215.137641	283.480000
3216.267880	279.110000
3217.400917	276.590000
3218.530828	281.060000
3219.662056	274.540000
3220.790158	276.910000
3221.921057	279.500000
3223.050313	276.310000
3224.177924	268.550000
3225.302414	278.550000
3226.431179	275.200000
3227.556822	275.710000
3228.682302	276.050000
3229.806141	278.080000
3230.932774	280.130000
3232.054810	278.270000
3233.178162	276.710000
3234.301352	274.810000
3235.424380	272.800000
3236.545768	270.900000
3237.666995	276.740000
3238.786583	272.230000
3239.906010	272.610000
3241.023799	276.480000
3242.144381	272.070000
3243.261848	275.950000
3244.379156	278.970000
3245.496302	288.490000
3246.611813	280.920000
3247.728639	278.480000
3248.842354	285.580000
3249.958860	284.260000
3251.073730	282.210000
3252.185492	282.970000
3253.297095	280.860000
3254.410012	280.950000
3255.522771	283.040000
3256.632423	283.430000
3257.743390	286.810000
3258.854197	290.950000
3259.963374	283.950000
3261.070919	280.680000
3262.179779	284.530000
3263.288480	285.900000
3264.394079	282.510000
3265.500992	284.930000
3266.606277	282.920000
3267.712875	293.430000
3268.816373	283.930000
3269.921185	290.330000
3271.025840	284.270000
3272.127396	284.860000
3273.228797	279.650000
3274.331511	286.070000
3275.434068	280.730000
3276.533530	293.480000
3277.635774	286.540000
3278.734923	290.210000
3279.832448	288.470000
3280.929817	284.880000
3282.029969	286.020000
3283.127027	290.100000
3284.223930	285.620000
3285.320679	285.520000
3286.412868	286.060000
3287.509306	283.460000
3288.604123	286.450000
3289.698784	288.750000
3290.791824	294.800000
3291.884710	286.650000
3292.975975	282.920000
3294.068553	284.600000
3295.159510	289.680000
3296.248848	284.200000
3297.338033	276.780000
3298.428531	287.130000
3299.515944	287.030000
3300.603205	281.500000
3301.691778	291.370000
3302.780198	283.010000
3303.864071	285.170000
3304.952186	286.870000
3306.037220	281.530000
3307.120637	284.940000
3308.205367	284.620000
3309.288482	287.430000
3310.372908	284.240000
3311.454256	283.330000
3312.536916	289.410000
3313.617962	289.220000
3314.698857	290.100000
3315.778139	283.630000
3316.857270	288.430000
3317.937712	286.890000
3319.015081	285.010000
3320.093760	293.110000
3321.170829	288.000000
3322.247747	288.840000
3323.323054	286.710000
3324.398212	292.210000
3325.474681	291.460000
3326.548080	288.790000
3327.621330	287.350000
3328.695891	295.730000
3329.768842	288.880000
3330.840186	293.640000
3331.912840	291.390000
3332.982427	287.450000
3334.053325	294.560000
3335.122616	285.880000
3336.193218	286.320000
3337.262213	283.970000
3338.329602	288.030000
3339.395386	286.930000
3340.465396	283.710000
3341.532343	287.140000
3342.596228	291.300000
3343.662881	288.950000
3344.727929	292.930000
3345.791374	284.180000
3346.854673	284.340000
3347.917826	288.340000
3348.980832	283.700000
3350.043691	291.170000
3351.104949	278.720000
3352.163150	291.140000
3353.225572	284.310000
3354.284937	287.600000
3355.344157	285.780000
3356.404687	285.880000
3357.460707	283.780000
3358.519492	288.380000
3359.573769	293.470000
3360.630809	286.960000
3361.686252	295.950000
3362.743003	290.340000
3363.798157	290.420000
3364.851713	290.380000
3365.903672	286.630000
3366.958393	291.050000
3368.010065	292.850000
3369.061594	287.950000
3370.114432	293.610000
3371.164222	290.760000
3372.215320	288.960000
3373.263373	290.560000
3374.314186	289.620000
3375.361953	288.410000
3376.409578	287.160000
3377.457060	289.110000
3378.502950	293.600000
3379.550148	295.940000
3380.594304	287.800000
3381.641218	295.190000
3382.686540	286.650000
3383.728822	287.850000
3384.770962	293.430000
3385.814410	288.000000
3386.857718	289.620000
3387.899435	290.400000
3388.941011	287.450000
3389.982447	286.980000
3391.022293	293.590000
3392.060552	293.530000
3393.100118	291.280000
3394.139543	297.980000
3395.177381	292.710000
3396.213633	292.380000
3397.249744	297.040000
3398.287163	290.980000
3399.321549	288.220000
3400.357242	303.700000
3401.392796	298.050000
3402.425319	291.850000
3403.460595	293.350000
3404.492840	288.380000
3405.524947	293.450000
3406.555470	297.720000
3407.587301	296.100000
3408.618992	292.560000
3409.647657	294.050000
3410.676183	291.980000
3411.706017	296.970000
3412.735712	292.190000
3413.762382	292.850000
3414.790359	292.090000
3415.815311	290.100000
3416.843013	299.180000
3417.867692	295.500000
3418.893677	293.250000
3419.918082	292.980000
3420.942351	292.520000
3421.965041	302.720000
3422.987595	294.310000
3424.011455	293.530000
3425.032295	299.680000
3426.053000	288.630000
3427.075010	292.440000
3428.094002	291.560000
3429.112859	290.560000
3430.133021	291.420000
3431.150167	295.100000
