-117.841134	-2.740000
-115.171534	-2.670000
-112.504869	0.040000
-109.838956	7.190000
-107.175976	5.420000
-104.511565	0.580000
-101.850085	-1.340000
-99.187176	1.990000
-96.529373	0.650000
-93.870141	-4.250000
-91.211657	1.380000
-88.556098	0.670000
-85.899109	-0.290000
-83.247219	1.930000
-80.593899	1.950000
-77.943498	-1.430000
-75.291669	4.380000
-72.644930	-2.200000
-69.996761	2.960000
-67.349335	1.470000
-64.704824	1.150000
-62.058883	-0.740000
-59.418024	2.740000
-56.775736	2.950000
-54.136357	1.240000
-51.495548	4.400000
-48.855480	3.600000
-46.220485	2.450000
-43.584060	1.900000
-40.950538	6.360000
-38.315588	5.460000
-35.685703	4.680000
-33.052226	-0.920000
-30.423811	6.430000
-27.796130	1.710000
-25.167020	6.800000
-22.542967	1.550000
-19.915325	5.410000
-17.292737	9.060000
-14.670879	15.380000
-12.049752	30.340000
-9.429356	65.140000
-6.811847	199.680000
-4.192910	717.190000
-1.576858	2036.380000
1.038465	2638.550000
3.653060	1302.830000
6.264774	149.990000
8.877916	24.280000
11.486024	11.580000
14.097713	3.310000
16.704373	10.310000
19.312460	7.520000
21.919823	1.770000
24.522161	4.310000
27.128077	10.440000
29.728971	2.080000
32.331293	5.130000
34.928597	1.170000
37.529478	5.910000
40.125343	2.530000
42.722637	1.560000
45.319211	4.400000
47.910776	0.550000
50.503769	2.110000
53.093901	1.360000
55.685460	2.650000
58.274161	-2.480000
60.864288	2.810000
63.449416	6.200000
66.035972	3.360000
68.621814	0.280000
71.204802	3.050000
73.789216	1.240000
76.366502	0.290000
78.947354	3.530000
81.525357	-2.890000
84.102650	4.750000
86.681369	4.180000
89.255106	0.810000
91.830271	0.160000
94.402592	3.800000
96.974205	-0.170000
99.542978	-0.620000
102.113178	1.240000
104.680539	-1.810000
107.249327	3.640000
109.815278	-1.330000
112.378394	1.050000
114.945066	2.720000
117.502516	2.560000
120.065653	6.440000
122.623829	6.990000
125.185560	11.360000
127.742334	20.260000
130.300534	27.030000
132.853782	40.800000
135.406332	48.710000
137.962432	67.180000
140.513584	90.830000
143.064039	109.220000
145.613796	117.970000
148.160734	129.880000
150.706977	138.510000
153.254645	139.290000
155.801617	143.470000
158.343654	141.670000
160.884997	138.270000
163.425647	147.250000
165.967723	140.600000
168.506987	141.230000
171.043442	139.430000
173.579207	142.220000
176.116397	138.580000
178.652896	132.420000
181.186589	137.610000
183.717478	134.010000
186.247679	135.650000
188.779306	136.370000
191.308131	134.960000
193.834157	131.280000
196.359497	128.100000
198.886262	131.320000
201.410231	135.720000
203.933515	137.140000
206.456113	136.560000
208.975919	133.050000
211.495042	136.500000
214.013483	130.930000
216.533347	133.110000
219.046210	140.370000
221.562604	141.580000
224.078316	136.010000
226.589138	136.990000
229.101385	141.250000
231.610849	129.660000
234.119635	136.260000
236.627743	140.880000
239.137275	137.820000
241.641926	138.540000
244.145901	142.570000
246.651300	142.940000
249.151824	140.340000
251.655871	140.780000
254.152948	139.510000
256.653548	140.550000
259.151376	141.950000
261.648531	144.790000
264.145013	147.940000
266.636632	146.110000
269.131771	148.400000
271.624143	147.810000
274.115845	145.240000
276.604784	151.540000
279.095146	145.570000
281.582747	148.330000
284.067588	150.440000
286.555944	147.060000
289.037360	147.620000
291.522290	151.880000
294.002375	149.130000
296.485972	152.530000
298.964726	157.420000
301.444903	158.150000
303.922329	153.630000
306.399091	155.160000
308.875189	154.380000
311.348540	158.160000
313.821228	160.300000
316.293255	176.490000
318.764621	184.920000
321.233242	196.350000
323.701204	189.400000
326.170589	182.720000
328.635151	172.040000
331.103217	173.450000
333.566463	161.270000
336.029051	161.340000
338.490983	160.710000
340.952258	161.300000
343.410798	161.260000
345.870762	159.190000
348.327992	161.200000
350.784568	157.680000
353.240490	158.430000
355.693682	160.190000
358.148297	157.770000
360.598110	162.270000
363.051419	160.000000
365.499929	156.980000
367.947789	161.630000
370.397071	161.260000
372.841559	162.530000
375.287469	159.060000
377.732729	162.440000
380.175271	156.130000
382.617165	154.080000
385.058412	161.820000
387.496943	162.900000
389.936895	152.870000
392.374134	155.970000
394.808662	154.600000
397.246677	157.190000
399.679915	160.890000
402.114574	154.630000
404.544461	160.610000
406.977833	156.690000
409.406435	159.540000
411.834395	157.520000
414.263777	162.970000
416.688393	155.760000
419.114431	157.160000
421.539828	160.830000
423.964585	159.470000
426.384584	160.820000
428.806003	161.180000
431.224727	158.330000
433.644871	162.750000
436.062320	155.550000
438.481189	164.610000
440.897365	160.360000
443.308793	157.300000
445.723698	156.680000
448.135914	155.270000
450.547495	157.350000
452.958442	155.330000
455.366703	158.400000
457.774331	153.730000
460.181327	159.570000
462.587692	156.660000
464.991374	154.720000
467.394426	155.730000
469.796848	159.470000
472.198640	149.370000
474.597754	149.770000
476.998288	149.260000
479.398193	151.170000
481.793376	152.960000
484.192025	151.130000
486.585953	152.160000
488.979256	157.000000
491.371934	147.650000
493.763986	153.740000
496.157456	146.600000
498.546214	146.260000
500.932306	144.100000
503.319818	139.120000
505.706707	146.160000
508.090932	152.720000
510.476575	169.050000
512.859557	185.910000
515.239878	210.130000
517.621618	241.240000
520.000699	242.830000
522.381198	229.880000
524.759041	208.560000
527.134227	188.450000
529.508797	178.100000
531.884784	163.990000
534.258119	151.360000
536.632871	145.220000
539.002937	144.640000
541.372389	139.750000
543.743258	136.830000
546.109446	133.870000
548.477053	128.270000
550.842015	131.160000
553.206363	133.530000
555.570098	122.310000
557.935251	121.410000
560.295732	124.750000
562.657631	123.040000
565.016889	116.900000
567.373509	118.660000
569.733575	118.000000
572.086949	114.130000
574.443768	119.180000
576.797952	113.110000
579.151527	113.170000
581.504495	115.590000
583.854830	117.340000
586.206583	114.380000
588.551659	113.650000
590.902198	114.840000
593.246065	111.280000
595.595393	117.300000
597.940072	109.020000
600.282127	109.550000
602.625599	111.220000
604.966448	110.630000
607.306694	110.770000
609.644320	112.040000
611.985381	116.690000
614.321805	117.260000
616.659645	106.960000
618.994868	114.340000
621.327475	109.990000
623.661498	110.000000
625.992907	105.290000
628.323718	108.980000
630.653931	109.910000
632.983547	110.520000
635.308539	104.340000
637.638973	111.360000
639.964786	106.670000
642.287991	109.210000
644.612613	111.010000
646.934629	108.480000
649.256051	104.670000
651.574870	105.380000
653.895106	98.290000
656.214748	106.940000
658.531789	104.890000
660.848238	98.670000
663.162089	101.630000
665.477356	107.860000
667.790026	103.610000
670.104111	104.780000
672.413596	104.780000
674.724497	101.630000
677.032805	95.560000
679.340525	105.280000
681.649659	102.900000
683.954201	102.520000
686.258157	103.030000
688.561527	103.000000
690.866311	99.060000
693.166508	106.620000
695.468121	98.100000
697.769148	98.560000
700.065594	95.570000
702.363455	99.800000
704.660732	98.020000
706.957426	96.260000
709.249544	94.720000
711.545073	100.030000
713.836028	98.220000
716.128398	103.520000
718.418193	99.690000
720.707407	99.820000
722.996042	97.310000
725.282104	104.010000
727.569581	97.450000
729.854486	97.110000
732.138814	99.860000
734.420573	100.870000
736.703746	104.960000
738.986342	105.670000
741.264382	102.270000
743.543837	99.180000
745.822715	98.850000
748.101019	98.490000
750.374773	103.000000
752.649940	107.630000
754.924534	103.930000
757.196569	105.840000
759.470017	103.270000
761.740907	107.260000
764.009241	103.010000
766.278988	102.570000
768.546180	103.270000
770.812803	104.810000
773.078855	106.680000
775.342356	102.870000
777.607270	110.680000
779.871614	105.590000
782.131429	106.100000
784.392656	105.990000
786.653316	112.440000
788.911430	105.740000
791.166999	105.570000
793.425959	110.090000
795.678419	100.070000
797.936247	111.570000
800.189556	108.410000
802.440325	112.430000
804.692506	105.370000
806.942148	114.950000
809.193202	103.370000
811.439746	104.260000
813.687701	103.040000
815.933122	108.550000
818.179954	102.140000
820.426225	107.790000
822.667991	101.620000
824.913141	108.430000
827.151818	99.480000
829.393877	105.160000
831.631438	102.960000
833.870411	100.720000
836.106857	99.780000
838.344714	103.350000
840.580046	104.670000
842.812855	102.000000
845.047074	105.720000
847.278772	102.590000
849.509915	106.090000
851.740503	104.550000
853.970537	101.030000
856.200017	101.290000
858.425015	98.230000
860.653388	100.540000
862.877281	98.240000
865.102586	103.270000
867.323415	103.990000
869.547616	105.060000
871.767344	105.380000
873.988482	106.240000
876.209070	108.420000
878.427149	104.170000
880.646637	106.200000
882.861659	99.990000
885.076133	109.790000
887.290060	100.860000
889.503440	100.840000
891.716272	107.050000
893.928558	100.780000
896.138341	102.950000
898.347579	98.180000
900.556272	105.180000
902.762465	98.910000
904.970069	106.150000
907.175174	98.330000
909.379736	104.500000
911.581803	101.020000
913.785279	102.930000
915.986261	103.480000
918.186701	108.190000
920.388550	100.280000
922.584008	102.160000
924.782825	99.490000
926.977203	101.280000
929.174939	102.790000
931.368239	106.860000
933.562948	103.950000
935.755171	109.290000
937.946855	109.040000
940.138002	114.510000
942.326666	109.430000
944.514794	111.300000
946.700441	113.620000
948.889440	113.270000
951.074016	115.950000
953.258057	123.060000
955.445448	114.280000
957.624535	123.880000
959.806973	118.640000
961.988877	120.450000
964.168306	121.750000
966.345263	121.260000
968.523628	117.900000
970.703400	122.510000
972.876823	119.770000
975.053592	118.270000
977.225954	122.200000
979.399724	127.380000
981.569090	119.960000
983.741800	124.190000
985.912045	126.550000
988.081760	122.290000
990.250948	127.070000
992.415738	123.330000
994.583869	117.160000
996.747605	121.310000
998.912749	124.140000
1001.075433	120.410000
1003.237592	121.160000
1005.397294	124.520000
1007.556471	125.650000
1009.717055	127.120000
1011.875184	121.880000
1014.032790	123.890000
1016.189872	121.040000
1018.346430	123.910000
1020.498609	125.120000
1022.652195	126.720000
1024.805259	127.720000
1026.955874	128.940000
1029.107896	124.680000
1031.255544	118.320000
1033.406524	122.320000
1035.553133	123.700000
1037.699223	123.410000
1039.844795	133.390000
1041.991772	128.440000
1044.132460	128.630000
1046.276478	126.460000
1048.418055	124.780000
1050.559115	134.460000
1052.701581	130.050000
1054.837766	124.050000
1056.977278	134.350000
1059.112435	131.110000
1061.250916	129.630000
1063.385043	127.850000
1065.518657	134.120000
1067.653675	128.960000
1069.784345	130.830000
1071.916419	127.320000
1074.046064	123.810000
1076.175197	128.630000
1078.303818	126.310000
1080.431928	122.890000
1082.557612	123.230000
1084.682786	122.880000
1086.809364	125.940000
1088.931604	119.470000
1091.055249	123.010000
1093.174559	114.500000
1095.299098	122.750000
1097.417393	117.420000
1099.537092	114.520000
1101.654372	116.080000
1103.771145	120.340000
1105.887413	116.310000
1108.001264	119.150000
1110.116520	110.150000
1112.227452	115.600000
1114.341697	113.720000
1116.451621	112.270000
1118.562949	109.090000
1120.673772	112.560000
1122.780279	114.630000
1124.890095	110.360000
1126.995598	110.610000
1129.102503	109.230000
1131.203193	116.360000
1133.309095	108.040000
1135.410688	105.690000
1137.513684	111.340000
1139.616179	108.210000
1141.712467	116.050000
1143.813962	112.240000
1145.911155	108.470000
1148.007850	104.900000
1150.104046	109.990000
1152.199744	104.660000
1154.294945	106.480000
1156.387749	102.020000
1158.481955	103.200000
1160.569970	107.460000
1162.663184	107.250000
1164.750209	108.820000
1166.840533	100.290000
1168.926569	106.110000
1171.015904	103.160000
1173.099057	105.460000
1175.183612	107.790000
1177.269569	106.750000
1179.351244	101.260000
1181.434320	107.110000
1183.515011	99.770000
1185.595211	106.700000
1187.674919	107.010000
1189.754136	101.370000
1191.830971	103.430000
1193.905424	103.260000
1195.983170	109.420000
1198.056646	102.460000
1200.131522	106.630000
1202.202131	105.400000
1204.274141	105.610000
1206.343775	101.210000
1208.414810	105.220000
1210.485358	106.110000
1212.551644	102.660000
1214.619331	107.110000
1216.684646	102.070000
1218.751361	99.060000
1220.813820	100.070000
1222.879564	101.120000
1224.941054	106.870000
1227.003945	106.630000
1229.064468	106.830000
1231.124507	103.370000
1233.184063	101.770000
1235.241255	102.990000
1237.297965	103.540000
1239.352311	107.980000
1241.409939	101.060000
1243.465203	102.020000
1245.516228	99.840000
1247.568652	97.550000
1249.620596	99.980000
1251.670182	101.970000
1253.719289	104.930000
1255.767917	100.170000
1257.816067	101.140000
1259.863739	101.240000
1261.907180	102.050000
1263.953897	101.450000
1265.998260	101.190000
1268.042147	102.480000
1270.083682	101.420000
1272.122868	97.550000
1274.165327	101.460000
1276.203563	101.330000
1278.243198	101.530000
1280.282358	102.390000
1282.317299	97.300000
1284.353639	100.700000
1286.387635	104.160000
1288.423028	98.270000
1290.454209	99.290000
1292.486787	104.780000
1294.518894	103.690000
1296.548660	101.820000
1298.579823	100.190000
1300.606780	103.620000
1302.635134	99.880000
1304.659283	104.000000
1306.686698	97.490000
1308.709910	102.360000
1310.734520	103.460000
1312.756796	107.900000
1314.780468	107.060000
1316.801808	101.610000
1318.822681	102.050000
1320.843086	103.960000
1322.859298	109.610000
1324.876907	102.700000
1326.892188	103.860000
1328.910728	100.340000
1330.925079	99.900000
1332.937103	98.540000
1334.952386	102.020000
1336.963483	107.310000
1338.975977	108.190000
1340.984288	103.920000
1342.995854	104.400000
1345.001382	103.140000
1347.010165	100.350000
1349.014770	101.540000
1351.022629	104.900000
1353.030026	108.470000
1355.031392	103.550000
1357.034154	103.340000
1359.036457	106.830000
1361.038300	100.800000
1363.039683	106.880000
1365.038753	101.610000
1367.037364	103.050000
1369.035516	102.680000
1371.033211	101.690000
1373.026743	103.660000
1375.021670	103.530000
1377.016141	101.370000
1379.010155	103.570000
1381.001862	106.080000
1382.993113	99.640000
1384.982059	108.030000
1386.972401	105.080000
1388.962287	105.720000
1390.949869	102.920000
1392.936998	106.610000
1394.921825	106.270000
1396.908047	107.610000
1398.891968	108.060000
1400.875437	94.230000
1402.858454	105.370000
1404.839173	103.800000
1406.821286	102.030000
1408.801103	101.150000
1410.780468	106.160000
1412.755695	107.150000
1414.734160	101.490000
1416.710332	105.680000
1418.686054	102.220000
1420.661328	104.670000
1422.634310	103.500000
1424.606844	105.260000
1426.578930	106.180000
1428.550569	103.110000
1430.518079	102.710000
1432.490663	98.770000
1434.455441	107.820000
1436.425292	97.480000
1438.391019	104.940000
1440.358138	103.060000
1442.322974	107.140000
1444.283690	101.870000
1446.249474	104.710000
1448.209303	104.610000
1450.170526	105.390000
1452.133140	103.530000
1454.091640	104.730000
1456.049698	106.070000
1458.007314	99.510000
1459.964487	101.030000
1461.919385	105.080000
1463.875676	105.290000
1465.829692	108.870000
1467.783267	106.310000
1469.734570	102.700000
1471.687265	107.040000
1473.637689	106.500000
1475.587674	99.860000
1477.537220	109.840000
1479.484497	102.220000
1481.429506	98.900000
1483.375908	102.850000
1485.321872	104.830000
1487.267399	105.300000
1489.210660	104.700000
1491.153486	102.780000
1493.094047	103.610000
1495.036001	106.450000
1496.975692	105.910000
1498.914948	101.590000
1500.853770	111.350000
1502.790332	101.090000
1504.728285	104.480000
1506.663979	105.330000
1508.599240	100.630000
1510.532244	99.840000
1512.464817	103.980000
1514.396956	102.880000
1516.328664	108.600000
1518.258119	110.990000
1520.188964	105.150000
1522.119377	105.710000
1524.045718	104.210000
1525.973449	103.520000
1527.898931	104.300000
1529.823983	100.590000
1531.748606	105.520000
1533.672799	106.820000
1535.594746	103.580000
1537.518083	105.120000
1539.439173	103.780000
1541.358019	105.290000
1543.278255	105.090000
1545.196248	98.390000
1547.113813	105.840000
1549.029138	108.610000
1550.945852	109.990000
1552.858511	114.470000
1554.774373	112.600000
1556.687997	113.480000
1558.599382	108.810000
1560.512157	106.340000
1562.420882	111.140000
1564.330996	113.000000
1566.240687	116.190000
1568.149955	114.560000
1570.056989	113.280000
1571.961790	117.190000
1573.867979	115.470000
1575.771938	111.470000
1577.675475	128.920000
1579.578592	134.830000
1581.479479	146.150000
1583.381755	153.140000
1585.281803	164.940000
1587.183238	164.600000
1589.080640	149.980000
1590.977623	149.550000
1592.874188	132.130000
1594.772140	126.700000
1596.664258	116.800000
1598.559570	113.100000
1600.454464	113.910000
1602.347136	108.510000
1604.239391	113.610000
1606.129427	109.700000
1608.019047	111.220000
1609.908252	106.290000
1611.797041	110.550000
1613.683614	109.930000
1615.571574	113.120000
1617.455517	107.500000
1619.340847	110.360000
1621.225764	114.190000
1623.108467	105.770000
1624.992557	102.690000
1626.872635	100.680000
1628.754101	106.100000
1630.633356	105.050000
1632.513997	104.040000
1634.388834	106.440000
1636.268652	110.050000
1638.144466	103.720000
1640.019869	102.400000
1641.896658	110.580000
1643.767651	103.560000
1645.641825	105.560000
1647.512000	104.800000
1649.385356	103.720000
1651.256509	105.090000
1653.125461	100.520000
1654.995797	104.580000
1656.862141	99.820000
1658.729870	102.080000
1660.595400	105.760000
1662.462316	102.460000
1664.325242	100.180000
1666.189555	99.060000
1668.051671	101.300000
1669.913382	100.420000
1671.776479	104.930000
1673.637380	101.910000
1675.496089	101.170000
1677.354394	99.250000
1679.214083	106.790000
1681.068006	100.530000
1682.925102	103.520000
1684.781794	99.310000
1686.634511	100.870000
1688.490399	102.410000
1690.342313	104.050000
1692.193826	96.020000
1694.044938	103.850000
1695.895649	98.710000
1697.745960	101.460000
1699.594087	94.410000
1701.443598	105.170000
1703.287359	100.290000
1705.136071	98.250000
1706.979036	100.750000
1708.825168	103.470000
1710.667337	97.950000
1712.512672	104.540000
1714.352266	102.760000
1716.193244	96.840000
1718.035605	99.410000
1719.874010	104.010000
1721.713798	101.930000
1723.551410	103.480000
1725.388628	99.970000
1727.223672	104.110000
1729.060099	101.480000
1730.894353	95.030000
1732.728214	100.620000
1734.561680	101.130000
1736.391200	98.430000
1738.223880	99.370000
1740.052615	102.790000
1741.884507	100.590000
1743.712457	102.740000
1745.540015	100.690000
1747.367182	99.150000
1749.193957	103.170000
1751.020340	100.270000
1752.842787	100.580000
1754.668389	96.100000
1756.490056	99.160000
1758.313104	96.460000
1760.133992	98.080000
1761.954491	99.640000
1763.776370	98.020000
1765.592550	97.870000
1767.411883	95.590000
1769.227287	97.330000
1771.045843	104.190000
1772.860473	103.400000
1774.674716	96.760000
1776.488573	108.450000
1778.302043	96.840000
1780.113360	103.110000
1781.926057	102.690000
1783.738369	96.740000
1785.546762	105.690000
1787.356537	102.810000
1789.162397	103.760000
1790.971402	95.690000
1792.776494	97.700000
1794.582967	97.300000
1796.389056	105.640000
1798.191234	95.550000
1799.996557	99.870000
1801.797971	98.310000
1803.600765	103.010000
1805.399653	102.300000
1807.199922	99.440000
1808.999809	102.920000
1810.797554	94.210000
1812.594919	102.120000
1814.391903	103.200000
1816.188508	103.330000
1817.982973	105.770000
1819.778817	97.440000
1821.569006	101.210000
1823.364092	101.990000
1825.153525	101.050000
1826.946096	102.670000
1828.736531	100.190000
1830.524832	100.070000
1832.316267	97.060000
1834.102058	101.990000
1835.889228	102.260000
1837.674266	100.200000
1839.462438	103.540000
1841.246724	99.500000
1843.028880	98.610000
1844.812416	100.180000
1846.593823	104.560000
1848.376609	103.960000
1850.155514	105.880000
1851.935798	104.750000
1853.713957	102.550000
1855.493494	98.770000
1857.270905	107.440000
1859.046194	98.370000
1860.822860	104.650000
1862.597404	102.250000
1864.373325	100.480000
1866.143627	103.710000
1867.917056	101.590000
1869.688365	103.650000
1871.459303	108.080000
1873.231619	103.430000
1874.998321	102.980000
1876.768148	101.710000
1878.534112	100.760000
1880.303200	102.550000
1882.068426	105.960000
1883.833284	106.710000
1885.599519	101.710000
1887.361895	102.100000
1889.123903	101.410000
1890.885545	101.560000
1892.646819	99.500000
1894.407727	103.540000
1896.168268	107.080000
1897.926699	103.990000
1899.684764	100.570000
1901.440722	103.340000
1903.198056	99.440000
1904.955025	101.970000
1906.709887	102.830000
1908.462645	100.940000
1910.215038	105.240000
1911.968808	94.550000
1913.720474	100.560000
1915.470038	104.220000
1917.220977	101.600000
1918.971553	107.460000
1920.718291	101.780000
1922.466404	103.980000
1924.212419	101.830000
1925.959808	99.830000
1927.705100	100.550000
1929.448294	97.840000
1931.192863	104.710000
1932.935336	102.100000
1934.677450	99.970000
1936.419203	103.600000
1938.160596	102.320000
1939.899896	105.370000
1941.638837	106.300000
1943.377419	106.250000
1945.113910	100.880000
1946.850043	101.910000
1948.587550	102.940000
1950.321235	101.310000
1952.056295	104.970000
1953.789266	103.130000
1955.521881	105.820000
1957.254140	104.950000
1958.986042	104.210000
1960.715858	104.270000
1962.443589	103.020000
1964.172695	107.880000
1965.901445	102.020000
1967.628113	104.880000
1969.354426	107.910000
1971.082112	104.880000
1972.804262	110.400000
1974.529513	107.720000
1976.250957	110.290000
1977.975501	101.150000
1979.697966	108.050000
1981.416628	110.480000
1983.138388	100.180000
1984.856346	102.640000
1986.575677	109.440000
1988.291209	103.700000
1990.011561	102.230000
1991.728115	106.440000
1993.440872	104.920000
1995.156725	104.170000
1996.870506	106.450000
1998.583937	106.460000
2000.295297	106.180000
2002.008029	107.100000
2003.716971	103.600000
2005.429005	105.770000
2007.135530	105.120000
2008.845148	108.850000
2010.552698	102.870000
2012.259901	104.260000
2013.965038	108.880000
2015.669829	105.920000
2017.375991	107.960000
2019.078371	106.140000
2020.782122	104.320000
2022.483811	104.340000
2024.185154	105.210000
2025.886153	104.130000
2027.585090	104.760000
2029.285399	105.250000
2030.981932	105.850000
2032.679837	108.050000
2034.375684	104.740000
2036.074616	105.350000
2037.768062	109.680000
2039.462879	103.560000
2041.157354	109.190000
2042.848060	107.720000
2044.541850	105.850000
2046.231873	106.460000
2047.923267	105.030000
2049.612608	109.990000
2051.303319	110.160000
2052.990267	103.920000
2054.676876	108.270000
2056.364854	105.010000
2058.049073	105.170000
2059.734663	99.790000
2061.419912	106.160000
2063.103114	111.240000
2064.787686	110.290000
2066.466794	109.190000
2068.150689	108.990000
2069.829122	106.520000
2071.510633	106.140000
2073.188392	106.410000
2074.865815	110.500000
2076.544607	102.230000
2078.221357	102.170000
2079.896064	106.330000
2081.572142	104.060000
2083.246178	97.880000
2084.919880	100.120000
2086.593246	95.770000
2088.264573	102.530000
2089.935566	104.960000
2091.606225	103.930000
2093.276550	102.820000
2094.946541	105.580000
2096.614496	105.210000
2098.282117	104.740000
2099.947705	103.960000
2101.614661	106.230000
2103.279584	105.260000
2104.944175	111.280000
2106.606734	101.280000
2108.270661	106.240000
2109.932557	100.410000
2111.594123	111.230000
2113.255357	103.980000
2114.914563	108.990000
2116.573438	110.020000
2118.231984	106.080000
2119.890199	103.840000
2121.544692	109.840000
2123.202249	104.040000
2124.859476	108.940000
2126.512983	104.890000
2128.167857	104.690000
2129.819012	101.840000
2131.473230	104.090000
2133.123730	106.330000
2134.775598	106.990000
2136.422057	103.510000
2138.073271	100.910000
2139.720771	104.070000
2141.369638	102.550000
2143.016486	106.300000
2144.663009	101.510000
2146.309206	104.200000
2147.951695	104.500000
2149.597241	105.490000
2151.239082	105.870000
2152.883979	104.780000
2154.525170	102.870000
2156.166038	104.780000
2157.806583	107.730000
2159.445115	107.090000
2161.085013	106.330000
2162.721211	111.920000
2164.358775	104.940000
2165.996017	102.070000
2167.631249	103.890000
2169.266159	107.650000
2170.900748	102.020000
2172.535016	104.630000
2174.165590	102.670000
2175.799216	99.250000
2177.429150	105.750000
2179.060449	105.400000
2180.689743	106.850000
2182.318718	101.560000
2183.947373	105.590000
2185.575709	99.310000
2187.202043	101.640000
2188.828057	99.090000
2190.452071	98.550000
2192.077450	95.020000
2193.700828	104.020000
2195.325571	99.870000
2196.946633	105.040000
2198.567378	104.760000
2200.189487	105.420000
2201.809599	103.470000
2203.427715	103.240000
2205.045515	103.020000
2206.663000	100.840000
2208.280169	102.490000
2209.897023	101.670000
2211.513561	103.600000
2213.128107	99.390000
2214.740660	99.560000
2216.354577	103.430000
2217.966503	100.200000
2219.579792	104.900000
2221.191091	102.850000
2222.800400	103.190000
2224.411073	99.930000
2226.019757	105.210000
2227.628128	101.370000
2229.234513	101.680000
2230.842260	107.490000
2232.448022	102.370000
2234.053472	101.790000
2235.656937	103.240000
2237.261765	102.520000
2238.864609	104.150000
2240.465470	108.070000
2242.067694	103.560000
2243.667936	100.580000
2245.269540	101.660000
2246.867491	105.770000
2248.466805	107.510000
2250.064139	106.400000
2251.661165	103.820000
2253.259553	102.460000
2254.854292	112.230000
2256.447054	106.890000
2258.041179	104.900000
2259.636665	111.760000
2261.228506	107.470000
2262.820041	109.890000
2264.412938	109.700000
2266.000525	109.590000
2267.592808	107.010000
2269.179785	108.140000
2270.769789	103.760000
2272.354489	108.980000
2273.943883	111.070000
2275.527974	100.360000
2277.113427	103.490000
2278.696911	107.240000
2280.283420	103.240000
2281.866296	107.860000
2283.448869	104.180000
2285.031138	104.950000
2286.609777	105.740000
2288.191441	103.940000
2289.769476	106.120000
2291.350534	95.820000
2292.927965	101.490000
2294.503433	107.160000
2296.081923	103.510000
2297.656789	101.560000
2299.231354	101.670000
2300.805618	104.710000
2302.379583	101.450000
2303.953246	102.810000
2305.526610	106.720000
2307.096355	100.900000
2308.665801	106.200000
2310.238265	102.570000
2311.805455	103.760000
2313.375663	99.420000
2314.942256	101.090000
2316.510209	100.820000
2318.076206	105.530000
2319.641906	102.460000
2321.207308	106.470000
2322.770757	104.530000
2324.335565	108.820000
2325.896765	116.790000
2327.460979	120.540000
2329.019931	122.370000
2330.581897	117.580000
2332.141913	109.120000
2333.701633	103.380000
2335.259405	105.190000
2336.816881	102.800000
2338.374063	102.330000
2339.929297	105.720000
2341.484238	103.480000
2343.038884	104.600000
2344.593237	107.740000
2346.147296	102.130000
2347.701062	102.570000
2349.252883	106.410000
2350.802762	108.550000
2352.355648	103.580000
2353.903291	98.940000
2355.453943	101.920000
2357.001003	108.210000
2358.549421	99.770000
2360.097548	106.470000
2361.642086	100.800000
2363.187982	99.920000
2364.731940	96.660000
2366.277254	101.190000
2367.818985	102.860000
2369.362072	100.860000
2370.903223	105.190000
2372.444085	106.100000
2373.984658	106.060000
2375.524942	104.270000
2377.064937	104.460000
2378.601354	106.270000
2380.140772	99.440000
2381.676612	105.180000
2383.213810	106.360000
2384.747432	103.950000
2386.284054	107.920000
2387.818746	107.140000
2389.351508	100.540000
2390.883983	104.000000
2392.414530	106.460000
2393.948075	108.520000
2395.476409	101.600000
2397.006099	111.400000
2398.535504	106.580000
2400.064624	115.300000
2401.593458	107.370000
2403.117088	105.990000
2404.645353	108.170000
2406.168416	107.370000
2407.696112	106.110000
2409.216969	104.230000
2410.742458	106.330000
2412.264388	109.380000
2413.787672	114.680000
2415.309036	104.610000
2416.828480	106.940000
2418.349279	101.420000
2419.868159	107.750000
2421.386758	109.530000
2422.903439	108.100000
2424.421474	106.250000
2425.939228	104.890000
2427.453430	104.810000
2428.967353	92.370000
2430.480995	110.750000
2431.995992	107.970000
2433.507440	104.170000
2435.020242	100.700000
2436.531132	99.580000
2438.041743	104.140000
2439.550442	109.050000
2441.062127	100.510000
2442.570269	105.750000
2444.078133	105.490000
2445.585718	105.780000
2447.089764	107.500000
2448.596794	101.130000
2450.101916	110.370000
2451.606761	106.310000
2453.109699	108.830000
2454.612361	101.840000
2456.114746	108.730000
2457.615226	106.790000
2459.117059	103.790000
2460.616987	106.320000
2462.116640	103.090000
2463.616018	104.150000
2465.113493	106.410000
2466.609066	99.410000
2468.107619	106.900000
2469.602644	97.280000
2471.099021	103.540000
2472.591872	97.960000
2474.086076	101.580000
2475.580006	104.740000
2477.070412	106.090000
2478.563796	105.820000
2480.055282	98.980000
2481.544871	103.910000
2483.034188	101.700000
2484.521609	109.440000
2486.012006	107.730000
2487.498885	103.420000
2488.987115	95.690000
2490.471828	104.150000
2491.956272	100.920000
2493.442066	97.340000
2494.925969	101.730000
2496.411222	102.850000
2497.891342	99.960000
2499.374435	101.150000
2500.855637	106.660000
2502.336570	108.220000
2503.815614	103.660000
2505.294389	100.750000
2506.772896	107.950000
2508.251135	108.390000
2509.729105	104.400000
2511.203570	106.630000
2512.681005	106.330000
2514.154936	99.710000
2515.630217	101.330000
2517.105231	101.630000
2518.576744	108.650000
2520.049608	108.190000
2521.520589	102.140000
2522.992920	102.430000
2524.460137	102.210000
2525.930321	104.200000
2527.398624	103.550000
2528.866662	107.080000
2530.334435	103.450000
2531.801943	103.310000
2533.269186	103.240000
2534.732937	99.890000
2536.198038	103.400000
2537.661262	104.000000
2539.125835	100.380000
2540.586920	108.780000
2542.049354	106.000000
2543.511525	103.150000
2544.970210	110.310000
2546.433466	105.820000
2547.891626	106.270000
2549.351136	101.350000
2550.805551	103.390000
2552.264537	101.230000
2553.721651	106.340000
2555.176893	109.410000
2556.631875	106.930000
2558.084988	105.650000
2559.539448	99.470000
2560.992040	103.160000
2562.444372	103.980000
2563.894837	107.810000
2565.348257	108.450000
2566.796595	100.810000
2568.247888	107.060000
2569.697316	106.550000
2571.143271	106.260000
2572.592181	109.110000
2574.037621	113.150000
2575.484408	109.980000
2576.929332	109.740000
2578.373999	104.510000
2579.820013	105.610000
2581.262561	110.250000
2582.706456	107.500000
2584.146885	105.030000
2585.588663	107.800000
2587.028581	105.090000
2588.469846	102.530000
2589.907649	106.500000
2591.348402	109.350000
2592.784093	104.120000
2594.222732	105.180000
2595.659515	105.230000
2597.094442	101.720000
2598.532316	100.300000
2599.965133	106.640000
2601.399297	110.490000
2602.831607	107.140000
2604.265263	101.380000
2605.697066	104.410000
2607.128615	107.230000
2608.559912	104.260000
2609.989356	110.030000
2611.418548	104.260000
2612.845890	105.080000
2614.274577	104.820000
2615.703013	103.990000
2617.128001	108.040000
2618.554336	106.980000
2619.978822	107.930000
2621.404654	108.910000
2622.827042	103.670000
2624.250776	107.060000
2625.672663	107.350000
2627.094300	108.850000
2628.514093	105.910000
2629.935231	102.650000
2631.356119	103.520000
2632.773568	100.720000
2634.193958	103.030000
2635.610910	105.910000
2637.027613	105.130000
2638.444068	102.940000
2639.860275	101.410000
2641.276234	106.230000
2642.690352	103.180000
2644.104222	107.010000
2645.516253	110.980000
2646.929629	107.540000
2648.339575	106.450000
2649.752457	110.550000
2651.161910	104.050000
2652.571117	104.440000
2653.978488	118.960000
2655.388793	102.240000
2656.797263	108.070000
2658.203897	114.430000
2659.610286	107.540000
2661.014841	108.450000
2662.420740	114.400000
2663.824806	113.800000
2665.228627	111.410000
2666.632204	111.880000
2668.033950	116.780000
2669.437039	119.620000
2670.836710	115.510000
2672.237725	117.370000
2673.635324	118.730000
2675.035852	115.990000
2676.432966	123.040000
2677.831423	122.430000
2679.228053	122.430000
2680.624440	128.740000
2682.020585	126.580000
2683.414904	130.120000
2684.810566	133.880000
2686.202819	134.000000
2687.596414	135.580000
2688.988185	137.000000
2690.381299	136.730000
2691.772589	139.690000
2693.162056	134.220000
2694.551283	133.190000
2695.940271	132.510000
2697.330600	126.330000
2698.715946	129.410000
2700.104215	126.320000
2701.490664	128.520000
2702.876874	121.120000
2704.262845	123.060000
2705.645418	121.410000
2707.029333	117.620000
2708.413010	116.070000
2709.796448	115.730000
2711.176491	113.990000
2712.557876	115.840000
2713.937446	112.160000
2715.318356	119.530000
2716.697452	113.390000
2718.074734	115.290000
2719.453357	112.410000
2720.830166	115.560000
2722.206740	106.300000
2723.583078	110.550000
2724.957604	111.790000
2726.333471	114.290000
2727.705952	109.900000
2729.081348	108.230000
2730.451784	110.160000
2731.823561	108.900000
2733.195103	115.360000
2734.564837	112.750000
2735.935911	107.880000
2737.305178	106.890000
2738.674211	107.340000
2740.041438	106.990000
2741.408431	104.380000
2742.775192	103.340000
2744.141720	105.620000
2745.506444	111.070000
2746.870935	106.580000
2748.235195	109.280000
2749.599222	107.870000
2750.963018	100.300000
2752.323440	106.880000
2753.686772	107.670000
2755.045162	103.440000
2756.406462	100.400000
2757.764392	112.340000
2759.125230	107.330000
2760.484268	106.120000
2761.839939	106.070000
2763.198517	101.780000
2764.553728	103.360000
2765.908710	105.730000
2767.261895	100.280000
2768.617987	103.680000
2769.970715	107.500000
2771.323215	102.720000
2772.675486	103.710000
2774.029095	102.420000
2775.379344	105.480000
2776.727798	102.890000
2778.079157	102.030000
2779.427158	102.010000
2780.776496	109.090000
2782.124042	103.490000
2783.471362	105.330000
2784.818455	102.470000
2786.163756	101.650000
2787.508832	102.280000
2788.853682	103.560000
2790.198306	103.690000
2791.539578	100.860000
2792.882187	103.540000
2794.224572	99.930000
2795.566731	107.350000
2796.905541	108.270000
2798.247251	105.650000
2799.585612	99.060000
2800.925311	99.250000
2802.263225	110.800000
2803.599353	102.810000
2804.935259	102.930000
2806.272502	104.830000
2807.607961	109.140000
2808.943197	104.440000
2810.276650	109.090000
2811.611440	107.130000
2812.942890	107.330000
2814.277235	102.610000
2815.606682	104.570000
2816.937465	108.080000
2818.268028	104.580000
2819.596811	110.830000
2820.926930	108.630000
2822.255271	106.390000
2823.583391	102.710000
2824.909733	106.840000
2826.237412	105.620000
2827.561757	105.570000
2828.887439	108.800000
2830.211345	103.950000
2831.535031	107.140000
2832.860053	99.660000
2834.181746	103.830000
2835.503220	99.400000
2836.824475	106.440000
2838.145511	101.140000
2839.464774	102.410000
2840.785373	107.320000
2842.104200	107.140000
2843.422810	104.070000
2844.739648	106.590000
2846.056269	101.920000
2847.372673	109.400000
2848.687307	105.390000
2850.003277	106.240000
2851.315926	102.660000
2852.629910	104.090000
2853.943678	105.800000
2855.257229	105.540000
2856.569014	109.030000
2857.879032	104.470000
2859.190385	98.860000
2860.498423	104.260000
2861.807795	104.010000
2863.116952	107.730000
2864.425895	103.750000
2865.733073	99.750000
2867.038489	101.100000
2868.345238	101.840000
2869.650226	105.210000
2870.954999	106.450000
2872.258012	100.390000
2873.563905	108.340000
2874.864944	106.970000
2876.167317	106.880000
2877.467930	101.790000
2878.769877	102.490000
2880.071610	101.770000
2881.370040	110.590000
2882.669803	104.570000
2883.967809	99.270000
2885.265603	105.750000
2886.561641	100.040000
2887.859012	105.470000
2889.154627	104.880000
2890.450031	99.430000
2891.745224	101.020000
2893.037120	95.240000
2894.331892	106.790000
2895.623367	101.740000
2896.916175	105.380000
2898.208773	93.850000
2899.498077	105.340000
2900.788713	96.700000
2902.077598	100.480000
2903.367815	104.950000
2904.654741	100.140000
2905.942999	95.280000
2907.229508	100.070000
2908.515808	104.660000
2909.801900	103.670000
2911.086245	99.850000
2912.373460	103.790000
2913.655849	102.510000
2914.939570	103.260000
2916.221545	107.750000
2917.503312	99.280000
2918.783334	104.220000
2920.066227	99.400000
2921.347374	101.670000
2922.625239	103.010000
2923.905973	105.870000
2925.183426	97.830000
2926.460673	97.850000
2927.736178	101.190000
2929.014551	102.990000
2930.288110	113.820000
2931.564536	97.700000
2932.839221	98.690000
2934.112165	102.850000
2935.386441	100.710000
2936.658977	101.130000
2937.931308	101.180000
2939.200367	102.310000
2940.472291	99.460000
2941.742477	100.410000
2943.012459	102.680000
2944.282238	98.890000
2945.550281	103.680000
2946.816587	94.070000
2948.082691	102.180000
2949.350126	96.560000
2950.615825	101.980000
2951.881323	98.760000
2953.146618	96.270000
2954.408648	102.970000
2955.672008	98.950000
2956.935167	97.650000
2958.196594	102.240000
2959.459350	101.340000
2960.720374	95.530000
2961.979668	98.300000
2963.238761	94.660000
2964.497655	95.970000
2965.756348	90.560000
2967.014841	98.870000
2968.271604	102.400000
2969.528169	98.840000
2970.783005	100.460000
2972.039171	102.160000
2973.292082	102.620000
2974.546321	103.080000
2975.800362	101.880000
2977.052677	96.070000
2978.304794	102.160000
2979.555186	100.050000
2980.808433	99.520000
2982.056903	97.620000
2983.308228	104.440000
2984.556303	103.170000
2985.804181	97.540000
2987.051863	100.300000
2988.299347	101.690000
2989.545110	94.390000
2990.790677	94.870000
2992.037571	92.270000
2993.281221	99.890000
2994.526199	101.860000
2995.767933	97.320000
2997.012519	93.070000
2998.255386	101.420000
2999.495012	92.230000
3000.737488	97.130000
3001.976724	101.450000
3003.217288	100.150000
3004.456135	98.320000
3005.694788	103.430000
3006.931725	93.840000
3008.169990	98.640000
3009.406539	97.070000
3010.642895	102.320000
3011.879057	99.500000
3013.113505	100.870000
3014.347760	101.750000
3015.581823	99.010000
3016.814172	100.140000
3018.044810	93.340000
3019.278294	94.990000
3020.510067	96.490000
3021.740129	100.020000
3022.969998	99.220000
3024.198158	98.070000
3025.427645	100.210000
3026.655422	97.240000
3027.883008	101.150000
3029.111920	95.740000
3030.336090	96.130000
3031.563104	94.100000
3032.786893	90.970000
3034.012009	97.540000
3035.235418	93.190000
3036.458637	93.450000
3037.680151	88.510000
3038.904506	95.370000
3040.124126	93.950000
3041.345072	98.340000
3042.565829	101.120000
3043.784882	94.600000
3045.005260	97.020000
3046.222422	95.150000
3047.440910	98.300000
3048.657695	95.410000
3049.874293	101.500000
3051.090702	98.150000
3052.303898	97.040000
3053.519933	96.210000
3054.732755	99.190000
3055.948413	94.520000
3057.159350	95.560000
3058.371611	93.740000
3059.583685	101.180000
3060.795573	98.000000
3062.005764	92.760000
3063.215768	95.850000
3064.425586	94.960000
3065.633708	96.210000
3066.841645	94.070000
3068.047886	94.300000
3069.255452	98.820000
3070.461323	98.845000
3071.667009	98.870000
3072.872511	91.660000
3074.076319	95.190000
3075.281451	92.660000
3076.484890	98.660000
3077.686638	92.020000
3078.888201	93.900000
3080.089581	93.900000
3081.290777	92.050000
3082.490283	96.630000
3083.689606	94.580000
3084.890252	92.120000
3086.089208	93.670000
3087.284970	96.790000
3088.483560	93.290000
3089.678958	95.800000
3090.875678	95.730000
3092.069206	89.800000
3093.265562	97.150000
3094.460231	92.970000
3095.651710	87.940000
3096.847521	87.740000
3098.038637	91.140000
3099.231077	97.730000
3100.420329	91.620000
3101.612406	87.920000
3102.802800	92.050000
3103.990008	90.100000
3105.178538	95.590000
3106.368391	93.550000
3107.555060	93.460000
3108.741548	90.680000
3109.927858	87.690000
3111.115489	87.680000
3112.299938	91.930000
3113.482708	89.580000
3114.668300	87.540000
3115.852213	89.860000
3117.034447	87.170000
3118.216502	84.760000
3119.398379	89.520000
3120.580078	88.130000
3121.760100	88.690000
3122.938445	84.180000
3124.119610	90.320000
3125.297600	92.240000
3126.475413	86.130000
3127.653049	88.750000
3128.829010	93.090000
3130.004795	89.110000
3131.181901	91.540000
3132.357332	84.250000
3133.531090	87.770000
3134.703175	86.320000
3135.876582	93.630000
3137.049812	86.390000
3138.221371	86.820000
3139.394250	92.300000
3140.563962	95.830000
3141.734995	91.860000
3142.904358	89.060000
3144.072050	85.610000
3145.242558	93.090000
3146.408408	88.810000
3147.578566	91.440000
3148.744068	91.570000
3149.909395	90.420000
3151.074549	93.080000
3152.239530	81.580000
3153.405830	95.920000
3154.567478	84.240000
3155.730445	92.210000
3156.893240	90.260000
3158.055862	86.430000
3159.216818	88.590000
3160.377603	80.530000
3161.538215	84.290000
3162.697163	83.010000
3163.855940	91.670000
3165.014544	86.080000
3166.172977	85.790000
3167.331239	82.870000
3168.487838	85.470000
3169.642776	88.350000
3170.799033	78.600000
3171.953629	85.920000
3173.108055	84.780000
3174.260821	79.250000
3175.413416	83.300000
3176.565842	82.710000
3177.718098	87.000000
3178.870183	83.990000
3180.019122	78.090000
3181.170869	93.400000
3182.320957	85.850000
3183.469389	84.440000
3184.617651	88.550000
3185.765745	84.600000
3186.913670	85.650000
3188.059939	83.310000
3189.206040	82.910000
3190.350487	86.500000
3191.494766	82.290000
3192.638877	87.530000
3193.784305	89.280000
3194.926595	82.970000
3196.068718	83.120000
3197.210673	86.000000
3198.352461	91.720000
3199.494082	85.440000
3200.632568	84.430000
3201.772371	83.840000
3202.913491	86.040000
3204.051478	87.440000
3205.187815	86.810000
3206.323986	84.450000
3207.461474	88.110000
3208.597314	85.820000
3209.734471	86.100000
3210.867015	87.700000
3212.003841	83.040000
3213.136055	82.130000
3214.269586	93.240000
3215.402953	81.780000
3216.533192	87.990000
3217.666229	88.510000
3218.796140	85.790000
3219.927367	86.170000
3221.055470	77.200000
3222.186369	83.130000
3223.315624	83.000000
3224.443236	81.850000
3225.567725	84.020000
3226.696490	77.530000
3227.822133	82.970000
3228.947613	79.480000
3230.071452	80.960000
3231.198086	80.040000
3232.320122	81.180000
3233.443474	83.440000
3234.566664	83.500000
3235.689691	77.220000
3236.811080	81.650000
3237.932306	88.880000
3239.051894	80.690000
3240.171321	78.410000
3241.289111	85.210000
3242.409692	86.460000
3243.527160	86.220000
3244.644467	82.310000
3245.761614	85.200000
3246.877124	84.970000
3247.993950	83.420000
3249.107666	84.100000
3250.224171	85.440000
3251.339042	80.160000
3252.450803	85.630000
3253.562406	88.230000
3254.675324	80.780000
3255.788082	84.860000
3256.897734	86.070000
3258.008701	84.190000
3259.119509	79.370000
3260.228685	88.950000
3261.336230	89.240000
3262.445090	86.830000
3263.553792	81.960000
3264.659391	84.310000
3265.766304	79.700000
3266.871588	84.520000
3267.978186	88.420000
3269.081684	83.950000
3270.186496	81.610000
3271.291151	80.900000
3272.392708	82.360000
3273.494108	85.610000
3274.596822	86.620000
3275.699380	81.210000
3276.798841	82.560000
3277.901086	86.520000
3279.000235	76.170000
3280.097760	81.520000
3281.195129	81.030000
3282.295280	81.180000
3283.392339	80.960000
3284.489242	85.250000
3285.585990	83.920000
3286.678179	79.950000
3287.774618	82.860000
3288.869434	83.040000
3289.964096	81.700000
3291.057136	83.170000
3292.150021	82.680000
3293.241286	85.520000
3294.333864	80.260000
3295.424822	80.870000
3296.514160	83.400000
3297.603345	78.790000
3298.693842	85.530000
3299.781256	84.280000
3300.868516	83.320000
3301.957089	83.330000
3303.045509	78.270000
3304.129383	78.310000
3305.217498	84.880000
3306.302531	77.520000
3307.385949	80.470000
3308.470679	77.830000
3309.553793	78.130000
3310.638220	85.040000
3311.719568	82.840000
3312.802228	83.230000
3313.883274	85.160000
3314.964168	84.680000
3316.043450	85.210000
3317.122581	86.610000
3318.203024	78.360000
3319.280392	81.000000
3320.359072	77.070000
3321.436140	80.280000
3322.513059	78.790000
3323.588366	78.670000
3324.663524	75.440000
3325.739993	84.970000
3326.813392	78.520000
3327.886641	80.040000
3328.961202	79.800000
3330.034154	82.320000
3331.105497	76.750000
3332.178151	82.020000
3333.247739	77.820000
3334.318637	78.480000
3335.387928	77.440000
3336.458529	84.590000
3337.527525	79.610000
3338.594914	77.710000
3339.660698	82.890000
3340.730708	83.380000
3341.797655	78.230000
3342.861540	81.820000
3343.928192	80.290000
3344.993241	76.130000
3346.056686	77.340000
3347.119985	77.750000
3348.183137	78.550000
3349.246143	78.070000
3350.309003	81.840000
3351.370261	82.830000
3352.428462	83.500000
3353.490883	73.770000
3354.550249	81.260000
3355.609469	77.090000
3356.669998	78.850000
3357.726019	74.260000
3358.784803	77.210000
3359.839080	77.020000
3360.896121	78.420000
3361.951563	81.740000
3363.008315	84.750000
3364.063468	82.400000
3365.117024	80.110000
3366.168984	77.860000
3367.223705	78.960000
3368.275377	82.630000
3369.326906	81.970000
3370.379743	82.450000
3371.429533	78.370000
3372.480632	79.480000
3373.528684	76.980000
3374.579497	75.630000
3375.627264	80.460000
3376.674889	82.300000
3377.722372	75.640000
3378.768262	77.440000
3379.815460	82.850000
3380.859616	79.370000
3381.906530	77.490000
3382.951852	79.980000
3383.994133	74.450000
3385.036273	79.880000
3386.079722	77.600000
3387.123029	74.950000
3388.164746	81.780000
3389.206323	85.480000
3390.247758	84.530000
3391.287605	82.350000
3392.325863	77.260000
3393.365429	77.480000
3394.404855	83.070000
3395.442693	81.420000
3396.478944	81.860000
3397.515056	75.030000
3398.552475	79.830000
3399.586861	77.930000
3400.622554	82.360000
3401.658108	80.050000
3402.690631	77.460000
3403.725906	77.240000
3404.758152	77.520000
3405.790259	81.260000
3406.820782	77.970000
3407.852612	77.440000
3408.884304	76.710000
3409.912968	78.310000
3410.941495	80.530000
3411.971328	77.350000
3413.001024	85.610000
3414.027694	77.240000
3415.055670	78.330000
3416.080623	77.200000
3417.108325	84.190000
3418.133003	83.210000
3419.158989	79.410000
3420.183394	73.230000
3421.207663	79.480000
3422.230353	76.060000
3423.252907	78.200000
3424.276767	78.390000
3425.297607	76.560000
3426.318311	72.410000
3427.340322	82.800000
3428.359314	76.750000
3429.378170	77.960000
3430.398333	75.250000
3431.415479	76.300000
