-117.841134	0.100000
-115.171534	4.030000
-112.504869	0.930000
-109.838956	7.510000
-107.175976	6.240000
-104.511565	7.740000
-101.850085	-0.330000
-99.187176	1.790000
-96.529373	3.320000
-93.870141	-0.580000
-91.211657	2.500000
-88.556098	2.150000
-85.899109	-0.290000
-83.247219	0.280000
-80.593899	2.640000
-77.943498	1.730000
-75.291669	-0.010000
-72.644930	-2.920000
-69.996761	3.900000
-67.349335	2.020000
-64.704824	0.890000
-62.058883	4.380000
-59.418024	0.210000
-56.775736	6.160000
-54.136357	-0.950000
-51.495548	2.310000
-48.855480	4.670000
-46.220485	6.010000
-43.584060	3.640000
-40.950538	6.850000
-38.315588	2.520000
-35.685703	7.010000
-33.052226	2.950000
-30.423811	7.690000
-27.796130	4.730000
-25.167020	6.300000
-22.542967	2.830000
-19.915325	9.640000
-17.292737	8.610000
-14.670879	14.980000
-12.049752	26.690000
-9.429356	69.690000
-6.811847	204.630000
-4.192910	693.460000
-1.576858	1993.510000
1.038465	2697.550000
3.653060	1310.230000
6.264774	141.540000
8.877916	22.650000
11.486024	16.820000
14.097713	2.210000
16.704373	8.640000
19.312460	7.290000
21.919823	8.390000
24.522161	4.680000
27.128077	7.750000
29.728971	1.160000
32.331293	2.250000
34.928597	-2.000000
37.529478	10.070000
40.125343	3.130000
42.722637	5.390000
45.319211	3.170000
47.910776	5.500000
50.503769	1.130000
53.093901	3.030000
55.685460	3.880000
58.274161	2.140000
60.864288	0.470000
63.449416	3.830000
66.035972	3.480000
68.621814	8.330000
71.204802	6.130000
73.789216	-1.550000
76.366502	3.150000
78.947354	5.900000
81.525357	-1.960000
84.102650	5.120000
86.681369	5.270000
89.255106	0.070000
91.830271	4.850000
94.402592	5.590000
96.974205	-1.240000
99.542978	7.430000
102.113178	2.360000
104.680539	-2.490000
107.249327	2.380000
109.815278	2.400000
112.378394	4.680000
114.945066	5.790000
117.502516	1.480000
120.065653	8.630000
122.623829	6.920000
125.185560	19.720000
127.742334	21.060000
130.300534	25.310000
132.853782	41.940000
135.406332	55.350000
137.962432	74.290000
140.513584	103.170000
143.064039	119.030000
145.613796	130.630000
148.160734	139.830000
150.706977	154.720000
153.254645	153.270000
155.801617	157.080000
158.343654	153.070000
160.884997	151.410000
163.425647	158.770000
165.967723	152.560000
168.506987	147.070000
171.043442	150.350000
173.579207	159.420000
176.116397	152.650000
178.652896	148.110000
181.186589	151.780000
183.717478	149.510000
186.247679	148.930000
188.779306	150.340000
191.308131	149.210000
193.834157	144.100000
196.359497	146.810000
198.886262	146.000000
201.410231	148.580000
203.933515	147.660000
206.456113	147.510000
208.975919	148.200000
211.495042	152.530000
214.013483	147.290000
216.533347	149.740000
219.046210	148.370000
221.562604	154.450000
224.078316	148.480000
226.589138	154.000000
229.101385	153.300000
231.610849	148.340000
234.119635	150.720000
236.627743	156.600000
239.137275	150.820000
241.641926	154.240000
244.145901	155.620000
246.651300	159.660000
249.151824	155.490000
251.655871	161.790000
254.152948	158.010000
256.653548	160.420000
259.151376	162.070000
261.648531	159.210000
264.145013	159.820000
266.636632	159.570000
269.131771	162.760000
271.624143	158.300000
274.115845	159.580000
276.604784	166.480000
279.095146	159.240000
281.582747	160.910000
284.067588	160.210000
286.555944	164.940000
289.037360	166.180000
291.522290	160.060000
294.002375	159.900000
296.485972	164.960000
298.964726	168.060000
301.444903	169.220000
303.922329	161.730000
306.399091	167.450000
308.875189	172.530000
311.348540	170.710000
313.821228	178.680000
316.293255	194.820000
318.764621	196.300000
321.233242	218.160000
323.701204	207.030000
326.170589	195.660000
328.635151	188.710000
331.103217	184.880000
333.566463	174.100000
336.029051	174.870000
338.490983	169.530000
340.952258	179.620000
343.410798	174.490000
345.870762	177.210000
348.327992	179.120000
350.784568	176.040000
353.240490	172.900000
355.693682	173.240000
358.148297	172.210000
360.598110	169.510000
363.051419	171.450000
365.499929	171.920000
367.947789	177.710000
370.397071	173.290000
372.841559	174.470000
375.287469	174.700000
377.732729	169.610000
380.175271	172.340000
382.617165	168.590000
385.058412	178.850000
387.496943	179.340000
389.936895	168.240000
392.374134	172.890000
394.808662	171.460000
397.246677	172.380000
399.679915	169.720000
402.114574	174.160000
404.544461	175.430000
406.977833	173.910000
409.406435	180.040000
411.834395	172.070000
414.263777	174.870000
416.688393	175.970000
419.114431	170.430000
421.539828	182.480000
423.964585	179.380000
426.384584	169.730000
428.806003	178.910000
431.224727	177.040000
433.644871	184.650000
436.062320	175.050000
438.481189	178.040000
440.897365	172.280000
443.308793	175.230000
445.723698	178.320000
448.135914	176.560000
450.547495	172.300000
452.958442	178.670000
455.366703	172.580000
457.774331	175.250000
460.181327	172.350000
462.587692	169.160000
464.991374	165.560000
467.394426	173.860000
469.796848	168.670000
472.198640	171.840000
474.597754	172.450000
476.998288	167.870000
479.398193	165.120000
481.793376	167.970000
484.192025	168.900000
486.585953	169.680000
488.979256	171.300000
491.371934	171.120000
493.763986	168.290000
496.157456	163.280000
498.546214	159.800000
500.932306	156.340000
503.319818	161.810000
505.706707	162.090000
508.090932	169.300000
510.476575	181.310000
512.859557	201.160000
515.239878	232.260000
517.621618	257.030000
520.000699	257.690000
522.381198	247.830000
524.759041	223.440000
527.134227	202.930000
529.508797	195.840000
531.884784	179.260000
534.258119	167.420000
536.632871	163.070000
539.002937	162.300000
541.372389	157.210000
543.743258	156.140000
546.109446	145.990000
548.477053	149.560000
550.842015	147.240000
553.206363	143.050000
555.570098	139.830000
557.935251	140.210000
560.295732	145.160000
562.657631	133.980000
565.016889	132.590000
567.373509	141.020000
569.733575	130.560000
572.086949	133.750000
574.443768	133.650000
576.797952	137.710000
579.151527	129.340000
581.504495	132.870000
583.854830	136.100000
586.206583	130.650000
588.551659	133.470000
590.902198	128.300000
593.246065	130.510000
595.595393	133.910000
597.940072	129.910000
600.282127	127.610000
602.625599	125.400000
604.966448	131.580000
607.306694	123.310000
609.644320	132.630000
611.985381	126.610000
614.321805	131.030000
616.659645	128.840000
618.994868	129.160000
621.327475	124.360000
623.661498	130.920000
625.992907	122.090000
628.323718	124.790000
630.653931	125.590000
632.983547	124.260000
635.308539	125.930000
637.638973	128.810000
639.964786	127.940000
642.287991	131.820000
644.612613	125.480000
646.934629	125.780000
649.256051	124.530000
651.574870	119.660000
653.895106	123.710000
656.214748	124.910000
658.531789	123.040000
660.848238	116.670000
663.162089	124.170000
665.477356	124.960000
667.790026	124.650000
670.104111	121.550000
672.413596	118.010000
674.724497	120.920000
677.032805	116.410000
679.340525	125.110000
681.649659	122.390000
683.954201	116.190000
686.258157	120.220000
688.561527	120.160000
690.866311	112.200000
693.166508	124.330000
695.468121	119.230000
697.769148	119.300000
700.065594	117.430000
702.363455	117.640000
704.660732	117.790000
706.957426	117.740000
709.249544	115.520000
711.545073	118.980000
713.836028	112.260000
716.128398	114.700000
718.418193	120.640000
720.707407	117.880000
722.996042	116.810000
725.282104	118.090000
727.569581	116.460000
729.854486	117.480000
732.138814	123.730000
734.420573	120.200000
736.703746	123.550000
738.986342	123.730000
741.264382	120.550000
743.543837	123.850000
745.822715	119.990000
748.101019	122.100000
750.374773	125.720000
752.649940	120.270000
754.924534	127.650000
757.196569	124.750000
759.470017	121.480000
761.740907	126.690000
764.009241	123.380000
766.278988	123.720000
768.546180	123.700000
770.812803	129.740000
773.078855	124.730000
775.342356	125.670000
777.607270	132.200000
779.871614	125.710000
782.131429	127.260000
784.392656	131.040000
786.653316	130.190000
788.911430	126.100000
791.166999	129.510000
793.425959	127.260000
795.678419	123.020000
797.936247	132.730000
800.189556	130.090000
802.440325	130.040000
804.692506	127.570000
806.942148	132.570000
809.193202	121.950000
811.439746	127.120000
813.687701	124.030000
815.933122	129.680000
818.179954	120.390000
820.426225	124.080000
822.667991	126.030000
824.913141	129.610000
827.151818	121.740000
829.393877	127.980000
831.631438	121.030000
833.870411	125.560000
836.106857	125.860000
838.344714	123.460000
840.580046	127.130000
842.812855	129.090000
845.047074	120.480000
847.278772	119.080000
849.509915	122.930000
851.740503	123.600000
853.970537	123.160000
856.200017	123.460000
858.425015	122.430000
860.653388	122.590000
862.877281	120.760000
865.102586	124.870000
867.323415	126.870000
869.547616	126.090000
871.767344	124.010000
873.988482	124.760000
876.209070	124.760000
878.427149	124.210000
880.646637	127.600000
882.861659	122.180000
885.076133	126.620000
887.290060	130.590000
889.503440	125.710000
891.716272	128.250000
893.928558	121.840000
896.138341	128.030000
898.347579	123.000000
900.556272	118.680000
902.762465	120.380000
904.970069	124.590000
907.175174	120.630000
909.379736	125.270000
911.581803	124.380000
913.785279	127.920000
915.986261	122.180000
918.186701	123.650000
920.388550	121.640000
922.584008	123.590000
924.782825	120.870000
926.977203	123.140000
929.174939	123.280000
931.368239	131.720000
933.562948	127.950000
935.755171	132.030000
937.946855	130.510000
940.138002	140.930000
942.326666	129.030000
944.514794	131.880000
946.700441	136.610000
948.889440	135.120000
951.074016	130.890000
953.258057	141.770000
955.445448	135.910000
957.624535	143.510000
959.806973	144.150000
961.988877	146.090000
964.168306	144.750000
966.345263	143.990000
968.523628	135.520000
970.703400	141.590000
972.876823	140.180000
975.053592	142.820000
977.225954	142.330000
979.399724	150.210000
981.569090	136.710000
983.741800	147.030000
985.912045	147.630000
988.081760	142.820000
990.250948	149.280000
992.415738	148.150000
994.583869	140.180000
996.747605	146.530000
998.912749	144.210000
1001.075433	143.060000
1003.237592	143.210000
1005.397294	146.700000
1007.556471	138.600000
1009.717055	147.800000
1011.875184	147.200000
1014.032790	150.660000
1016.189872	144.010000
1018.346430	146.940000
1020.498609	144.050000
1022.652195	149.640000
1024.805259	145.780000
1026.955874	152.230000
1029.107896	145.710000
1031.255544	143.580000
1033.406524	144.680000
1035.553133	153.810000
1037.699223	144.570000
1039.844795	149.780000
1041.991772	145.420000
1044.132460	151.250000
1046.276478	146.760000
1048.418055	152.500000
1050.559115	150.200000
1052.701581	152.290000
1054.837766	152.580000
1056.977278	151.450000
1059.112435	143.800000
1061.250916	152.860000
1063.385043	150.670000
1065.518657	154.620000
1067.653675	149.570000
1069.784345	147.710000
1071.916419	151.640000
1074.046064	150.660000
1076.175197	151.910000
1078.303818	146.360000
1080.431928	145.290000
1082.557612	144.040000
1084.682786	142.930000
1086.809364	143.000000
1088.931604	141.730000
1091.055249	146.060000
1093.174559	139.880000
1095.299098	144.980000
1097.417393	133.610000
1099.537092	136.750000
1101.654372	141.940000
1103.771145	136.690000
1105.887413	134.570000
1108.001264	136.240000
1110.116520	134.460000
1112.227452	139.760000
1114.341697	134.570000
1116.451621	138.180000
1118.562949	132.160000
1120.673772	135.990000
1122.780279	134.080000
1124.890095	131.580000
1126.995598	129.290000
1129.102503	130.490000
1131.203193	131.310000
1133.309095	131.850000
1135.410688	131.290000
1137.513684	134.690000
1139.616179	126.360000
1141.712467	139.150000
1143.813962	128.370000
1145.911155	129.050000
1148.007850	131.100000
1150.104046	129.660000
1152.199744	122.260000
1154.294945	128.780000
1156.387749	119.990000
1158.481955	124.270000
1160.569970	131.810000
1162.663184	129.900000
1164.750209	128.420000
1166.840533	131.740000
1168.926569	131.400000
1171.015904	128.340000
1173.099057	125.860000
1175.183612	128.510000
1177.269569	129.830000
1179.351244	121.420000
1181.434320	129.220000
1183.515011	126.060000
1185.595211	124.390000
1187.674919	129.080000
1189.754136	125.680000
1191.830971	123.370000
1193.905424	118.110000
1195.983170	126.710000
1198.056646	121.450000
1200.131522	125.660000
1202.202131	126.550000
1204.274141	127.910000
1206.343775	129.510000
1208.414810	126.010000
1210.485358	127.850000
1212.551644	122.870000
1214.619331	122.380000
1216.684646	122.480000
1218.751361	120.280000
1220.813820	129.970000
1222.879564	125.610000
1224.941054	128.120000
1227.003945	120.310000
1229.064468	128.270000
1231.124507	126.110000
1233.184063	126.820000
1235.241255	123.480000
1237.297965	130.520000
1239.352311	124.870000
1241.409939	128.830000
1243.465203	121.420000
1245.516228	124.070000
1247.568652	122.140000
1249.620596	124.760000
1251.670182	123.190000
1253.719289	132.780000
1255.767917	127.020000
1257.816067	125.940000
1259.863739	125.970000
1261.907180	121.430000
1263.953897	122.830000
1265.998260	122.610000
1268.042147	123.630000
1270.083682	123.940000
1272.122868	117.420000
1274.165327	123.480000
1276.203563	125.090000
1278.243198	123.670000
1280.282358	121.430000
1282.317299	125.090000
1284.353639	121.850000
1286.387635	124.730000
1288.423028	120.820000
1290.454209	125.440000
1292.486787	117.350000
1294.518894	127.920000
1296.548660	123.820000
1298.579823	125.860000
1300.606780	120.600000
1302.635134	125.430000
1304.659283	126.770000
1306.686698	125.610000
1308.709910	129.230000
1310.734520	133.420000
1312.756796	127.300000
1314.780468	126.450000
1316.801808	122.310000
1318.822681	117.310000
1320.843086	125.790000
1322.859298	124.430000
1324.876907	122.130000
1326.892188	127.540000
1328.910728	119.740000
1330.925079	125.060000
1332.937103	124.650000
1334.952386	126.830000
1336.963483	125.980000
1338.975977	135.680000
1340.984288	123.260000
1342.995854	131.090000
1345.001382	124.680000
1347.010165	125.110000
1349.014770	128.950000
1351.022629	128.710000
1353.030026	125.960000
1355.031392	128.550000
1357.034154	127.110000
1359.036457	136.460000
1361.038300	120.210000
1363.039683	132.830000
1365.038753	128.200000
1367.037364	126.400000
1369.035516	128.020000
1371.033211	123.470000
1373.026743	126.570000
1375.021670	130.250000
1377.016141	124.610000
1379.010155	123.570000
1381.001862	132.020000
1382.993113	123.790000
1384.982059	127.730000
1386.972401	129.250000
1388.962287	125.700000
1390.949869	126.570000
1392.936998	132.940000
1394.921825	126.110000
1396.908047	132.570000
1398.891968	127.820000
1400.875437	124.360000
1402.858454	124.300000
1404.839173	128.800000
1406.821286	127.840000
1408.801103	126.400000
1410.780468	129.570000
1412.755695	121.810000
1414.734160	132.110000
1416.710332	129.230000
1418.686054	130.990000
1420.661328	129.780000
1422.634310	130.780000
1424.606844	127.970000
1426.578930	127.580000
1428.550569	124.320000
1430.518079	123.370000
1432.490663	124.490000
1434.455441	135.340000
1436.425292	119.350000
1438.391019	127.170000
1440.358138	129.580000
1442.322974	125.420000
1444.283690	126.270000
1446.249474	127.930000
1448.209303	134.060000
1450.170526	129.660000
1452.133140	128.120000
1454.091640	127.770000
1456.049698	133.250000
1458.007314	125.410000
1459.964487	127.760000
1461.919385	131.180000
1463.875676	125.230000
1465.829692	136.930000
1467.783267	131.200000
1469.734570	124.620000
1471.687265	128.880000
1473.637689	132.000000
1475.587674	123.070000
1477.537220	128.520000
1479.484497	119.420000
1481.429506	129.620000
1483.375908	126.000000
1485.321872	129.750000
1487.267399	124.980000
1489.210660	132.130000
1491.153486	120.360000
1493.094047	129.750000
1495.036001	129.210000
1496.975692	128.230000
1498.914948	126.810000
1500.853770	135.290000
1502.790332	120.290000
1504.728285	129.470000
1506.663979	128.660000
1508.599240	126.990000
1510.532244	119.620000
1512.464817	125.050000
1514.396956	124.670000
1516.328664	128.460000
1518.258119	132.410000
1520.188964	125.800000
1522.119377	125.700000
1524.045718	129.030000
1525.973449	127.480000
1527.898931	128.690000
1529.823983	127.580000
1531.748606	129.510000
1533.672799	130.190000
1535.594746	130.070000
1537.518083	126.800000
1539.439173	127.370000
1541.358019	126.180000
1543.278255	133.060000
1545.196248	124.820000
1547.113813	128.820000
1549.029138	130.310000
1550.945852	132.540000
1552.858511	137.030000
1554.774373	138.590000
1556.687997	135.020000
1558.599382	138.580000
1560.512157	134.180000
1562.420882	136.770000
1564.330996	132.700000
1566.240687	135.720000
1568.149955	134.700000
1570.056989	138.070000
1571.961790	144.570000
1573.867979	140.090000
1575.771938	143.580000
1577.675475	152.790000
1579.578592	157.610000
1581.479479	170.940000
1583.381755	169.890000
1585.281803	190.040000
1587.183238	183.450000
1589.080640	173.140000
1590.977623	170.690000
1592.874188	161.100000
1594.772140	149.590000
1596.664258	138.460000
1598.559570	133.660000
1600.454464	131.090000
1602.347136	137.530000
1604.239391	137.410000
1606.129427	128.360000
1608.019047	135.880000
1609.908252	132.390000
1611.797041	133.450000
1613.683614	133.490000
1615.571574	138.970000
1617.455517	135.270000
1619.340847	131.520000
1621.225764	131.920000
1623.108467	129.580000
1624.992557	129.200000
1626.872635	129.470000
1628.754101	131.330000
1630.633356	132.890000
1632.513997	131.050000
1634.388834	131.350000
1636.268652	128.250000
1638.144466	126.730000
1640.019869	128.060000
1641.896658	132.160000
1643.767651	121.450000
1645.641825	127.150000
1647.512000	127.830000
1649.385356	129.390000
1651.256509	128.860000
1653.125461	124.670000
1654.995797	131.610000
1656.862141	127.940000
1658.729870	123.020000
1660.595400	128.730000
1662.462316	120.290000
1664.325242	124.950000
1666.189555	122.600000
1668.051671	127.010000
1669.913382	124.070000
1671.776479	125.890000
1673.637380	129.920000
1675.496089	126.220000
1677.354394	122.180000
1679.214083	123.700000
1681.068006	121.910000
1682.925102	127.170000
1684.781794	123.000000
1686.634511	126.810000
1688.490399	121.930000
1690.342313	124.340000
1692.193826	121.430000
1694.044938	126.180000
1695.895649	124.580000
1697.745960	124.720000
1699.594087	123.390000
1701.443598	128.460000
1703.287359	125.670000
1705.136071	123.570000
1706.979036	127.050000
1708.825168	124.260000
1710.667337	119.400000
1712.512672	128.170000
1714.352266	123.330000
1716.193244	121.630000
1718.035605	121.750000
1719.874010	128.100000
1721.713798	124.710000
1723.551410	126.210000
1725.388628	122.160000
1727.223672	127.280000
1729.060099	123.340000
1730.894353	122.700000
1732.728214	121.620000
1734.561680	119.770000
1736.391200	119.720000
1738.223880	118.090000
1740.052615	123.610000
1741.884507	124.300000
1743.712457	125.250000
1745.540015	120.780000
1747.367182	124.590000
1749.193957	126.010000
1751.020340	123.290000
1752.842787	128.060000
1754.668389	121.890000
1756.490056	123.570000
1758.313104	118.720000
1760.133992	122.730000
1761.954491	127.600000
1763.776370	122.800000
1765.592550	120.080000
1767.411883	121.090000
1769.227287	124.710000
1771.045843	125.500000
1772.860473	127.500000
1774.674716	120.190000
1776.488573	125.300000
1778.302043	123.990000
1780.113360	123.180000
1781.926057	124.460000
1783.738369	117.880000
1785.546762	124.730000
1787.356537	121.290000
1789.162397	124.640000
1790.971402	121.670000
1792.776494	116.670000
1794.582967	117.560000
1796.389056	126.600000
1798.191234	120.420000
1799.996557	124.800000
1801.797971	123.710000
1803.600765	120.120000
1805.399653	118.890000
1807.199922	119.830000
1808.999809	119.790000
1810.797554	120.980000
1812.594919	121.610000
1814.391903	126.580000
1816.188508	128.500000
1817.982973	124.330000
1819.778817	125.610000
1821.569006	131.120000
1823.364092	122.490000
1825.153525	117.230000
1826.946096	123.870000
1828.736531	121.640000
1830.524832	118.080000
1832.316267	123.940000
1834.102058	120.440000
1835.889228	126.290000
1837.674266	121.190000
1839.462438	122.300000
1841.246724	118.230000
1843.028880	120.940000
1844.812416	119.670000
1846.593823	129.420000
1848.376609	125.590000
1850.155514	127.150000
1851.935798	121.980000
1853.713957	126.210000
1855.493494	121.720000
1857.270905	126.380000
1859.046194	116.390000
1860.822860	129.800000
1862.597404	128.660000
1864.373325	125.920000
1866.143627	126.770000
1867.917056	124.950000
1869.688365	129.530000
1871.459303	128.710000
1873.231619	128.640000
1874.998321	129.710000
1876.768148	128.490000
1878.534112	130.060000
1880.303200	125.680000
1882.068426	131.010000
1883.833284	129.830000
1885.599519	124.470000
1887.361895	127.910000
1889.123903	129.060000
1890.885545	121.920000
1892.646819	124.020000
1894.407727	127.950000
1896.168268	131.760000
1897.926699	127.860000
1899.684764	123.620000
1901.440722	130.540000
1903.198056	125.730000
1904.955025	122.150000
1906.709887	120.690000
1908.462645	128.770000
1910.215038	124.600000
1911.968808	121.390000
1913.720474	121.360000
1915.470038	128.440000
1917.220977	123.680000
1918.971553	127.970000
1920.718291	123.300000
1922.466404	123.290000
1924.212419	121.590000
1925.959808	128.080000
1927.705100	123.910000
1929.448294	119.030000
1931.192863	123.970000
1932.935336	126.630000
1934.677450	128.480000
1936.419203	127.020000
1938.160596	126.790000
1939.899896	127.120000
1941.638837	126.170000
1943.377419	125.950000
1945.113910	124.030000
1946.850043	125.030000
1948.587550	126.030000
1950.321235	123.200000
1952.056295	127.650000
1953.789266	121.700000
1955.521881	128.470000
1957.254140	128.770000
1958.986042	128.720000
1960.715858	124.370000
1962.443589	126.140000
1964.172695	126.620000
1965.901445	125.680000
1967.628113	125.500000
1969.354426	128.850000
1971.082112	126.960000
1972.804262	129.270000
1974.529513	127.970000
1976.250957	133.540000
1977.975501	121.480000
1979.697966	128.650000
1981.416628	127.460000
1983.138388	126.630000
1984.856346	125.550000
1986.575677	132.080000
1988.291209	133.490000
1990.011561	128.190000
1991.728115	128.710000
1993.440872	126.690000
1995.156725	127.020000
1996.870506	133.380000
1998.583937	132.340000
2000.295297	127.890000
2002.008029	127.120000
2003.716971	131.610000
2005.429005	125.400000
2007.135530	131.490000
2008.845148	132.140000
2010.552698	130.610000
2012.259901	127.560000
2013.965038	131.780000
2015.669829	131.610000
2017.375991	130.620000
2019.078371	135.640000
2020.782122	135.590000
2022.483811	129.100000
2024.185154	130.220000
2025.886153	132.480000
2027.585090	131.400000
2029.285399	131.130000
2030.981932	130.500000
2032.679837	130.190000
2034.375684	127.190000
2036.074616	128.130000
2037.768062	132.110000
2039.462879	127.920000
2041.157354	131.790000
2042.848060	130.050000
2044.541850	128.930000
2046.231873	133.870000
2047.923267	126.530000
2049.612608	129.490000
2051.303319	133.780000
2052.990267	130.280000
2054.676876	135.460000
2056.364854	127.680000
2058.049073	131.240000
2059.734663	122.360000
2061.419912	129.460000
2063.103114	128.590000
2064.787686	135.320000
2066.466794	129.350000
2068.150689	131.840000
2069.829122	126.050000
2071.510633	128.280000
2073.188392	127.150000
2074.865815	127.860000
2076.544607	125.550000
2078.221357	128.220000
2079.896064	129.040000
2081.572142	122.890000
2083.246178	125.880000
2084.919880	125.540000
2086.593246	129.600000
2088.264573	129.590000
2089.935566	122.910000
2091.606225	128.470000
2093.276550	122.920000
2094.946541	132.520000
2096.614496	130.580000
2098.282117	129.700000
2099.947705	127.730000
2101.614661	130.980000
2103.279584	125.490000
2104.944175	134.490000
2106.606734	125.010000
2108.270661	129.110000
2109.932557	126.310000
2111.594123	130.750000
2113.255357	128.150000
2114.914563	133.730000
2116.573438	126.400000
2118.231984	134.680000
2119.890199	126.400000
2121.544692	134.780000
2123.202249	123.410000
2124.859476	134.030000
2126.512983	123.010000
2128.167857	132.230000
2129.819012	131.010000
2131.473230	124.850000
2133.123730	131.890000
2134.775598	133.140000
2136.422057	126.310000
2138.073271	127.820000
2139.720771	122.010000
2141.369638	126.040000
2143.016486	127.970000
2144.663009	125.380000
2146.309206	125.300000
2147.951695	132.760000
2149.597241	126.920000
2151.239082	134.640000
2152.883979	129.470000
2154.525170	123.390000
2156.166038	131.610000
2157.806583	130.620000
2159.445115	129.970000
2161.085013	129.850000
2162.721211	133.230000
2164.358775	129.220000
2165.996017	123.720000
2167.631249	130.780000
2169.266159	127.500000
2170.900748	124.710000
2172.535016	128.520000
2174.165590	127.070000
2175.799216	126.470000
2177.429150	127.490000
2179.060449	128.290000
2180.689743	129.130000
2182.318718	127.160000
2183.947373	128.570000
2185.575709	122.200000
2187.202043	119.060000
2188.828057	123.010000
2190.452071	122.730000
2192.077450	122.330000
2193.700828	129.950000
2195.325571	130.440000
2196.946633	126.920000
2198.567378	125.670000
2200.189487	128.390000
2201.809599	123.890000
2203.427715	126.090000
2205.045515	126.120000
2206.663000	127.010000
2208.280169	125.440000
2209.897023	128.250000
2211.513561	126.420000
2213.128107	122.930000
2214.740660	124.120000
2216.354577	128.740000
2217.966503	124.370000
2219.579792	126.500000
2221.191091	118.630000
2222.800400	121.260000
2224.411073	124.340000
2226.019757	127.350000
2227.628128	121.970000
2229.234513	123.920000
2230.842260	127.150000
2232.448022	128.590000
2234.053472	123.660000
2235.656937	123.990000
2237.261765	128.310000
2238.864609	136.440000
2240.465470	128.390000
2242.067694	128.980000
2243.667936	132.990000
2245.269540	127.510000
2246.867491	125.490000
2248.466805	123.750000
2250.064139	127.950000
2251.661165	134.160000
2253.259553	126.920000
2254.854292	129.760000
2256.447054	127.330000
2258.041179	131.770000
2259.636665	128.240000
2261.228506	132.240000
2262.820041	127.170000
2264.412938	126.520000
2266.000525	128.860000
2267.592808	132.080000
2269.179785	134.640000
2270.769789	129.120000
2272.354489	125.920000
2273.943883	134.780000
2275.527974	125.800000
2277.113427	130.670000
2278.696911	127.710000
2280.283420	129.060000
2281.866296	130.650000
2283.448869	121.600000
2285.031138	126.700000
2286.609777	126.590000
2288.191441	127.950000
2289.769476	128.650000
2291.350534	121.890000
2292.927965	124.065000
2294.503433	126.240000
2296.081923	127.190000
2297.656789	125.140000
2299.231354	119.780000
2300.805618	124.680000
2302.379583	126.470000
2303.953246	128.220000
2305.526610	131.940000
2307.096355	118.080000
2308.665801	126.700000
2310.238265	125.940000
2311.805455	128.210000
2313.375663	122.070000
2314.942256	123.980000
2316.510209	119.180000
2318.076206	133.650000
2319.641906	125.720000
2321.207308	129.520000
2322.770757	129.470000
2324.335565	134.910000
2325.896765	140.580000
2327.460979	146.660000
2329.019931	146.650000
2330.581897	144.240000
2332.141913	129.610000
2333.701633	126.420000
2335.259405	123.530000
2336.816881	126.350000
2338.374063	120.600000
2339.929297	130.260000
2341.484238	124.090000
2343.038884	131.700000
2344.593237	126.080000
2346.147296	123.110000
2347.701062	125.390000
2349.252883	127.820000
2350.802762	124.950000
2352.355648	124.500000
2353.903291	121.620000
2355.453943	128.080000
2357.001003	128.060000
2358.549421	123.330000
2360.097548	127.060000
2361.642086	120.310000
2363.187982	122.580000
2364.731940	123.800000
2366.277254	122.790000
2367.818985	126.350000
2369.362072	120.350000
2370.903223	123.640000
2372.444085	130.580000
2373.984658	128.450000
2375.524942	124.960000
2377.064937	126.240000
2378.601354	131.240000
2380.140772	120.040000
2381.676612	123.610000
2383.213810	128.800000
2384.747432	127.480000
2386.284054	126.650000
2387.818746	130.180000
2389.351508	126.290000
2390.883983	129.060000
2392.414530	128.230000
2393.948075	125.740000
2395.476409	125.210000
2397.006099	130.150000
2398.535504	130.020000
2400.064624	130.460000
2401.593458	127.590000
2403.117088	125.130000
2404.645353	131.130000
2406.168416	131.370000
2407.696112	131.220000
2409.216969	126.900000
2410.742458	127.000000
2412.264388	130.830000
2413.787672	133.820000
2415.309036	138.430000
2416.828480	128.420000
2418.349279	126.300000
2419.868159	125.740000
2421.386758	127.860000
2422.903439	131.530000
2424.421474	128.550000
2425.939228	127.710000
2427.453430	132.070000
2428.967353	119.930000
2430.480995	125.220000
2431.995992	129.860000
2433.507440	124.990000
2435.020242	128.240000
2436.531132	125.830000
2438.041743	125.570000
2439.550442	130.580000
2441.062127	129.310000
2442.570269	126.270000
2444.078133	125.070000
2445.585718	125.850000
2447.089764	133.800000
2448.596794	124.430000
2450.101916	128.730000
2451.606761	131.980000
2453.109699	126.510000
2454.612361	125.320000
2456.114746	132.090000
2457.615226	124.530000
2459.117059	126.950000
2460.616987	124.160000
2462.116640	125.380000
2463.616018	128.590000
2465.113493	125.190000
2466.609066	120.740000
2468.107619	131.060000
2469.602644	121.910000
2471.099021	127.640000
2472.591872	125.860000
2474.086076	126.900000
2475.580006	120.020000
2477.070412	123.470000
2478.563796	126.140000
2480.055282	123.970000
2481.544871	125.220000
2483.034188	129.520000
2484.521609	127.360000
2486.012006	125.440000
2487.498885	126.010000
2488.987115	119.730000
2490.471828	122.460000
2491.956272	120.390000
2493.442066	120.690000
2494.925969	122.590000
2496.411222	126.780000
2497.891342	124.550000
2499.374435	121.040000
2500.855637	124.250000
2502.336570	127.040000
2503.815614	127.300000
2505.294389	123.980000
2506.772896	128.090000
2508.251135	125.740000
2509.729105	129.170000
2511.203570	125.080000
2512.681005	125.870000
2514.154936	130.150000
2515.630217	123.200000
2517.105231	129.130000
2518.576744	126.780000
2520.049608	125.270000
2521.520589	126.030000
2522.992920	122.000000
2524.460137	126.920000
2525.930321	128.820000
2527.398624	129.150000
2528.866662	123.870000
2530.334435	127.680000
2531.801943	126.650000
2533.269186	126.830000
2534.732937	124.610000
2536.198038	124.240000
2537.661262	126.030000
2539.125835	127.650000
2540.586920	128.180000
2542.049354	126.530000
2543.511525	126.610000
2544.970210	125.210000
2546.433466	123.120000
2547.891626	123.920000
2549.351136	125.060000
2550.805551	124.410000
2552.264537	121.990000
2553.721651	132.580000
2555.176893	128.060000
2556.631875	124.870000
2558.084988	125.750000
2559.539448	124.490000
2560.992040	127.090000
2562.444372	123.500000
2563.894837	133.740000
2565.348257	129.760000
2566.796595	124.090000
2568.247888	131.890000
2569.697316	134.860000
2571.143271	129.080000
2572.592181	124.960000
2574.037621	136.620000
2575.484408	129.280000
2576.929332	128.930000
2578.373999	127.930000
2579.820013	126.610000
2581.262561	122.910000
2582.706456	133.290000
2584.146885	121.650000
2585.588663	126.520000
2587.028581	128.750000
2588.469846	128.720000
2589.907649	121.350000
2591.348402	129.450000
2592.784093	125.320000
2594.222732	124.910000
2595.659515	126.510000
2597.094442	123.370000
2598.532316	128.870000
2599.965133	127.530000
2601.399297	126.900000
2602.831607	127.770000
2604.265263	119.450000
2605.697066	127.040000
2607.128615	127.820000
2608.559912	129.790000
2609.989356	131.490000
2611.418548	126.890000
2612.845890	122.500000
2614.274577	128.500000
2615.703013	121.440000
2617.128001	123.470000
2618.554336	126.200000
2619.978822	128.090000
2621.404654	125.210000
2622.827042	127.220000
2624.250776	127.860000
2625.672663	127.220000
2627.094300	126.440000
2628.514093	134.390000
2629.935231	121.120000
2631.356119	127.680000
2632.773568	118.410000
2634.193958	125.660000
2635.610910	131.160000
2637.027613	127.980000
2638.444068	127.770000
2639.860275	129.480000
2641.276234	126.710000
2642.690352	123.550000
2644.104222	128.550000
2645.516253	128.570000
2646.929629	126.170000
2648.339575	125.650000
2649.752457	133.060000
2651.161910	124.930000
2652.571117	127.120000
2653.978488	135.280000
2655.388793	127.990000
2656.797263	126.790000
2658.203897	135.120000
2659.610286	130.710000
2661.014841	129.140000
2662.420740	138.500000
2663.824806	132.680000
2665.228627	133.540000
2666.632204	135.540000
2668.033950	139.310000
2669.437039	138.370000
2670.836710	134.760000
2672.237725	138.290000
2673.635324	145.520000
2675.035852	134.390000
2676.432966	148.040000
2677.831423	145.040000
2679.228053	145.920000
2680.624440	144.630000
2682.020585	152.620000
2683.414904	148.330000
2684.810566	153.980000
2686.202819	159.880000
2687.596414	153.550000
2688.988185	155.140000
2690.381299	156.780000
2691.772589	158.630000
2693.162056	153.860000
2694.551283	149.910000
2695.940271	151.900000
2697.330600	154.500000
2698.715946	152.850000
2700.104215	147.630000
2701.490664	148.340000
2702.876874	140.360000
2704.262845	147.910000
2705.645418	138.870000
2707.029333	139.330000
2708.413010	140.480000
2709.796448	136.650000
2711.176491	140.190000
2712.557876	137.140000
2713.937446	134.310000
2715.318356	132.430000
2716.697452	135.700000
2718.074734	133.000000
2719.453357	136.400000
2720.830166	135.040000
2722.206740	126.800000
2723.583078	131.960000
2724.957604	129.810000
2726.333471	135.810000
2727.705952	134.820000
2729.081348	134.720000
2730.451784	126.950000
2731.823561	129.620000
2733.195103	128.810000
2734.564837	136.380000
2735.935911	130.510000
2737.305178	132.230000
2738.674211	131.010000
2740.041438	126.100000
2741.408431	121.500000
2742.775192	123.040000
2744.141720	126.760000
2745.506444	127.660000
2746.870935	126.620000
2748.235195	133.170000
2749.599222	130.350000
2750.963018	126.240000
2752.323440	122.060000
2753.686772	126.220000
2755.045162	125.670000
2756.406462	123.390000
2757.764392	129.560000
2759.125230	125.950000
2760.484268	126.560000
2761.839939	130.440000
2763.198517	124.810000
2764.553728	121.930000
2765.908710	123.890000
2767.261895	123.840000
2768.617987	121.690000
2769.970715	130.430000
2771.323215	124.570000
2772.675486	125.130000
2774.029095	122.120000
2775.379344	124.520000
2776.727798	120.980000
2778.079157	124.950000
2779.427158	119.910000
2780.776496	125.180000
2782.124042	123.650000
2783.471362	123.470000
2784.818455	122.190000
2786.163756	125.310000
2787.508832	123.800000
2788.853682	124.640000
2790.198306	126.030000
2791.539578	123.200000
2792.882187	119.740000
2794.224572	125.090000
2795.566731	124.550000
2796.905541	125.150000
2798.247251	124.080000
2799.585612	126.740000
2800.925311	119.330000
2802.263225	131.560000
2803.599353	122.590000
2804.935259	125.970000
2806.272502	122.110000
2807.607961	130.190000
2808.943197	131.150000
2810.276650	124.140000
2811.611440	125.340000
2812.942890	132.640000
2814.277235	124.130000
2815.606682	128.060000
2816.937465	126.050000
2818.268028	121.930000
2819.596811	126.580000
2820.926930	127.060000
2822.255271	129.640000
2823.583391	126.360000
2824.909733	127.530000
2826.237412	130.850000
2827.561757	128.130000
2828.887439	130.910000
2830.211345	120.040000
2831.535031	120.760000
2832.860053	119.950000
2834.181746	127.840000
2835.503220	119.450000
2836.824475	122.580000
2838.145511	125.460000
2839.464774	126.970000
2840.785373	129.410000
2842.104200	130.730000
2843.422810	122.490000
2844.739648	127.700000
2846.056269	122.350000
2847.372673	125.960000
2848.687307	123.480000
2850.003277	124.470000
2851.315926	124.390000
2852.629910	127.120000
2853.943678	122.570000
2855.257229	120.550000
2856.569014	122.310000
2857.879032	130.760000
2859.190385	119.490000
2860.498423	129.270000
2861.807795	125.340000
2863.116952	128.460000
2864.425895	121.770000
2865.733073	123.710000
2867.038489	125.640000
2868.345238	127.180000
2869.650226	123.450000
2870.954999	124.090000
2872.258012	119.400000
2873.563905	127.850000
2874.864944	123.540000
2876.167317	123.950000
2877.467930	120.920000
2878.769877	125.040000
2880.071610	126.290000
2881.370040	133.100000
2882.669803	125.460000
2883.967809	120.600000
2885.265603	127.390000
2886.561641	123.250000
2887.859012	119.220000
2889.154627	119.780000
2890.450031	122.320000
2891.745224	117.470000
2893.037120	116.100000
2894.331892	123.430000
2895.623367	124.440000
2896.916175	126.810000
2898.208773	114.820000
2899.498077	122.010000
2900.788713	117.120000
2902.077598	119.680000
2903.367815	125.090000
2904.654741	120.850000
2905.942999	116.350000
2907.229508	121.760000
2908.515808	118.020000
2909.801900	127.360000
2911.086245	115.240000
2912.373460	121.430000
2913.655849	118.990000
2914.939570	123.730000
2916.221545	125.460000
2917.503312	121.030000
2918.783334	117.490000
2920.066227	119.890000
2921.347374	121.040000
2922.625239	119.730000
2923.905973	119.290000
2925.183426	116.850000
2926.460673	116.570000
2927.736178	122.030000
2929.014551	122.990000
2930.288110	129.100000
2931.564536	119.800000
2932.839221	117.490000
2934.112165	119.030000
2935.386441	127.590000
2936.658977	118.750000
2937.931308	119.570000
2939.200367	118.920000
2940.472291	115.030000
2941.742477	120.950000
2943.012459	123.170000
2944.282238	120.450000
2945.550281	123.240000
2946.816587	115.660000
2948.082691	123.550000
2949.350126	118.950000
2950.615825	118.800000
2951.881323	110.100000
2953.146618	119.550000
2954.408648	118.740000
2955.672008	119.920000
2956.935167	111.200000
2958.196594	123.670000
2959.459350	121.990000
2960.720374	118.200000
2961.979668	114.170000
2963.238761	119.890000
2964.497655	116.760000
2965.756348	114.680000
2967.014841	116.490000
2968.271604	122.340000
2969.528169	117.000000
2970.783005	118.530000
2972.039171	116.340000
2973.292082	118.610000
2974.546321	120.630000
2975.800362	116.760000
2977.052677	119.990000
2978.304794	123.020000
2979.555186	117.670000
2980.808433	117.920000
2982.056903	116.880000
2983.308228	123.420000
2984.556303	124.930000
2985.804181	116.050000
2987.051863	118.550000
2988.299347	117.640000
2989.545110	114.600000
2990.790677	114.580000
2992.037571	112.260000
2993.281221	121.650000
2994.526199	118.740000
2995.767933	118.100000
2997.012519	115.840000
2998.255386	120.740000
2999.495012	113.080000
3000.737488	117.130000
3001.976724	114.740000
3003.217288	115.980000
3004.456135	116.300000
3005.694788	118.410000
3006.931725	112.370000
3008.169990	115.570000
3009.406539	116.240000
3010.642895	115.270000
3011.879057	116.290000
3013.113505	117.850000
3014.347760	120.430000
3015.581823	114.510000
3016.814172	121.810000
3018.044810	113.310000
3019.278294	116.020000
3020.510067	117.510000
3021.740129	114.640000
3022.969998	118.180000
3024.198158	111.170000
3025.427645	122.040000
3026.655422	116.200000
3027.883008	118.210000
3029.111920	111.980000
3030.336090	111.160000
3031.563104	115.990000
3032.786893	114.450000
3034.012009	117.150000
3035.235418	110.990000
3036.458637	112.810000
3037.680151	110.340000
3038.904506	114.460000
3040.124126	115.010000
3041.345072	112.840000
3042.565829	120.660000
3043.784882	113.540000
3045.005260	114.440000
3046.222422	112.730000
3047.440910	120.400000
3048.657695	114.810000
3049.874293	118.620000
3051.090702	119.620000
3052.303898	111.960000
3053.519933	113.560000
3054.732755	118.820000
3055.948413	115.380000
3057.159350	114.920000
3058.371611	110.540000
3059.583685	114.970000
3060.795573	120.130000
3062.005764	111.240000
3063.215768	113.620000
3064.425586	120.730000
3065.633708	116.230000
3066.841645	112.280000
3068.047886	107.700000
3069.255452	117.580000
3070.461323	117.910000
3071.667009	118.240000
3072.872511	112.430000
3074.076319	116.040000
3075.281451	117.010000
3076.484890	120.730000
3077.686638	113.460000
3078.888201	114.630000
3080.089581	108.620000
3081.290777	115.460000
3082.490283	115.580000
3083.689606	114.100000
3084.890252	109.260000
3086.089208	111.570000
3087.284970	107.830000
3088.483560	117.100000
3089.678958	108.950000
3090.875678	112.440000
3092.069206	110.690000
3093.265562	116.320000
3094.460231	108.090000
3095.651710	104.790000
3096.847521	111.230000
3098.038637	114.900000
3099.231077	115.590000
3100.420329	113.090000
3101.612406	107.150000
3102.802800	106.760000
3103.990008	109.240000
3105.178538	114.360000
3106.368391	108.790000
3107.555060	112.100000
3108.741548	110.630000
3109.927858	110.500000
3111.115489	107.240000
3112.299938	106.910000
3113.482708	109.290000
3114.668300	107.480000
3115.852213	107.200000
3117.034447	103.890000
3118.216502	105.670000
3119.398379	109.350000
3120.580078	110.690000
3121.760100	104.620000
3122.938445	106.010000
3124.119610	108.870000
3125.297600	108.280000
3126.475413	107.360000
3127.653049	106.750000
3128.829010	106.590000
3130.004795	102.970000
3131.181901	107.630000
3132.357332	100.970000
3133.531090	107.100000
3134.703175	100.970000
3135.876582	106.570000
3137.049812	107.060000
3138.221371	106.180000
3139.394250	111.450000
3140.563962	108.060000
3141.734995	110.250000
3142.904358	109.160000
3144.072050	106.630000
3145.242558	109.230000
3146.408408	106.000000
3147.578566	110.990000
3148.744068	106.800000
3149.909395	111.200000
3151.074549	105.320000
3152.239530	104.770000
3153.405830	111.340000
3154.567478	104.110000
3155.730445	106.630000
3156.893240	105.580000
3158.055862	108.620000
3159.216818	104.190000
3160.377603	97.460000
3161.538215	98.620000
3162.697163	99.220000
3163.855940	99.810000
3165.014544	100.300000
3166.172977	108.040000
3167.331239	99.610000
3168.487838	108.910000
3169.642776	102.390000
3170.799033	95.860000
3171.953629	104.220000
3173.108055	100.200000
3174.260821	94.010000
3175.413416	101.320000
3176.565842	100.130000
3177.718098	104.790000
3178.870183	102.300000
3180.019122	97.490000
3181.170869	101.440000
3182.320957	104.280000
3183.469389	100.090000
3184.617651	106.000000
3185.765745	100.240000
3186.913670	104.820000
3188.059939	102.070000
3189.206040	104.190000
3190.350487	104.100000
3191.494766	109.060000
3192.638877	106.320000
3193.784305	104.490000
3194.926595	108.090000
3196.068718	103.070000
3197.210673	109.170000
3198.352461	102.770000
3199.494082	101.870000
3200.632568	103.860000
3201.772371	100.710000
3202.913491	102.160000
3204.051478	106.940000
3205.187815	105.360000
3206.323986	98.230000
3207.461474	100.100000
3208.597314	98.760000
3209.734471	101.860000
3210.867015	108.740000
3212.003841	104.290000
3213.136055	103.210000
3214.269586	108.550000
3215.402953	98.700000
3216.533192	103.930000
3217.666229	101.210000
3218.796140	107.390000
3219.927367	100.850000
3221.055470	95.770000
3222.186369	98.720000
3223.315624	96.140000
3224.443236	95.760000
3225.567725	95.250000
3226.696490	94.320000
3227.822133	96.670000
3228.947613	97.400000
3230.071452	100.710000
3231.198086	96.830000
3232.320122	95.540000
3233.443474	96.700000
3234.566664	103.430000
3235.689691	95.200000
3236.811080	97.510000
3237.932306	103.610000
3239.051894	101.630000
3240.171321	97.170000
3241.289111	96.860000
3242.409692	96.240000
3243.527160	102.450000
3244.644467	102.080000
3245.761614	103.200000
3246.877124	100.370000
3247.993950	99.490000
3249.107666	101.550000
3250.224171	103.550000
3251.339042	97.580000
3252.450803	98.930000
3253.562406	101.530000
3254.675324	99.910000
3255.788082	100.200000
3256.897734	101.880000
3258.008701	99.850000
3259.119509	103.680000
3260.228685	104.860000
3261.336230	104.830000
3262.445090	100.440000
3263.553792	98.090000
3264.659391	103.060000
3265.766304	99.470000
3266.871588	104.190000
3267.978186	105.520000
3269.081684	101.420000
3270.186496	99.420000
3271.291151	95.240000
3272.392708	100.610000
3273.494108	97.290000
3274.596822	102.740000
3275.699380	100.810000
3276.798841	101.900000
3277.901086	103.080000
3279.000235	97.190000
3280.097760	98.610000
3281.195129	97.050000
3282.295280	97.060000
3283.392339	99.320000
3284.489242	100.720000
3285.585990	99.680000
3286.678179	99.260000
3287.774618	101.010000
3288.869434	107.870000
3289.964096	98.330000
3291.057136	95.140000
3292.150021	99.080000
3293.241286	101.430000
3294.333864	96.770000
3295.424822	97.280000
3296.514160	98.150000
3297.603345	96.650000
3298.693842	98.780000
3299.781256	97.960000
3300.868516	98.390000
3301.957089	100.880000
3303.045509	93.880000
3304.129383	97.850000
3305.217498	104.290000
3306.302531	96.650000
3307.385949	101.110000
3308.470679	97.510000
3309.553793	97.280000
3310.638220	97.800000
3311.719568	99.170000
3312.802228	102.090000
3313.883274	98.850000
3314.964168	96.270000
3316.043450	97.710000
3317.122581	97.540000
3318.203024	99.050000
3319.280392	97.680000
3320.359072	97.880000
3321.436140	96.280000
3322.513059	99.540000
3323.588366	96.490000
3324.663524	93.580000
3325.739993	97.840000
3326.813392	98.700000
3327.886641	94.220000
3328.961202	97.610000
3330.034154	99.350000
3331.105497	94.800000
3332.178151	94.800000
3333.247739	98.310000
3334.318637	95.390000
3335.387928	97.120000
3336.458529	98.030000
3337.527525	96.710000
3338.594914	94.260000
3339.660698	99.460000
3340.730708	98.710000
3341.797655	94.560000
3342.861540	99.670000
3343.928192	96.780000
3344.993241	92.230000
3346.056686	99.860000
3347.119985	86.690000
3348.183137	94.040000
3349.246143	96.640000
3350.309003	96.930000
3351.370261	103.520000
3352.428462	105.910000
3353.490883	94.110000
3354.550249	96.840000
3355.609469	92.450000
3356.669998	98.480000
3357.726019	94.950000
3358.784803	93.960000
3359.839080	96.020000
3360.896121	97.940000
3361.951563	97.480000
3363.008315	98.170000
3364.063468	96.940000
3365.117024	100.260000
3366.168984	92.390000
3367.223705	94.990000
3368.275377	98.130000
3369.326906	99.710000
3370.379743	95.310000
3371.429533	92.490000
3372.480632	99.820000
3373.528684	97.840000
3374.579497	89.800000
3375.627264	97.510000
3376.674889	95.060000
3377.722372	93.900000
3378.768262	96.340000
3379.815460	98.670000
3380.859616	89.570000
3381.906530	97.230000
3382.951852	99.540000
3383.994133	94.810000
3385.036273	91.320000
3386.079722	97.310000
3387.123029	92.760000
3388.164746	94.780000
3389.206323	97.420000
3390.247758	98.050000
3391.287605	96.310000
3392.325863	95.060000
3393.365429	92.820000
3394.404855	94.840000
3395.442693	95.610000
3396.478944	100.690000
3397.515056	92.730000
3398.552475	96.230000
3399.586861	90.260000
3400.622554	98.720000
3401.658108	91.630000
3402.690631	94.550000
3403.725906	95.050000
3404.758152	92.570000
3405.790259	96.810000
3406.820782	96.380000
3407.852612	95.310000
3408.884304	90.230000
3409.912968	92.630000
3410.941495	99.640000
3411.971328	96.950000
3413.001024	96.510000
3414.027694	92.150000
3415.055670	94.920000
3416.080623	92.470000
3417.108325	95.850000
3418.133003	91.530000
3419.158989	97.010000
3420.183394	88.150000
3421.207663	91.720000
3422.230353	88.650000
3423.252907	92.470000
3424.276767	96.360000
3425.297607	92.210000
3426.318311	91.390000
3427.340322	96.060000
3428.359314	88.280000
3429.378170	93.270000
3430.398333	89.060000
3431.415479	92.680000
