-117.841134	-0.790000
-115.171534	2.460000
-112.504869	-2.760000
-109.838956	3.970000
-107.175976	2.340000
-104.511565	8.920000
-101.850085	-5.010000
-99.187176	3.280000
-96.529373	-0.650000
-93.870141	-1.600000
-91.211657	3.030000
-88.556098	3.440000
-85.899109	-2.580000
-83.247219	0.900000
-80.593899	-1.310000
-77.943498	4.680000
-75.291669	-4.820000
-72.644930	0.100000
-69.996761	5.050000
-67.349335	2.070000
-64.704824	2.830000
-62.058883	-3.170000
-59.418024	6.430000
-56.775736	4.750000
-54.136357	2.920000
-51.495548	5.320000
-48.855480	2.960000
-46.220485	3.780000
-43.584060	0.260000
-40.950538	6.800000
-38.315588	-0.070000
-35.685703	8.090000
-33.052226	1.210000
-30.423811	6.870000
-27.796130	3.320000
-25.167020	9.310000
-22.542967	3.770000
-19.915325	9.420000
-17.292737	7.560000
-14.670879	15.850000
-12.049752	26.810000
-9.429356	62.610000
-6.811847	212.990000
-4.192910	795.800000
-1.576858	2047.740000
1.038465	2663.540000
3.653060	1339.410000
6.264774	148.090000
8.877916	21.370000
11.486024	15.340000
14.097713	6.300000
16.704373	11.720000
19.312460	8.510000
21.919823	9.590000
24.522161	2.250000
27.128077	9.260000
29.728971	1.130000
32.331293	2.820000
34.928597	3.140000
37.529478	6.520000
40.125343	5.770000
42.722637	5.040000
45.319211	2.070000
47.910776	8.010000
50.503769	3.580000
53.093901	1.490000
55.685460	2.230000
58.274161	4.370000
60.864288	0.710000
63.449416	3.550000
66.035972	1.550000
68.621814	6.570000
71.204802	6.390000
73.789216	4.110000
76.366502	-0.330000
78.947354	1.250000
81.525357	-2.090000
84.102650	5.210000
86.681369	3.900000
89.255106	4.270000
91.830271	3.920000
94.402592	11.910000
96.974205	3.050000
99.542978	6.000000
102.113178	-1.070000
104.680539	1.120000
107.249327	0.860000
109.815278	2.060000
112.378394	4.540000
114.945066	9.070000
117.502516	7.740000
120.065653	11.640000
122.623829	14.500000
125.185560	25.580000
127.742334	27.960000
130.300534	49.280000
132.853782	70.340000
135.406332	96.280000
137.962432	142.140000
140.513584	191.620000
143.064039	227.270000
145.613796	257.160000
148.160734	276.970000
150.706977	294.230000
153.254645	310.260000
155.801617	312.240000
158.343654	313.220000
160.884997	310.210000
163.425647	317.480000
165.967723	310.470000
168.506987	307.880000
171.043442	312.850000
173.579207	310.100000
176.116397	313.000000
178.652896	308.890000
181.186589	314.900000
183.717478	308.480000
186.247679	317.700000
188.779306	309.480000
191.308131	313.140000
193.834157	307.280000
196.359497	314.180000
198.886262	306.790000
201.410231	315.480000
203.933515	310.610000
206.456113	312.140000
208.975919	307.480000
211.495042	316.170000
214.013483	311.470000
216.533347	314.670000
219.046210	317.400000
221.562604	319.130000
224.078316	316.590000
226.589138	320.170000
229.101385	319.910000
231.610849	315.080000
234.119635	314.360000
236.627743	324.760000
239.137275	324.480000
241.641926	328.490000
244.145901	323.580000
246.651300	331.680000
249.151824	330.260000
251.655871	331.420000
254.152948	329.530000
256.653548	338.200000
259.151376	335.510000
261.648531	333.330000
264.145013	336.100000
266.636632	335.040000
269.131771	337.430000
271.624143	334.430000
274.115845	329.870000
276.604784	333.180000
279.095146	333.420000
281.582747	332.970000
284.067588	340.940000
286.555944	334.330000
289.037360	339.070000
291.522290	343.570000
294.002375	335.180000
296.485972	341.250000
298.964726	345.260000
301.444903	351.100000
303.922329	342.710000
306.399091	347.080000
308.875189	345.970000
311.348540	348.260000
313.821228	355.110000
316.293255	369.140000
318.764621	379.940000
321.233242	397.730000
323.701204	390.160000
326.170589	379.790000
328.635151	375.170000
331.103217	365.350000
333.566463	361.970000
336.029051	358.460000
338.490983	360.660000
340.952258	362.410000
343.410798	364.560000
345.870762	367.410000
348.327992	363.830000
350.784568	362.140000
353.240490	366.570000
355.693682	362.000000
358.148297	366.920000
360.598110	364.020000
363.051419	366.750000
365.499929	366.790000
367.947789	375.690000
370.397071	369.750000
372.841559	366.040000
375.287469	362.720000
377.732729	363.980000
380.175271	359.830000
382.617165	363.900000
385.058412	368.570000
387.496943	364.540000
389.936895	363.030000
392.374134	365.490000
394.808662	362.800000
397.246677	364.260000
399.679915	365.370000
402.114574	364.200000
404.544461	366.820000
406.977833	364.580000
409.406435	381.330000
411.834395	365.320000
414.263777	369.870000
416.688393	368.930000
419.114431	365.370000
421.539828	372.610000
423.964585	379.140000
426.384584	373.570000
428.806003	377.550000
431.224727	375.990000
433.644871	384.610000
436.062320	380.460000
438.481189	379.490000
440.897365	379.230000
443.308793	377.650000
445.723698	377.920000
448.135914	378.340000
450.547495	375.930000
452.958442	381.300000
455.366703	383.700000
457.774331	377.540000
460.181327	382.050000
462.587692	384.450000
464.991374	374.940000
467.394426	389.370000
469.796848	379.920000
472.198640	379.570000
474.597754	372.200000
476.998288	384.070000
479.398193	383.120000
481.793376	373.900000
484.192025	378.550000
486.585953	376.580000
488.979256	376.510000
491.371934	381.960000
493.763986	379.760000
496.157456	374.570000
498.546214	372.190000
500.932306	372.350000
503.319818	365.600000
505.706707	371.540000
508.090932	376.140000
510.476575	401.590000
512.859557	410.870000
515.239878	440.190000
517.621618	464.320000
520.000699	474.240000
522.381198	460.090000
524.759041	436.910000
527.134227	418.670000
529.508797	410.010000
531.884784	390.750000
534.258119	381.800000
536.632871	374.540000
539.002937	374.640000
541.372389	368.490000
543.743258	372.490000
546.109446	361.860000
548.477053	363.760000
550.842015	355.570000
553.206363	359.970000
555.570098	358.090000
557.935251	359.910000
560.295732	356.330000
562.657631	361.130000
565.016889	352.850000
567.373509	352.970000
569.733575	344.210000
572.086949	343.090000
574.443768	352.200000
576.797952	344.070000
579.151527	352.450000
581.504495	352.760000
583.854830	347.300000
586.206583	353.910000
588.551659	341.770000
590.902198	346.530000
593.246065	343.130000
595.595393	352.010000
597.940072	346.720000
600.282127	347.470000
602.625599	340.680000
604.966448	353.110000
607.306694	349.730000
609.644320	350.380000
611.985381	350.660000
614.321805	351.520000
616.659645	347.440000
618.994868	352.860000
621.327475	346.360000
623.661498	354.700000
625.992907	342.950000
628.323718	349.260000
630.653931	350.040000
632.983547	349.140000
635.308539	342.630000
637.638973	356.420000
639.964786	348.430000
642.287991	358.950000
644.612613	355.180000
646.934629	358.500000
649.256051	347.990000
651.574870	356.580000
653.895106	341.350000
656.214748	355.210000
658.531789	347.340000
660.848238	349.820000
663.162089	354.890000
665.477356	352.150000
667.790026	351.680000
670.104111	356.340000
672.413596	354.720000
674.724497	359.660000
677.032805	347.230000
679.340525	356.260000
681.649659	352.200000
683.954201	350.930000
686.258157	352.570000
688.561527	352.480000
690.866311	345.590000
693.166508	356.980000
695.468121	355.560000
697.769148	348.250000
700.065594	349.840000
702.363455	351.380000
704.660732	348.890000
706.957426	357.840000
709.249544	343.260000
711.545073	357.850000
713.836028	355.620000
716.128398	357.830000
718.418193	354.720000
720.707407	359.090000
722.996042	358.450000
725.282104	364.080000
727.569581	361.150000
729.854486	361.880000
732.138814	364.900000
734.420573	367.680000
736.703746	367.730000
738.986342	370.980000
741.264382	365.960000
743.543837	370.650000
745.822715	365.300000
748.101019	373.440000
750.374773	371.660000
752.649940	374.760000
754.924534	372.900000
757.196569	380.380000
759.470017	372.180000
761.740907	379.600000
764.009241	368.020000
766.278988	382.330000
768.546180	371.490000
770.812803	376.110000
773.078855	382.020000
775.342356	381.380000
777.607270	378.120000
779.871614	381.410000
782.131429	386.440000
784.392656	385.770000
786.653316	385.950000
788.911430	383.260000
791.166999	378.800000
793.425959	388.280000
795.678419	386.280000
797.936247	391.060000
800.189556	387.810000
802.440325	394.560000
804.692506	389.760000
806.942148	394.200000
809.193202	389.760000
811.439746	383.300000
813.687701	378.660000
815.933122	390.090000
818.179954	384.610000
820.426225	387.650000
822.667991	376.570000
824.913141	397.310000
827.151818	382.290000
829.393877	387.810000
831.631438	384.960000
833.870411	392.810000
836.106857	382.660000
838.344714	388.640000
840.580046	385.030000
842.812855	394.710000
845.047074	387.900000
847.278772	382.820000
849.509915	386.590000
851.740503	391.440000
853.970537	381.480000
856.200017	395.190000
858.425015	392.440000
860.653388	389.700000
862.877281	391.480000
865.102586	392.890000
867.323415	398.170000
869.547616	398.610000
871.767344	389.800000
873.988482	398.900000
876.209070	395.040000
878.427149	391.900000
880.646637	395.590000
882.861659	396.820000
885.076133	400.490000
887.290060	391.460000
889.503440	395.540000
891.716272	395.410000
893.928558	384.860000
896.138341	394.030000
898.347579	380.560000
900.556272	393.100000
902.762465	382.200000
904.970069	395.680000
907.175174	391.600000
909.379736	392.320000
911.581803	394.370000
913.785279	390.390000
915.986261	387.550000
918.186701	389.530000
920.388550	384.030000
922.584008	389.550000
924.782825	380.510000
926.977203	386.620000
929.174939	384.550000
931.368239	391.400000
933.562948	395.190000
935.755171	395.910000
937.946855	390.900000
940.138002	405.260000
942.326666	401.380000
944.514794	403.010000
946.700441	403.210000
948.889440	409.260000
951.074016	396.950000
953.258057	415.780000
955.445448	411.520000
957.624535	410.540000
959.806973	410.710000
961.988877	413.130000
964.168306	419.990000
966.345263	411.600000
968.523628	407.060000
970.703400	417.180000
972.876823	412.820000
975.053592	411.070000
977.225954	414.120000
979.399724	418.410000
981.569090	410.190000
983.741800	429.200000
985.912045	418.960000
988.081760	414.590000
990.250948	419.070000
992.415738	423.810000
994.583869	412.530000
996.747605	410.740000
998.912749	416.880000
1001.075433	415.630000
1003.237592	415.700000
1005.397294	425.130000
1007.556471	413.590000
1009.717055	420.190000
1011.875184	418.430000
1014.032790	421.350000
1016.189872	412.410000
1018.346430	422.490000
1020.498609	422.180000
1022.652195	423.870000
1024.805259	418.160000
1026.955874	425.650000
1029.107896	418.320000
1031.255544	416.980000
1033.406524	418.610000
1035.553133	419.960000
1037.699223	419.970000
1039.844795	426.070000
1041.991772	417.120000
1044.132460	419.110000
1046.276478	409.330000
1048.418055	418.880000
1050.559115	419.820000
1052.701581	412.770000
1054.837766	413.000000
1056.977278	419.570000
1059.112435	419.860000
1061.250916	413.100000
1063.385043	417.080000
1065.518657	424.640000
1067.653675	417.670000
1069.784345	421.840000
1071.916419	423.750000
1074.046064	415.990000
1076.175197	418.750000
1078.303818	413.780000
1080.431928	419.040000
1082.557612	415.400000
1084.682786	414.410000
1086.809364	414.900000
1088.931604	416.680000
1091.055249	413.680000
1093.174559	408.540000
1095.299098	419.340000
1097.417393	407.550000
1099.537092	408.900000
1101.654372	409.520000
1103.771145	413.070000
1105.887413	410.250000
1108.001264	413.100000
1110.116520	402.750000
1112.227452	415.020000
1114.341697	413.510000
1116.451621	406.680000
1118.562949	405.050000
1120.673772	411.700000
1122.780279	405.730000
1124.890095	410.310000
1126.995598	402.850000
1129.102503	407.110000
1131.203193	399.010000
1133.309095	403.340000
1135.410688	406.260000
1137.513684	403.870000
1139.616179	396.300000
1141.712467	406.800000
1143.813962	406.870000
1145.911155	404.080000
1148.007850	396.780000
1150.104046	396.120000
1152.199744	398.250000
1154.294945	399.080000
1156.387749	387.060000
1158.481955	398.910000
1160.569970	404.570000
1162.663184	392.430000
1164.750209	395.430000
1166.840533	396.750000
1168.926569	395.430000
1171.015904	399.780000
1173.099057	400.230000
1175.183612	397.600000
1177.269569	394.820000
1179.351244	395.370000
1181.434320	395.890000
1183.515011	400.740000
1185.595211	397.800000
1187.674919	402.300000
1189.754136	403.400000
1191.830971	397.460000
1193.905424	401.960000
1195.983170	402.070000
1198.056646	392.890000
1200.131522	400.260000
1202.202131	394.080000
1204.274141	396.640000
1206.343775	398.150000
1208.414810	392.990000
1210.485358	397.720000
1212.551644	392.960000
1214.619331	393.620000
1216.684646	392.190000
1218.751361	394.120000
1220.813820	403.250000
1222.879564	393.680000
1224.941054	402.800000
1227.003945	400.190000
1229.064468	400.660000
1231.124507	392.090000
1233.184063	397.630000
1235.241255	403.320000
1237.297965	402.700000
1239.352311	402.920000
1241.409939	402.970000
1243.465203	398.770000
1245.516228	402.800000
1247.568652	399.490000
1249.620596	405.850000
1251.670182	401.970000
1253.719289	413.270000
1255.767917	397.220000
1257.816067	410.710000
1259.863739	404.770000
1261.907180	414.990000
1263.953897	404.960000
1265.998260	406.530000
1268.042147	410.610000
1270.083682	403.720000
1272.122868	399.980000
1274.165327	405.360000
1276.203563	410.070000
1278.243198	413.160000
1280.282358	407.120000
1282.317299	410.590000
1284.353639	408.190000
1286.387635	411.870000
1288.423028	403.730000
1290.454209	413.540000
1292.486787	412.480000
1294.518894	415.060000
1296.548660	412.650000
1298.579823	413.440000
1300.606780	409.250000
1302.635134	414.100000
1304.659283	418.160000
1306.686698	413.290000
1308.709910	419.490000
1310.734520	419.800000
1312.756796	416.460000
1314.780468	423.560000
1316.801808	415.230000
1318.822681	418.090000
1320.843086	418.430000
1322.859298	421.040000
1324.876907	408.800000
1326.892188	419.060000
1328.910728	419.190000
1330.925079	425.070000
1332.937103	420.980000
1334.952386	425.130000
1336.963483	417.870000
1338.975977	420.670000
1340.984288	420.650000
1342.995854	427.860000
1345.001382	417.010000
1347.010165	419.790000
1349.014770	418.140000
1351.022629	422.740000
1353.030026	425.770000
1355.031392	424.360000
1357.034154	419.070000
1359.036457	430.390000
1361.038300	410.710000
1363.039683	420.430000
1365.038753	423.090000
1367.037364	428.310000
1369.035516	421.790000
1371.033211	410.090000
1373.026743	422.410000
1375.021670	423.830000
1377.016141	418.840000
1379.010155	419.260000
1381.001862	423.840000
1382.993113	420.390000
1384.982059	417.640000
1386.972401	420.430000
1388.962287	422.420000
1390.949869	427.980000
1392.936998	423.340000
1394.921825	427.830000
1396.908047	427.240000
1398.891968	427.760000
1400.875437	423.850000
1402.858454	431.000000
1404.839173	429.170000
1406.821286	422.220000
1408.801103	427.820000
1410.780468	424.860000
1412.755695	423.040000
1414.734160	426.120000
1416.710332	429.240000
1418.686054	432.280000
1420.661328	425.430000
1422.634310	430.310000
1424.606844	430.110000
1426.578930	425.510000
1428.550569	430.860000
1430.518079	421.290000
1432.490663	432.890000
1434.455441	436.080000
1436.425292	427.550000
1438.391019	433.150000
1440.358138	434.140000
1442.322974	430.100000
1444.283690	434.280000
1446.249474	436.840000
1448.209303	427.730000
1450.170526	439.590000
1452.133140	424.820000
1454.091640	428.930000
1456.049698	436.320000
1458.007314	436.680000
1459.964487	426.040000
1461.919385	437.080000
1463.875676	428.990000
1465.829692	431.710000
1467.783267	434.770000
1469.734570	424.320000
1471.687265	428.330000
1473.637689	426.120000
1475.587674	427.760000
1477.537220	432.640000
1479.484497	417.180000
1481.429506	431.480000
1483.375908	435.960000
1485.321872	434.190000
1487.267399	430.630000
1489.210660	431.000000
1491.153486	428.550000
1493.094047	428.090000
1495.036001	428.780000
1496.975692	427.520000
1498.914948	422.590000
1500.853770	434.000000
1502.790332	422.890000
1504.728285	428.900000
1506.663979	424.250000
1508.599240	433.850000
1510.532244	414.650000
1512.464817	425.250000
1514.396956	420.920000
1516.328664	423.290000
1518.258119	423.560000
1520.188964	426.530000
1522.119377	422.180000
1524.045718	424.840000
1525.973449	420.100000
1527.898931	418.490000
1529.823983	422.010000
1531.748606	420.320000
1533.672799	419.180000
1535.594746	421.760000
1537.518083	419.740000
1539.439173	423.190000
1541.358019	422.800000
1543.278255	430.360000
1545.196248	420.250000
1547.113813	427.410000
1549.029138	431.810000
1550.945852	432.340000
1552.858511	430.150000
1554.774373	433.660000
1556.687997	434.850000
1558.599382	434.480000
1560.512157	423.670000
1562.420882	428.850000
1564.330996	430.950000
1566.240687	431.640000
1568.149955	430.810000
1570.056989	433.990000
1571.961790	433.830000
1573.867979	439.660000
1575.771938	432.870000
1577.675475	440.750000
1579.578592	442.560000
1581.479479	463.390000
1583.381755	462.280000
1585.281803	483.720000
1587.183238	483.360000
1589.080640	475.170000
1590.977623	479.370000
1592.874188	468.830000
1594.772140	449.200000
1596.664258	445.150000
1598.559570	435.330000
1600.454464	437.890000
1602.347136	437.330000
1604.239391	437.740000
1606.129427	430.790000
1608.019047	436.990000
1609.908252	431.500000
1611.797041	432.360000
1613.683614	429.670000
1615.571574	434.610000
1617.455517	429.880000
1619.340847	434.740000
1621.225764	433.400000
1623.108467	429.140000
1624.992557	424.710000
1626.872635	429.040000
1628.754101	428.650000
1630.633356	426.230000
1632.513997	426.070000
1634.388834	428.650000
1636.268652	427.590000
1638.144466	424.420000
1640.019869	421.000000
1641.896658	426.350000
1643.767651	416.500000
1645.641825	423.290000
1647.512000	418.120000
1649.385356	417.580000
1651.256509	418.600000
1653.125461	418.350000
1654.995797	416.920000
1656.862141	414.170000
1658.729870	408.980000
1660.595400	422.390000
1662.462316	411.310000
1664.325242	418.800000
1666.189555	409.230000
1668.051671	411.820000
1669.913382	410.530000
1671.776479	409.620000
1673.637380	410.730000
1675.496089	410.820000
1677.354394	402.000000
1679.214083	412.450000
1681.068006	407.710000
1682.925102	410.900000
1684.781794	409.260000
1686.634511	406.610000
1688.490399	409.430000
1690.342313	413.320000
1692.193826	406.730000
1694.044938	408.830000
1695.895649	406.580000
1697.745960	410.730000
1699.594087	405.190000
1701.443598	412.970000
1703.287359	394.440000
1705.136071	406.080000
1706.979036	405.040000
1708.825168	404.670000
1710.667337	397.190000
1712.512672	414.570000
1714.352266	408.850000
1716.193244	407.650000
1718.035605	405.980000
1719.874010	405.820000
1721.713798	409.250000
1723.551410	409.800000
1725.388628	400.550000
1727.223672	410.600000
1729.060099	398.650000
1730.894353	403.880000
1732.728214	403.960000
1734.561680	405.760000
1736.391200	408.180000
1738.223880	402.760000
1740.052615	401.960000
1741.884507	402.630000
1743.712457	407.510000
1745.540015	398.450000
1747.367182	403.270000
1749.193957	402.890000
1751.020340	395.450000
1752.842787	402.170000
1754.668389	399.800000
1756.490056	396.580000
1758.313104	397.530000
1760.133992	402.690000
1761.954491	400.900000
1763.776370	400.400000
1765.592550	402.710000
1767.411883	399.210000
1769.227287	396.990000
1771.045843	402.270000
1772.860473	407.520000
1774.674716	405.050000
1776.488573	402.620000
1778.302043	399.620000
1780.113360	403.120000
1781.926057	406.710000
1783.738369	400.170000
1785.546762	403.390000
1787.356537	401.820000
1789.162397	408.200000
1790.971402	398.580000
1792.776494	399.420000
1794.582967	401.130000
1796.389056	406.410000
1798.191234	397.880000
1799.996557	398.770000
1801.797971	395.740000
1803.600765	399.730000
1805.399653	394.460000
1807.199922	403.070000
1808.999809	396.130000
1810.797554	394.040000
1812.594919	390.350000
1814.391903	405.200000
1816.188508	400.030000
1817.982973	403.140000
1819.778817	392.010000
1821.569006	400.330000
1823.364092	393.190000
1825.153525	401.150000
1826.946096	394.210000
1828.736531	401.870000
1830.524832	386.150000
1832.316267	397.740000
1834.102058	392.970000
1835.889228	399.730000
1837.674266	391.200000
1839.462438	396.320000
1841.246724	395.150000
1843.028880	396.070000
1844.812416	393.890000
1846.593823	397.290000
1848.376609	405.300000
1850.155514	406.520000
1851.935798	395.360000
1853.713957	407.350000
1855.493494	396.530000
1857.270905	400.890000
1859.046194	402.870000
1860.822860	408.680000
1862.597404	406.490000
1864.373325	405.840000
1866.143627	401.740000
1867.917056	407.100000
1869.688365	408.120000
1871.459303	407.070000
1873.231619	402.800000
1874.998321	414.040000
1876.768148	402.440000
1878.534112	412.850000
1880.303200	411.260000
1882.068426	412.170000
1883.833284	415.090000
1885.599519	409.240000
1887.361895	401.730000
1889.123903	410.010000
1890.885545	404.490000
1892.646819	401.670000
1894.407727	408.830000
1896.168268	412.490000
1897.926699	397.800000
1899.684764	403.810000
1901.440722	403.340000
1903.198056	401.370000
1904.955025	398.780000
1906.709887	397.690000
1908.462645	400.560000
1910.215038	399.370000
1911.968808	397.880000
1913.720474	393.700000
1915.470038	400.250000
1917.220977	395.630000
1918.971553	400.360000
1920.718291	398.150000
1922.466404	406.480000
1924.212419	399.560000
1925.959808	398.220000
1927.705100	394.260000
1929.448294	401.250000
1931.192863	404.240000
1932.935336	401.940000
1934.677450	402.300000
1936.419203	400.530000
1938.160596	406.320000
1939.899896	405.410000
1941.638837	402.970000
1943.377419	404.510000
1945.113910	405.150000
1946.850043	405.730000
1948.587550	406.310000
1950.321235	404.070000
1952.056295	407.920000
1953.789266	402.300000
1955.521881	400.670000
1957.254140	404.520000
1958.986042	406.020000
1960.715858	408.550000
1962.443589	407.720000
1964.172695	408.210000
1965.901445	408.800000
1967.628113	405.250000
1969.354426	409.020000
1971.082112	406.740000
1972.804262	415.890000
1974.529513	406.310000
1976.250957	414.120000
1977.975501	405.430000
1979.697966	407.940000
1981.416628	408.990000
1983.138388	417.540000
1984.856346	405.520000
1986.575677	416.220000
1988.291209	413.420000
1990.011561	416.450000
1991.728115	406.370000
1993.440872	410.000000
1995.156725	415.320000
1996.870506	416.640000
1998.583937	417.740000
2000.295297	421.300000
2002.008029	415.870000
2003.716971	415.050000
2005.429005	410.650000
2007.135530	412.210000
2008.845148	414.680000
2010.552698	417.580000
2012.259901	413.270000
2013.965038	421.840000
2015.669829	414.920000
2017.375991	417.550000
2019.078371	421.430000
2020.782122	417.150000
2022.483811	412.780000
2024.185154	421.810000
2025.886153	413.740000
2027.585090	415.650000
2029.285399	409.630000
2030.981932	416.420000
2032.679837	413.490000
2034.375684	418.250000
2036.074616	414.960000
2037.768062	425.560000
2039.462879	412.490000
2041.157354	421.910000
2042.848060	414.550000
2044.541850	417.100000
2046.231873	419.190000
2047.923267	417.750000
2049.612608	414.220000
2051.303319	417.160000
2052.990267	413.120000
2054.676876	421.240000
2056.364854	415.890000
2058.049073	415.670000
2059.734663	400.530000
2061.419912	410.060000
2063.103114	408.250000
2064.787686	417.170000
2066.466794	406.300000
2068.150689	409.300000
2069.829122	404.480000
2071.510633	407.680000
2073.188392	401.620000
2074.865815	404.070000
2076.544607	403.280000
2078.221357	403.330000
2079.896064	405.090000
2081.572142	398.770000
2083.246178	392.460000
2084.919880	399.280000
2086.593246	399.540000
2088.264573	402.310000
2089.935566	396.410000
2091.606225	401.360000
2093.276550	394.210000
2094.946541	399.250000
2096.614496	409.930000
2098.282117	406.690000
2099.947705	402.820000
2101.614661	410.640000
2103.279584	404.840000
2104.944175	406.490000
2106.606734	396.290000
2108.270661	408.100000
2109.932557	396.220000
2111.594123	402.650000
2113.255357	405.680000
2114.914563	406.010000
2116.573438	405.500000
2118.231984	408.950000
2119.890199	402.070000
2121.544692	408.170000
2123.202249	399.950000
2124.859476	404.310000
2126.512983	399.990000
2128.167857	396.480000
2129.819012	402.260000
2131.473230	395.540000
2133.123730	397.790000
2134.775598	396.300000
2136.422057	390.170000
2138.073271	399.410000
2139.720771	398.970000
2141.369638	403.550000
2143.016486	399.310000
2144.663009	396.340000
2146.309206	399.530000
2147.951695	400.460000
2149.597241	394.580000
2151.239082	403.610000
2152.883979	397.130000
2154.525170	394.670000
2156.166038	405.280000
2157.806583	402.890000
2159.445115	396.400000
2161.085013	402.120000
2162.721211	396.740000
2164.358775	403.250000
2165.996017	393.990000
2167.631249	398.330000
2169.266159	401.210000
2170.900748	389.420000
2172.535016	392.230000
2174.165590	392.920000
2175.799216	394.790000
2177.429150	402.560000
2179.060449	387.160000
2180.689743	396.530000
2182.318718	390.700000
2183.947373	394.610000
2185.575709	383.860000
2187.202043	391.080000
2188.828057	388.150000
2190.452071	389.710000
2192.077450	384.750000
2193.700828	394.140000
2195.325571	386.070000
2196.946633	391.680000
2198.567378	388.450000
2200.189487	389.110000
2201.809599	388.770000
2203.427715	389.670000
2205.045515	390.760000
2206.663000	388.850000
2208.280169	388.280000
2209.897023	394.650000
2211.513561	387.910000
2213.128107	389.610000
2214.740660	385.640000
2216.354577	386.020000
2217.966503	386.460000
2219.579792	389.530000
2221.191091	388.310000
2222.800400	383.540000
2224.411073	384.820000
2226.019757	388.450000
2227.628128	381.470000
2229.234513	389.710000
2230.842260	391.920000
2232.448022	389.050000
2234.053472	386.490000
2235.656937	395.840000
2237.261765	384.870000
2238.864609	396.340000
2240.465470	393.150000
2242.067694	388.600000
2243.667936	395.090000
2245.269540	389.530000
2246.867491	388.180000
2248.466805	389.490000
2250.064139	394.990000
2251.661165	395.730000
2253.259553	390.650000
2254.854292	394.730000
2256.447054	387.990000
2258.041179	395.380000
2259.636665	395.130000
2261.228506	390.600000
2262.820041	392.410000
2264.412938	397.950000
2266.000525	394.090000
2267.592808	398.460000
2269.179785	394.440000
2270.769789	399.080000
2272.354489	392.200000
2273.943883	397.930000
2275.527974	388.670000
2277.113427	396.630000
2278.696911	390.150000
2280.283420	392.000000
2281.866296	387.820000
2283.448869	386.660000
2285.031138	387.000000
2286.609777	390.930000
2288.191441	391.660000
2289.769476	391.620000
2291.350534	384.220000
2292.927965	382.850000
2294.503433	381.480000
2296.081923	387.310000
2297.656789	380.870000
2299.231354	383.540000
2300.805618	380.570000
2302.379583	382.470000
2303.953246	380.410000
2305.526610	386.110000
2307.096355	366.840000
2308.665801	383.870000
2310.238265	375.950000
2311.805455	381.350000
2313.375663	371.360000
2314.942256	370.910000
2316.510209	372.930000
2318.076206	380.750000
2319.641906	379.640000
2321.207308	384.850000
2322.770757	375.540000
2324.335565	392.000000
2325.896765	395.270000
2327.460979	396.690000
2329.019931	402.600000
2330.581897	397.070000
2332.141913	390.600000
2333.701633	382.100000
2335.259405	386.620000
2336.816881	379.700000
2338.374063	379.090000
2339.929297	382.600000
2341.484238	383.430000
2343.038884	378.720000
2344.593237	378.600000
2346.147296	383.910000
2347.701062	377.870000
2349.252883	382.040000
2350.802762	372.260000
2352.355648	379.290000
2353.903291	373.330000
2355.453943	373.080000
2357.001003	374.150000
2358.549421	372.760000
2360.097548	385.880000
2361.642086	374.510000
2363.187982	372.500000
2364.731940	371.080000
2366.277254	367.150000
2367.818985	370.980000
2369.362072	368.310000
2370.903223	374.020000
2372.444085	375.230000
2373.984658	380.020000
2375.524942	371.710000
2377.064937	371.030000
2378.601354	379.940000
2380.140772	369.640000
2381.676612	367.590000
2383.213810	370.260000
2384.747432	372.930000
2386.284054	374.940000
2387.818746	376.650000
2389.351508	370.020000
2390.883983	374.540000
2392.414530	375.350000
2393.948075	377.440000
2395.476409	377.120000
2397.006099	380.540000
2398.535504	372.960000
2400.064624	381.360000
2401.593458	376.780000
2403.117088	381.790000
2404.645353	373.490000
2406.168416	383.050000
2407.696112	387.890000
2409.216969	370.530000
2410.742458	383.940000
2412.264388	377.560000
2413.787672	382.510000
2415.309036	383.460000
2416.828480	386.900000
2418.349279	372.950000
2419.868159	379.950000
2421.386758	382.830000
2422.903439	385.770000
2424.421474	375.620000
2425.939228	375.820000
2427.453430	386.380000
2428.967353	372.680000
2430.480995	378.710000
2431.995992	378.620000
2433.507440	374.740000
2435.020242	377.620000
2436.531132	370.770000
2438.041743	378.730000
2439.550442	378.290000
2441.062127	371.560000
2442.570269	368.440000
2444.078133	374.230000
2445.585718	374.330000
2447.089764	383.500000
2448.596794	369.000000
2450.101916	375.920000
2451.606761	372.060000
2453.109699	375.290000
2454.612361	358.870000
2456.114746	375.600000
2457.615226	366.050000
2459.117059	364.330000
2460.616987	365.590000
2462.116640	371.940000
2463.616018	363.830000
2465.113493	365.800000
2466.609066	360.700000
2468.107619	368.410000
2469.602644	356.750000
2471.099021	363.550000
2472.591872	355.870000
2474.086076	365.910000
2475.580006	358.710000
2477.070412	360.560000
2478.563796	362.870000
2480.055282	357.300000
2481.544871	360.050000
2483.034188	362.310000
2484.521609	361.420000
2486.012006	367.370000
2487.498885	363.650000
2488.987115	357.820000
2490.471828	357.380000
2491.956272	363.820000
2493.442066	350.470000
2494.925969	366.910000
2496.411222	361.000000
2497.891342	364.890000
2499.374435	364.140000
2500.855637	365.560000
2502.336570	364.770000
2503.815614	367.070000
2505.294389	361.180000
2506.772896	363.060000
2508.251135	367.240000
2509.729105	366.310000
2511.203570	363.040000
2512.681005	362.610000
2514.154936	362.810000
2515.630217	365.760000
2517.105231	366.640000
2518.576744	365.040000
2520.049608	361.100000
2521.520589	360.940000
2522.992920	362.470000
2524.460137	364.690000
2525.930321	364.230000
2527.398624	366.350000
2528.866662	364.200000
2530.334435	369.400000
2531.801943	364.050000
2533.269186	368.040000
2534.732937	367.060000
2536.198038	367.830000
2537.661262	362.060000
2539.125835	370.350000
2540.586920	363.430000
2542.049354	366.150000
2543.511525	367.300000
2544.970210	370.950000
2546.433466	359.560000
2547.891626	373.820000
2549.351136	362.490000
2550.805551	362.650000
2552.264537	363.400000
2553.721651	368.540000
2555.176893	367.170000
2556.631875	371.550000
2558.084988	361.710000
2559.539448	364.220000
2560.992040	364.230000
2562.444372	370.450000
2563.894837	363.680000
2565.348257	367.140000
2566.796595	360.940000
2568.247888	371.440000
2569.697316	363.020000
2571.143271	373.590000
2572.592181	360.400000
2574.037621	372.830000
2575.484408	359.710000
2576.929332	364.000000
2578.373999	367.610000
2579.820013	365.480000
2581.262561	371.520000
2582.706456	367.890000
2584.146885	365.060000
2585.588663	367.010000
2587.028581	356.540000
2588.469846	359.850000
2589.907649	357.790000
2591.348402	367.070000
2592.784093	360.380000
2594.222732	362.160000
2595.659515	361.040000
2597.094442	367.010000
2598.532316	363.790000
2599.965133	366.320000
2601.399297	365.960000
2602.831607	365.750000
2604.265263	360.700000
2605.697066	365.050000
2607.128615	365.940000
2608.559912	365.960000
2609.989356	368.780000
2611.418548	365.190000
2612.845890	357.180000
2614.274577	361.220000
2615.703013	358.900000
2617.128001	363.410000
2618.554336	360.730000
2619.978822	364.390000
2621.404654	359.940000
2622.827042	365.370000
2624.250776	359.170000
2625.672663	360.850000
2627.094300	360.270000
2628.514093	359.130000
2629.935231	356.570000
2631.356119	360.700000
2632.773568	352.150000
2634.193958	353.580000
2635.610910	357.800000
2637.027613	359.310000
2638.444068	348.110000
2639.860275	357.380000
2641.276234	350.710000
2642.690352	354.170000
2644.104222	357.360000
2645.516253	353.860000
2646.929629	353.090000
2648.339575	351.690000
2649.752457	353.930000
2651.161910	356.090000
2652.571117	349.830000
2653.978488	363.580000
2655.388793	351.920000
2656.797263	358.050000
2658.203897	360.160000
2659.610286	360.940000
2661.014841	353.600000
2662.420740	363.670000
2663.824806	355.980000
2665.228627	360.150000
2666.632204	360.640000
2668.033950	369.640000
2669.437039	366.250000
2670.836710	371.040000
2672.237725	367.600000
2673.635324	373.720000
2675.035852	366.900000
2676.432966	372.030000
2677.831423	373.340000
2679.228053	379.090000
2680.624440	372.770000
2682.020585	381.580000
2683.414904	376.580000
2684.810566	386.910000
2686.202819	382.530000
2687.596414	384.280000
2688.988185	382.440000
2690.381299	383.500000
2691.772589	384.950000
2693.162056	382.170000
2694.551283	381.700000
2695.940271	379.290000
2697.330600	377.330000
2698.715946	384.640000
2700.104215	377.180000
2701.490664	380.920000
2702.876874	367.080000
2704.262845	374.790000
2705.645418	377.520000
2707.029333	378.530000
2708.413010	365.640000
2709.796448	363.750000
2711.176491	363.000000
2712.557876	366.260000
2713.937446	356.630000
2715.318356	364.940000
2716.697452	369.330000
2718.074734	360.560000
2719.453357	359.150000
2720.830166	367.590000
2722.206740	352.990000
2723.583078	359.790000
2724.957604	359.720000
2726.333471	365.240000
2727.705952	365.860000
2729.081348	363.140000
2730.451784	357.450000
2731.823561	367.410000
2733.195103	354.840000
2734.564837	363.970000
2735.935911	358.420000
2737.305178	364.350000
2738.674211	356.490000
2740.041438	359.430000
2741.408431	354.450000
2742.775192	353.200000
2744.141720	351.580000
2745.506444	358.100000
2746.870935	361.290000
2748.235195	361.350000
2749.599222	357.610000
2750.963018	358.600000
2752.323440	350.890000
2753.686772	356.180000
2755.045162	356.510000
2756.406462	356.590000
2757.764392	347.850000
2759.125230	353.520000
2760.484268	348.710000
2761.839939	352.190000
2763.198517	352.880000
2764.553728	349.220000
2765.908710	353.430000
2767.261895	348.930000
2768.617987	349.380000
2769.970715	353.790000
2771.323215	351.840000
2772.675486	347.350000
2774.029095	353.370000
2775.379344	347.450000
2776.727798	342.170000
2778.079157	344.430000
2779.427158	343.050000
2780.776496	344.870000
2782.124042	350.220000
2783.471362	350.430000
2784.818455	340.430000
2786.163756	341.980000
2787.508832	344.950000
2788.853682	347.210000
2790.198306	341.660000
2791.539578	344.360000
2792.882187	338.160000
2794.224572	345.390000
2795.566731	344.880000
2796.905541	346.530000
2798.247251	343.620000
2799.585612	347.300000
2800.925311	336.090000
2802.263225	352.410000
2803.599353	341.560000
2804.935259	349.450000
2806.272502	344.400000
2807.607961	350.020000
2808.943197	349.820000
2810.276650	354.020000
2811.611440	349.410000
2812.942890	351.140000
2814.277235	348.160000
2815.606682	356.980000
2816.937465	350.180000
2818.268028	347.820000
2819.596811	352.380000
2820.926930	355.410000
2822.255271	347.330000
2823.583391	352.970000
2824.909733	348.220000
2826.237412	356.990000
2827.561757	354.770000
2828.887439	359.060000
2830.211345	348.420000
2831.535031	357.450000
2832.860053	341.740000
2834.181746	352.220000
2835.503220	342.190000
2836.824475	346.600000
2838.145511	350.070000
2839.464774	347.600000
2840.785373	351.030000
2842.104200	349.300000
2843.422810	343.880000
2844.739648	351.750000
2846.056269	340.140000
2847.372673	347.820000
2848.687307	342.500000
2850.003277	339.050000
2851.315926	336.650000
2852.629910	340.570000
2853.943678	339.550000
2855.257229	334.140000
2856.569014	339.040000
2857.879032	345.020000
2859.190385	335.730000
2860.498423	342.400000
2861.807795	340.140000
2863.116952	345.940000
2864.425895	337.680000
2865.733073	348.200000
2867.038489	345.350000
2868.345238	345.870000
2869.650226	339.630000
2870.954999	343.790000
2872.258012	339.340000
2873.563905	345.540000
2874.864944	344.720000
2876.167317	346.880000
2877.467930	336.930000
2878.769877	348.230000
2880.071610	339.270000
2881.370040	347.090000
2882.669803	342.800000
2883.967809	333.470000
2885.265603	341.730000
2886.561641	346.850000
2887.859012	338.770000
2889.154627	332.400000
2890.450031	333.260000
2891.745224	339.710000
2893.037120	331.260000
2894.331892	334.180000
2895.623367	330.630000
2896.916175	337.170000
2898.208773	324.910000
2899.498077	339.080000
2900.788713	326.230000
2902.077598	335.270000
2903.367815	328.610000
2904.654741	329.820000
2905.942999	328.990000
2907.229508	338.070000
2908.515808	331.510000
2909.801900	334.440000
2911.086245	324.410000
2912.373460	331.280000
2913.655849	329.660000
2914.939570	342.010000
2916.221545	336.240000
2917.503312	328.910000
2918.783334	329.670000
2920.066227	333.720000
2921.347374	330.600000
2922.625239	331.320000
2923.905973	329.500000
2925.183426	333.690000
2926.460673	328.630000
2927.736178	327.110000
2929.014551	330.520000
2930.288110	334.160000
2931.564536	328.510000
2932.839221	327.570000
2934.112165	329.060000
2935.386441	332.200000
2936.658977	325.650000
2937.931308	333.130000
2939.200367	323.840000
2940.472291	326.610000
2941.742477	328.860000
2943.012459	322.640000
2944.282238	320.820000
2945.550281	323.050000
2946.816587	320.780000
2948.082691	327.020000
2949.350126	326.130000
2950.615825	324.930000
2951.881323	322.100000
2953.146618	329.730000
2954.408648	320.350000
2955.672008	324.650000
2956.935167	320.150000
2958.196594	329.490000
2959.459350	323.400000
2960.720374	321.830000
2961.979668	324.600000
2963.238761	319.650000
2964.497655	316.060000
2965.756348	321.630000
2967.014841	321.620000
2968.271604	324.220000
2969.528169	319.870000
2970.783005	317.960000
2972.039171	327.990000
2973.292082	327.850000
2974.546321	323.740000
2975.800362	324.700000
2977.052677	317.120000
2978.304794	332.090000
2979.555186	317.000000
2980.808433	319.840000
2982.056903	320.260000
2983.308228	322.030000
2984.556303	315.960000
2985.804181	323.000000
2987.051863	318.490000
2988.299347	326.360000
2989.545110	313.370000
2990.790677	320.330000
2992.037571	311.950000
2993.281221	318.950000
2994.526199	317.990000
2995.767933	319.060000
2997.012519	319.160000
2998.255386	321.960000
2999.495012	314.850000
3000.737488	315.040000
3001.976724	320.420000
3003.217288	318.910000
3004.456135	311.690000
3005.694788	321.290000
3006.931725	312.520000
3008.169990	319.180000
3009.406539	312.890000
3010.642895	317.450000
3011.879057	320.700000
3013.113505	315.540000
3014.347760	316.960000
3015.581823	315.300000
3016.814172	313.410000
3018.044810	320.640000
3019.278294	311.030000
3020.510067	318.200000
3021.740129	319.380000
3022.969998	314.850000
3024.198158	306.630000
3025.427645	321.410000
3026.655422	316.510000
3027.883008	322.080000
3029.111920	315.600000
3030.336090	313.920000
3031.563104	313.050000
3032.786893	311.110000
3034.012009	315.290000
3035.235418	312.590000
3036.458637	313.040000
3037.680151	312.450000
3038.904506	306.060000
3040.124126	316.370000
3041.345072	313.930000
3042.565829	313.660000
3043.784882	307.030000
3045.005260	311.600000
3046.222422	306.570000
3047.440910	314.150000
3048.657695	308.240000
3049.874293	314.480000
3051.090702	317.190000
3052.303898	306.370000
3053.519933	307.700000
3054.732755	305.690000
3055.948413	304.210000
3057.159350	308.550000
3058.371611	305.410000
3059.583685	308.690000
3060.795573	311.230000
3062.005764	306.600000
3063.215768	305.970000
3064.425586	311.320000
3065.633708	309.710000
3066.841645	304.870000
3068.047886	306.760000
3069.255452	305.240000
3070.461323	304.165000
3071.667009	303.090000
3072.872511	299.990000
3074.076319	310.700000
3075.281451	304.520000
3076.484890	307.990000
3077.686638	301.200000
3078.888201	305.750000
3080.089581	297.920000
3081.290777	308.800000
3082.490283	300.180000
3083.689606	302.290000
3084.890252	302.240000
3086.089208	298.260000
3087.284970	291.100000
3088.483560	303.830000
3089.678958	296.340000
3090.875678	301.910000
3092.069206	294.430000
3093.265562	301.100000
3094.460231	290.940000
3095.651710	294.070000
3096.847521	290.870000
3098.038637	298.630000
3099.231077	301.270000
3100.420329	294.340000
3101.612406	282.790000
3102.802800	296.140000
3103.990008	287.000000
3105.178538	296.630000
3106.368391	296.170000
3107.555060	289.940000
3108.741548	286.670000
3109.927858	296.550000
3111.115489	288.100000
3112.299938	293.760000
3113.482708	289.590000
3114.668300	291.390000
3115.852213	290.940000
3117.034447	286.810000
3118.216502	290.180000
3119.398379	293.100000
3120.580078	286.190000
3121.760100	283.060000
3122.938445	283.410000
3124.119610	282.090000
3125.297600	289.660000
3126.475413	291.850000
3127.653049	280.260000
3128.829010	285.270000
3130.004795	284.120000
3131.181901	286.080000
3132.357332	270.110000
3133.531090	282.000000
3134.703175	276.900000
3135.876582	287.020000
3137.049812	282.260000
3138.221371	284.410000
3139.394250	281.460000
3140.563962	283.850000
3141.734995	290.720000
3142.904358	286.800000
3144.072050	284.810000
3145.242558	288.320000
3146.408408	282.980000
3147.578566	288.060000
3148.744068	286.930000
3149.909395	289.560000
3151.074549	284.880000
3152.239530	277.820000
3153.405830	285.090000
3154.567478	280.270000
3155.730445	281.910000
3156.893240	281.160000
3158.055862	271.500000
3159.216818	271.760000
3160.377603	265.040000
3161.538215	274.090000
3162.697163	267.640000
3163.855940	265.770000
3165.014544	261.280000
3166.172977	268.510000
3167.331239	266.630000
3168.487838	273.320000
3169.642776	269.240000
3170.799033	263.560000
3171.953629	266.080000
3173.108055	274.170000
3174.260821	264.610000
3175.413416	267.340000
3176.565842	262.380000
3177.718098	273.190000
3178.870183	267.610000
3180.019122	268.890000
3181.170869	269.230000
3182.320957	270.050000
3183.469389	271.390000
3184.617651	271.030000
3185.765745	271.480000
3186.913670	277.270000
3188.059939	277.280000
3189.206040	273.990000
3190.350487	270.030000
3191.494766	275.470000
3192.638877	276.960000
3193.784305	273.700000
3194.926595	269.110000
3196.068718	274.670000
3197.210673	275.880000
3198.352461	273.490000
3199.494082	267.090000
3200.632568	275.940000
3201.772371	271.310000
3202.913491	271.020000
3204.051478	271.370000
3205.187815	272.190000
3206.323986	267.400000
3207.461474	272.900000
3208.597314	264.600000
3209.734471	268.040000
3210.867015	274.270000
3212.003841	273.040000
3213.136055	272.850000
3214.269586	277.690000
3215.402953	261.740000
3216.533192	277.210000
3217.666229	266.810000
3218.796140	271.190000
3219.927367	265.900000
3221.055470	260.550000
3222.186369	260.520000
3223.315624	255.440000
3224.443236	250.500000
3225.567725	257.380000
3226.696490	253.520000
3227.822133	258.850000
3228.947613	254.570000
3230.071452	255.040000
3231.198086	256.960000
3232.320122	251.590000
3233.443474	251.790000
3234.566664	256.860000
3235.689691	252.690000
3236.811080	260.040000
3237.932306	258.810000
3239.051894	255.780000
3240.171321	254.840000
3241.289111	265.640000
3242.409692	258.760000
3243.527160	262.350000
3244.644467	263.590000
3245.761614	265.860000
3246.877124	261.950000
3247.993950	266.280000
3249.107666	267.150000
3250.224171	263.460000
3251.339042	261.780000
3252.450803	262.570000
3253.562406	262.730000
3254.675324	262.020000
3255.788082	261.870000
3256.897734	262.320000
3258.008701	261.710000
3259.119509	264.740000
3260.228685	262.540000
3261.336230	267.690000
3262.445090	259.530000
3263.553792	263.470000
3264.659391	261.640000
3265.766304	258.630000
3266.871588	259.720000
3267.978186	264.010000
3269.081684	264.410000
3270.186496	262.700000
3271.291151	255.660000
3272.392708	256.270000
3273.494108	259.730000
3274.596822	264.370000
3275.699380	263.200000
3276.798841	265.640000
3277.901086	262.290000
3279.000235	257.800000
3280.097760	251.700000
3281.195129	262.730000
3282.295280	254.330000
3283.392339	262.010000
3284.489242	257.960000
3285.585990	259.180000
3286.678179	253.710000
3287.774618	262.730000
3288.869434	260.170000
3289.964096	257.660000
3291.057136	265.290000
3292.150021	262.030000
3293.241286	255.040000
3294.333864	255.920000
3295.424822	260.850000
3296.514160	251.220000
3297.603345	251.770000
3298.693842	255.390000
3299.781256	252.430000
3300.868516	253.250000
3301.957089	253.320000
3303.045509	250.300000
3304.129383	249.100000
3305.217498	255.380000
3306.302531	246.810000
3307.385949	252.490000
3308.470679	250.510000
3309.553793	254.650000
3310.638220	252.980000
3311.719568	252.010000
3312.802228	258.270000
3313.883274	256.750000
3314.964168	259.160000
3316.043450	257.300000
3317.122581	254.340000
3318.203024	251.930000
3319.280392	253.540000
3320.359072	255.420000
3321.436140	253.270000
3322.513059	252.580000
3323.588366	249.070000
3324.663524	246.540000
3325.739993	251.730000
3326.813392	249.770000
3327.886641	252.950000
3328.961202	259.820000
3330.034154	255.370000
3331.105497	245.450000
3332.178151	249.410000
3333.247739	244.640000
3334.318637	253.170000
3335.387928	259.000000
3336.458529	250.920000
3337.527525	251.950000
3338.594914	246.970000
3339.660698	252.190000
3340.730708	247.430000
3341.797655	255.790000
3342.861540	249.780000
3343.928192	250.000000
3344.993241	247.220000
3346.056686	249.780000
3347.119985	239.250000
3348.183137	249.850000
3349.246143	248.030000
3350.309003	249.220000
3351.370261	247.430000
3352.428462	252.190000
3353.490883	247.640000
3354.550249	245.480000
3355.609469	242.790000
3356.669998	247.530000
3357.726019	239.400000
3358.784803	252.850000
3359.839080	246.620000
3360.896121	245.860000
3361.951563	249.650000
3363.008315	250.710000
3364.063468	249.420000
3365.117024	251.820000
3366.168984	246.170000
3367.223705	247.370000
3368.275377	248.550000
3369.326906	248.480000
3370.379743	251.490000
3371.429533	244.090000
3372.480632	248.910000
3373.528684	251.310000
3374.579497	241.400000
3375.627264	249.720000
3376.674889	240.660000
3377.722372	243.610000
3378.768262	245.620000
3379.815460	251.230000
3380.859616	242.340000
3381.906530	242.920000
3382.951852	243.610000
3383.994133	242.400000
3385.036273	242.760000
3386.079722	250.150000
3387.123029	242.120000
3388.164746	248.190000
3389.206323	248.940000
3390.247758	247.110000
3391.287605	250.750000
3392.325863	247.830000
3393.365429	246.700000
3394.404855	242.820000
3395.442693	243.330000
3396.478944	247.660000
3397.515056	243.050000
3398.552475	246.190000
3399.586861	237.710000
3400.622554	247.290000
3401.658108	240.600000
3402.690631	241.290000
3403.725906	235.530000
3404.758152	236.120000
3405.790259	238.980000
3406.820782	243.740000
3407.852612	241.240000
3408.884304	236.320000
3409.912968	238.160000
3410.941495	241.190000
3411.971328	242.450000
3413.001024	248.410000
3414.027694	241.240000
3415.055670	244.650000
3416.080623	234.190000
3417.108325	245.070000
3418.133003	239.420000
3419.158989	242.320000
3420.183394	235.970000
3421.207663	235.120000
3422.230353	237.170000
3423.252907	240.440000
3424.276767	240.030000
3425.297607	238.320000
3426.318311	230.300000
3427.340322	244.280000
3428.359314	231.030000
3429.378170	234.670000
3430.398333	226.560000
3431.415479	232.420000
