-117.841134	5.350000
-115.171534	1.560000
-112.504869	-0.140000
-109.838956	6.460000
-107.175976	3.750000
-104.511565	5.250000
-101.850085	0.660000
-99.187176	4.850000
-96.529373	-1.160000
-93.870141	-1.370000
-91.211657	1.540000
-88.556098	2.500000
-85.899109	4.550000
-83.247219	4.660000
-80.593899	-0.040000
-77.943498	4.780000
-75.291669	2.420000
-72.644930	-3.300000
-69.996761	2.650000
-67.349335	1.590000
-64.704824	1.020000
-62.058883	4.910000
-59.418024	5.790000
-56.775736	0.020000
-54.136357	0.990000
-51.495548	8.050000
-48.855480	5.780000
-46.220485	2.550000
-43.584060	2.990000
-40.950538	9.300000
-38.315588	3.360000
-35.685703	5.590000
-33.052226	0.280000
-30.423811	9.180000
-27.796130	2.810000
-25.167020	6.060000
-22.542967	2.790000
-19.915325	10.970000
-17.292737	9.070000
-14.670879	17.800000
-12.049752	28.140000
-9.429356	68.170000
-6.811847	221.630000
-4.192910	788.040000
-1.576858	2326.210000
1.038465	2793.660000
3.653060	1304.270000
6.264774	124.780000
8.877916	23.990000
11.486024	15.060000
14.097713	5.530000
16.704373	14.160000
19.312460	7.780000
21.919823	11.060000
24.522161	6.070000
27.128077	2.600000
29.728971	2.790000
32.331293	1.580000
34.928597	0.840000
37.529478	5.240000
40.125343	7.180000
42.722637	5.330000
45.319211	3.500000
47.910776	5.880000
50.503769	4.320000
53.093901	5.340000
55.685460	2.530000
58.274161	3.350000
60.864288	-3.200000
63.449416	1.610000
66.035972	0.300000
68.621814	9.490000
71.204802	0.660000
73.789216	5.830000
76.366502	1.830000
78.947354	2.590000
81.525357	1.000000
84.102650	6.080000
86.681369	3.420000
89.255106	0.070000
91.830271	3.230000
94.402592	10.810000
96.974205	0.730000
99.542978	11.390000
102.113178	-2.990000
104.680539	6.800000
107.249327	2.240000
109.815278	2.520000
112.378394	0.880000
114.945066	8.470000
117.502516	3.530000
120.065653	10.360000
122.623829	8.040000
125.185560	16.630000
127.742334	23.680000
130.300534	34.410000
132.853782	46.150000
135.406332	59.690000
137.962432	87.480000
140.513584	117.230000
143.064039	132.140000
145.613796	150.530000
148.160734	163.120000
150.706977	181.190000
153.254645	176.830000
155.801617	185.740000
158.343654	180.690000
160.884997	175.190000
163.425647	179.300000
165.967723	180.510000
168.506987	179.850000
171.043442	174.390000
173.579207	181.440000
176.116397	181.760000
178.652896	175.980000
181.186589	175.660000
183.717478	176.750000
186.247679	177.950000
188.779306	171.430000
191.308131	180.170000
193.834157	167.380000
196.359497	174.280000
198.886262	174.380000
201.410231	172.170000
203.933515	172.040000
206.456113	169.270000
208.975919	171.970000
211.495042	178.360000
214.013483	172.690000
216.533347	174.860000
219.046210	173.630000
221.562604	183.380000
224.078316	169.590000
226.589138	176.930000
229.101385	176.460000
231.610849	172.990000
234.119635	167.780000
236.627743	178.200000
239.137275	180.920000
241.641926	179.090000
244.145901	179.980000
246.651300	183.720000
249.151824	182.600000
251.655871	185.390000
254.152948	183.100000
256.653548	185.330000
259.151376	182.730000
261.648531	189.710000
264.145013	186.750000
266.636632	188.540000
269.131771	186.370000
271.624143	189.170000
274.115845	184.960000
276.604784	194.190000
279.095146	188.220000
281.582747	190.540000
284.067588	187.130000
286.555944	192.220000
289.037360	189.060000
291.522290	193.380000
294.002375	189.820000
296.485972	190.730000
298.964726	200.870000
301.444903	197.500000
303.922329	192.740000
306.399091	199.770000
308.875189	199.910000
311.348540	200.890000
313.821228	204.650000
316.293255	216.030000
318.764621	218.750000
321.233242	242.190000
323.701204	231.450000
326.170589	225.100000
328.635151	220.110000
331.103217	210.420000
333.566463	208.720000
336.029051	206.580000
338.490983	202.150000
340.952258	208.320000
343.410798	198.670000
345.870762	198.530000
348.327992	202.810000
350.784568	204.130000
353.240490	202.360000
355.693682	200.920000
358.148297	208.080000
360.598110	204.660000
363.051419	205.840000
365.499929	204.110000
367.947789	206.290000
370.397071	207.840000
372.841559	204.590000
375.287469	201.820000
377.732729	200.450000
380.175271	203.350000
382.617165	199.650000
385.058412	205.110000
387.496943	206.150000
389.936895	200.230000
392.374134	203.640000
394.808662	201.600000
397.246677	201.760000
399.679915	203.280000
402.114574	202.800000
404.544461	204.580000
406.977833	202.480000
409.406435	207.910000
411.834395	197.960000
414.263777	208.480000
416.688393	204.570000
419.114431	205.150000
421.539828	208.420000
423.964585	208.780000
426.384584	203.250000
428.806003	213.950000
431.224727	207.080000
433.644871	210.780000
436.062320	205.820000
438.481189	209.080000
440.897365	208.750000
443.308793	204.900000
445.723698	209.440000
448.135914	205.370000
450.547495	203.920000
452.958442	206.760000
455.366703	209.130000
457.774331	205.800000
460.181327	204.930000
462.587692	208.630000
464.991374	202.050000
467.394426	205.820000
469.796848	205.370000
472.198640	203.950000
474.597754	201.890000
476.998288	200.690000
479.398193	196.890000
481.793376	200.170000
484.192025	202.230000
486.585953	196.410000
488.979256	204.220000
491.371934	202.420000
493.763986	203.580000
496.157456	193.240000
498.546214	197.810000
500.932306	198.200000
503.319818	187.050000
505.706707	198.660000
508.090932	202.150000
510.476575	218.340000
512.859557	234.680000
515.239878	262.680000
517.621618	291.320000
520.000699	294.430000
522.381198	278.590000
524.759041	257.960000
527.134227	236.840000
529.508797	224.480000
531.884784	212.650000
534.258119	201.680000
536.632871	196.290000
539.002937	193.760000
541.372389	182.260000
543.743258	186.310000
546.109446	181.820000
548.477053	181.400000
550.842015	175.580000
553.206363	181.640000
555.570098	174.440000
557.935251	174.250000
560.295732	173.240000
562.657631	173.870000
565.016889	171.370000
567.373509	173.150000
569.733575	164.590000
572.086949	168.170000
574.443768	167.400000
576.797952	168.800000
579.151527	167.760000
581.504495	171.950000
583.854830	168.320000
586.206583	162.380000
588.551659	161.500000
590.902198	166.910000
593.246065	161.030000
595.595393	168.760000
597.940072	165.090000
600.282127	166.080000
602.625599	157.540000
604.966448	163.020000
607.306694	158.630000
609.644320	161.370000
611.985381	160.890000
614.321805	166.630000
616.659645	165.990000
618.994868	170.670000
621.327475	160.330000
623.661498	166.320000
625.992907	155.160000
628.323718	165.210000
630.653931	159.940000
632.983547	160.790000
635.308539	156.330000
637.638973	164.520000
639.964786	158.460000
642.287991	160.530000
644.612613	161.700000
646.934629	165.300000
649.256051	157.170000
651.574870	157.110000
653.895106	158.150000
656.214748	161.630000
658.531789	152.700000
660.848238	148.590000
663.162089	154.760000
665.477356	161.940000
667.790026	157.470000
670.104111	159.720000
672.413596	159.510000
674.724497	156.950000
677.032805	149.760000
679.340525	162.180000
681.649659	153.530000
683.954201	155.630000
686.258157	148.690000
688.561527	157.360000
690.866311	154.180000
693.166508	161.060000
695.468121	151.810000
697.769148	151.960000
700.065594	153.190000
702.363455	156.150000
704.660732	154.980000
706.957426	149.380000
709.249544	152.220000
711.545073	156.160000
713.836028	150.040000
716.128398	160.100000
718.418193	154.990000
720.707407	153.520000
722.996042	157.660000
725.282104	157.920000
727.569581	154.790000
729.854486	159.710000
732.138814	157.050000
734.420573	159.810000
736.703746	161.800000
738.986342	163.090000
741.264382	157.320000
743.543837	161.370000
745.822715	155.780000
748.101019	163.320000
750.374773	166.040000
752.649940	162.540000
754.924534	159.570000
757.196569	163.630000
759.470017	164.420000
761.740907	162.620000
764.009241	157.310000
766.278988	167.840000
768.546180	160.960000
770.812803	164.920000
773.078855	167.490000
775.342356	164.330000
777.607270	166.320000
779.871614	165.830000
782.131429	166.920000
784.392656	171.400000
786.653316	167.620000
788.911430	165.720000
791.166999	169.460000
793.425959	168.410000
795.678419	162.400000
797.936247	173.180000
800.189556	167.540000
802.440325	167.720000
804.692506	163.660000
806.942148	177.170000
809.193202	157.890000
811.439746	166.990000
813.687701	165.050000
815.933122	175.420000
818.179954	160.490000
820.426225	165.230000
822.667991	164.640000
824.913141	169.170000
827.151818	159.490000
829.393877	164.480000
831.631438	162.920000
833.870411	167.080000
836.106857	161.880000
838.344714	167.220000
840.580046	158.330000
842.812855	164.170000
845.047074	165.990000
847.278772	156.540000
849.509915	160.220000
851.740503	167.400000
853.970537	161.610000
856.200017	163.550000
858.425015	163.320000
860.653388	163.270000
862.877281	159.790000
865.102586	156.550000
867.323415	165.970000
869.547616	170.780000
871.767344	166.290000
873.988482	167.840000
876.209070	163.470000
878.427149	164.840000
880.646637	168.900000
882.861659	164.710000
885.076133	172.050000
887.290060	173.240000
889.503440	164.940000
891.716272	167.650000
893.928558	164.380000
896.138341	164.590000
898.347579	168.920000
900.556272	166.770000
902.762465	159.420000
904.970069	172.930000
907.175174	160.870000
909.379736	164.800000
911.581803	163.610000
913.785279	170.070000
915.986261	166.330000
918.186701	169.530000
920.388550	164.230000
922.584008	167.330000
924.782825	158.380000
926.977203	164.530000
929.174939	163.770000
931.368239	168.100000
933.562948	165.260000
935.755171	176.980000
937.946855	172.120000
940.138002	179.380000
942.326666	168.390000
944.514794	166.290000
946.700441	178.660000
948.889440	177.910000
951.074016	171.260000
953.258057	186.730000
955.445448	182.610000
957.624535	187.200000
959.806973	183.270000
961.988877	183.000000
964.168306	190.000000
966.345263	187.920000
968.523628	182.450000
970.703400	187.840000
972.876823	184.020000
975.053592	185.120000
977.225954	186.790000
979.399724	190.920000
981.569090	182.200000
983.741800	191.230000
985.912045	192.830000
988.081760	182.440000
990.250948	189.520000
992.415738	188.950000
994.583869	184.950000
996.747605	183.780000
998.912749	186.240000
1001.075433	188.550000
1003.237592	184.830000
1005.397294	191.340000
1007.556471	184.870000
1009.717055	191.910000
1011.875184	191.610000
1014.032790	190.870000
1016.189872	180.860000
1018.346430	189.940000
1020.498609	189.970000
1022.652195	191.510000
1024.805259	183.760000
1026.955874	194.040000
1029.107896	185.830000
1031.255544	191.640000
1033.406524	188.720000
1035.553133	189.400000
1037.699223	188.780000
1039.844795	196.920000
1041.991772	191.000000
1044.132460	193.320000
1046.276478	182.740000
1048.418055	188.560000
1050.559115	189.460000
1052.701581	194.980000
1054.837766	187.030000
1056.977278	191.560000
1059.112435	187.940000
1061.250916	193.380000
1063.385043	195.120000
1065.518657	196.670000
1067.653675	187.890000
1069.784345	194.110000
1071.916419	194.430000
1074.046064	190.730000
1076.175197	189.510000
1078.303818	190.860000
1080.431928	187.470000
1082.557612	183.750000
1084.682786	186.490000
1086.809364	189.660000
1088.931604	181.990000
1091.055249	188.080000
1093.174559	180.110000
1095.299098	183.440000
1097.417393	176.850000
1099.537092	184.060000
1101.654372	182.000000
1103.771145	186.800000
1105.887413	181.010000
1108.001264	178.990000
1110.116520	178.010000
1112.227452	182.810000
1114.341697	177.560000
1116.451621	183.650000
1118.562949	175.090000
1120.673772	179.420000
1122.780279	176.190000
1124.890095	177.330000
1126.995598	175.490000
1129.102503	175.620000
1131.203193	176.180000
1133.309095	177.790000
1135.410688	174.330000
1137.513684	170.330000
1139.616179	173.620000
1141.712467	182.990000
1143.813962	174.260000
1145.911155	179.830000
1148.007850	174.010000
1150.104046	178.350000
1152.199744	163.000000
1154.294945	173.110000
1156.387749	162.200000
1158.481955	168.520000
1160.569970	172.180000
1162.663184	171.780000
1164.750209	168.010000
1166.840533	170.960000
1168.926569	170.490000
1171.015904	173.420000
1173.099057	171.240000
1175.183612	170.270000
1177.269569	168.220000
1179.351244	161.600000
1181.434320	170.880000
1183.515011	173.830000
1185.595211	170.560000
1187.674919	172.100000
1189.754136	164.760000
1191.830971	164.690000
1193.905424	164.730000
1195.983170	176.210000
1198.056646	167.340000
1200.131522	168.060000
1202.202131	162.320000
1204.274141	167.680000
1206.343775	168.500000
1208.414810	171.300000
1210.485358	172.000000
1212.551644	169.620000
1214.619331	171.320000
1216.684646	169.550000
1218.751361	164.630000
1220.813820	170.060000
1222.879564	165.250000
1224.941054	170.820000
1227.003945	169.000000
1229.064468	168.190000
1231.124507	167.710000
1233.184063	168.620000
1235.241255	163.800000
1237.297965	172.370000
1239.352311	168.360000
1241.409939	166.230000
1243.465203	166.060000
1245.516228	170.810000
1247.568652	164.320000
1249.620596	169.180000
1251.670182	164.210000
1253.719289	172.760000
1255.767917	167.470000
1257.816067	172.680000
1259.863739	166.590000
1261.907180	173.290000
1263.953897	164.400000
1265.998260	166.520000
1268.042147	170.510000
1270.083682	163.130000
1272.122868	166.130000
1274.165327	171.400000
1276.203563	167.860000
1278.243198	169.200000
1280.282358	167.040000
1282.317299	172.200000
1284.353639	165.490000
1286.387635	177.090000
1288.423028	165.580000
1290.454209	168.770000
1292.486787	170.460000
1294.518894	171.640000
1296.548660	166.170000
1298.579823	172.640000
1300.606780	170.720000
1302.635134	168.110000
1304.659283	172.680000
1306.686698	171.620000
1308.709910	174.270000
1310.734520	174.710000
1312.756796	170.190000
1314.780468	174.110000
1316.801808	171.980000
1318.822681	174.070000
1320.843086	166.240000
1322.859298	174.630000
1324.876907	170.870000
1326.892188	174.700000
1328.910728	168.100000
1330.925079	172.610000
1332.937103	171.410000
1334.952386	179.400000
1336.963483	167.540000
1338.975977	178.420000
1340.984288	177.190000
1342.995854	178.320000
1345.001382	173.410000
1347.010165	180.440000
1349.014770	173.710000
1351.022629	178.820000
1353.030026	174.230000
1355.031392	174.250000
1357.034154	171.320000
1359.036457	180.340000
1361.038300	167.960000
1363.039683	179.720000
1365.038753	175.100000
1367.037364	179.370000
1369.035516	172.550000
1371.033211	172.580000
1373.026743	175.240000
1375.021670	173.280000
1377.016141	172.680000
1379.010155	175.180000
1381.001862	175.980000
1382.993113	170.890000
1384.982059	176.440000
1386.972401	176.600000
1388.962287	172.900000
1390.949869	175.490000
1392.936998	173.420000
1394.921825	171.330000
1396.908047	175.400000
1398.891968	173.840000
1400.875437	173.030000
1402.858454	177.650000
1404.839173	177.440000
1406.821286	174.040000
1408.801103	174.270000
1410.780468	172.350000
1412.755695	172.180000
1414.734160	176.800000
1416.710332	174.480000
1418.686054	175.070000
1420.661328	176.030000
1422.634310	174.340000
1424.606844	172.510000
1426.578930	176.090000
1428.550569	172.950000
1430.518079	173.540000
1432.490663	171.640000
1434.455441	180.490000
1436.425292	166.870000
1438.391019	174.890000
1440.358138	177.280000
1442.322974	177.320000
1444.283690	176.410000
1446.249474	176.910000
1448.209303	176.470000
1450.170526	180.010000
1452.133140	173.730000
1454.091640	170.090000
1456.049698	177.670000
1458.007314	177.050000
1459.964487	170.540000
1461.919385	182.030000
1463.875676	175.760000
1465.829692	179.120000
1467.783267	174.270000
1469.734570	173.460000
1471.687265	176.840000
1473.637689	176.950000
1475.587674	173.720000
1477.537220	176.940000
1479.484497	165.240000
1481.429506	176.190000
1483.375908	175.540000
1485.321872	175.110000
1487.267399	175.490000
1489.210660	175.670000
1491.153486	176.100000
1493.094047	175.660000
1495.036001	177.750000
1496.975692	175.880000
1498.914948	171.950000
1500.853770	184.520000
1502.790332	171.220000
1504.728285	173.640000
1506.663979	174.040000
1508.599240	174.540000
1510.532244	172.770000
1512.464817	177.860000
1514.396956	169.910000
1516.328664	179.720000
1518.258119	178.590000
1520.188964	174.740000
1522.119377	173.920000
1524.045718	176.170000
1525.973449	175.070000
1527.898931	173.170000
1529.823983	172.550000
1531.748606	174.290000
1533.672799	173.220000
1535.594746	170.190000
1537.518083	176.510000
1539.439173	173.880000
1541.358019	171.500000
1543.278255	179.870000
1545.196248	172.830000
1547.113813	172.710000
1549.029138	179.670000
1550.945852	184.660000
1552.858511	180.140000
1554.774373	188.480000
1556.687997	184.640000
1558.599382	185.210000
1560.512157	176.160000
1562.420882	182.450000
1564.330996	178.890000
1566.240687	181.440000
1568.149955	186.920000
1570.056989	187.390000
1571.961790	183.950000
1573.867979	185.920000
1575.771938	188.520000
1577.675475	198.920000
1579.578592	203.510000
1581.479479	217.220000
1583.381755	219.420000
1585.281803	234.040000
1587.183238	235.300000
1589.080640	224.330000
1590.977623	222.150000
1592.874188	210.490000
1594.772140	201.080000
1596.664258	190.130000
1598.559570	181.230000
1600.454464	182.590000
1602.347136	176.850000
1604.239391	189.050000
1606.129427	176.310000
1608.019047	186.080000
1609.908252	175.120000
1611.797041	182.620000
1613.683614	184.000000
1615.571574	180.500000
1617.455517	180.640000
1619.340847	181.730000
1621.225764	181.760000
1623.108467	177.960000
1624.992557	173.170000
1626.872635	184.450000
1628.754101	179.990000
1630.633356	178.990000
1632.513997	176.540000
1634.388834	178.290000
1636.268652	175.780000
1638.144466	175.280000
1640.019869	173.790000
1641.896658	177.930000
1643.767651	171.610000
1645.641825	178.240000
1647.512000	170.730000
1649.385356	177.350000
1651.256509	175.260000
1653.125461	178.250000
1654.995797	173.750000
1656.862141	170.960000
1658.729870	172.550000
1660.595400	169.710000
1662.462316	173.370000
1664.325242	171.160000
1666.189555	165.490000
1668.051671	172.330000
1669.913382	173.780000
1671.776479	170.100000
1673.637380	167.940000
1675.496089	170.320000
1677.354394	163.200000
1679.214083	166.660000
1681.068006	170.410000
1682.925102	169.650000
1684.781794	169.380000
1686.634511	173.690000
1688.490399	166.570000
1690.342313	169.520000
1692.193826	168.890000
1694.044938	172.780000
1695.895649	165.010000
1697.745960	173.140000
1699.594087	162.710000
1701.443598	172.940000
1703.287359	162.880000
1705.136071	171.730000
1706.979036	171.310000
1708.825168	172.000000
1710.667337	169.030000
1712.512672	174.030000
1714.352266	173.960000
1716.193244	167.940000
1718.035605	171.370000
1719.874010	172.760000
1721.713798	165.320000
1723.551410	169.850000
1725.388628	164.910000
1727.223672	169.180000
1729.060099	167.430000
1730.894353	168.900000
1732.728214	168.830000
1734.561680	169.850000
1736.391200	168.140000
1738.223880	167.330000
1740.052615	169.140000
1741.884507	175.010000
1743.712457	169.750000
1745.540015	171.200000
1747.367182	170.140000
1749.193957	171.060000
1751.020340	164.890000
1752.842787	171.220000
1754.668389	161.170000
1756.490056	168.010000
1758.313104	160.830000
1760.133992	165.440000
1761.954491	166.990000
1763.776370	165.340000
1765.592550	166.060000
1767.411883	167.340000
1769.227287	165.990000
1771.045843	171.170000
1772.860473	163.500000
1774.674716	169.520000
1776.488573	167.330000
1778.302043	166.700000
1780.113360	163.120000
1781.926057	171.430000
1783.738369	162.370000
1785.546762	172.880000
1787.356537	168.360000
1789.162397	171.290000
1790.971402	163.100000
1792.776494	167.120000
1794.582967	165.280000
1796.389056	174.200000
1798.191234	162.620000
1799.996557	167.290000
1801.797971	161.110000
1803.600765	166.410000
1805.399653	169.570000
1807.199922	168.510000
1808.999809	166.320000
1810.797554	165.850000
1812.594919	166.930000
1814.391903	164.870000
1816.188508	170.590000
1817.982973	175.140000
1819.778817	164.490000
1821.569006	172.660000
1823.364092	169.480000
1825.153525	165.700000
1826.946096	163.660000
1828.736531	161.800000
1830.524832	159.730000
1832.316267	168.940000
1834.102058	159.380000
1835.889228	170.620000
1837.674266	161.070000
1839.462438	165.550000
1841.246724	163.260000
1843.028880	161.730000
1844.812416	160.590000
1846.593823	169.880000
1848.376609	170.220000
1850.155514	175.960000
1851.935798	168.090000
1853.713957	169.030000
1855.493494	164.470000
1857.270905	171.710000
1859.046194	165.970000
1860.822860	174.110000
1862.597404	170.550000
1864.373325	176.550000
1866.143627	164.630000
1867.917056	175.160000
1869.688365	172.380000
1871.459303	175.820000
1873.231619	173.350000
1874.998321	175.690000
1876.768148	173.760000
1878.534112	175.570000
1880.303200	170.690000
1882.068426	170.940000
1883.833284	170.530000
1885.599519	170.280000
1887.361895	172.160000
1889.123903	174.090000
1890.885545	170.840000
1892.646819	171.530000
1894.407727	171.360000
1896.168268	177.280000
1897.926699	171.910000
1899.684764	166.420000
1901.440722	169.230000
1903.198056	172.660000
1904.955025	165.130000
1906.709887	167.630000
1908.462645	170.260000
1910.215038	173.830000
1911.968808	165.020000
1913.720474	166.770000
1915.470038	168.610000
1917.220977	169.140000
1918.971553	168.470000
1920.718291	174.540000
1922.466404	165.110000
1924.212419	165.790000
1925.959808	168.790000
1927.705100	166.780000
1929.448294	167.150000
1931.192863	171.370000
1932.935336	169.460000
1934.677450	168.760000
1936.419203	167.090000
1938.160596	175.240000
1939.899896	166.260000
1941.638837	170.070000
1943.377419	171.140000
1945.113910	170.540000
1946.850043	169.950000
1948.587550	169.360000
1950.321235	168.880000
1952.056295	172.530000
1953.789266	168.890000
1955.521881	173.640000
1957.254140	167.350000
1958.986042	173.390000
1960.715858	170.800000
1962.443589	173.900000
1964.172695	172.340000
1965.901445	173.670000
1967.628113	167.510000
1969.354426	178.480000
1971.082112	169.270000
1972.804262	175.290000
1974.529513	170.670000
1976.250957	178.140000
1977.975501	166.850000
1979.697966	178.160000
1981.416628	174.990000
1983.138388	179.440000
1984.856346	172.050000
1986.575677	180.080000
1988.291209	174.170000
1990.011561	177.360000
1991.728115	176.480000
1993.440872	172.200000
1995.156725	173.370000
1996.870506	180.480000
1998.583937	175.190000
2000.295297	172.930000
2002.008029	172.080000
2003.716971	178.330000
2005.429005	173.580000
2007.135530	177.680000
2008.845148	177.790000
2010.552698	177.200000
2012.259901	172.140000
2013.965038	178.850000
2015.669829	177.330000
2017.375991	180.170000
2019.078371	174.940000
2020.782122	179.790000
2022.483811	177.020000
2024.185154	181.390000
2025.886153	175.780000
2027.585090	176.370000
2029.285399	175.310000
2030.981932	178.750000
2032.679837	179.460000
2034.375684	176.360000
2036.074616	171.880000
2037.768062	178.200000
2039.462879	176.150000
2041.157354	179.760000
2042.848060	177.240000
2044.541850	178.560000
2046.231873	179.350000
2047.923267	175.740000
2049.612608	177.310000
2051.303319	176.200000
2052.990267	174.080000
2054.676876	179.130000
2056.364854	175.640000
2058.049073	177.240000
2059.734663	167.420000
2061.419912	177.210000
2063.103114	174.120000
2064.787686	178.990000
2066.466794	175.790000
2068.150689	178.070000
2069.829122	170.280000
2071.510633	174.370000
2073.188392	162.980000
2074.865815	177.740000
2076.544607	171.840000
2078.221357	172.800000
2079.896064	170.610000
2081.572142	175.430000
2083.246178	168.000000
2084.919880	169.080000
2086.593246	169.620000
2088.264573	175.630000
2089.935566	169.370000
2091.606225	174.920000
2093.276550	166.070000
2094.946541	170.800000
2096.614496	172.660000
2098.282117	175.110000
2099.947705	166.550000
2101.614661	172.610000
2103.279584	173.950000
2104.944175	180.870000
2106.606734	165.740000
2108.270661	178.760000
2109.932557	168.220000
2111.594123	174.860000
2113.255357	173.420000
2114.914563	176.920000
2116.573438	173.580000
2118.231984	174.710000
2119.890199	171.910000
2121.544692	179.670000
2123.202249	165.540000
2124.859476	179.630000
2126.512983	165.840000
2128.167857	179.740000
2129.819012	174.190000
2131.473230	172.790000
2133.123730	171.430000
2134.775598	178.480000
2136.422057	165.240000
2138.073271	173.550000
2139.720771	172.030000
2141.369638	169.480000
2143.016486	174.460000
2144.663009	173.850000
2146.309206	171.760000
2147.951695	172.460000
2149.597241	171.910000
2151.239082	174.340000
2152.883979	172.070000
2154.525170	169.710000
2156.166038	169.100000
2157.806583	176.890000
2159.445115	173.320000
2161.085013	180.780000
2162.721211	171.520000
2164.358775	172.880000
2165.996017	168.710000
2167.631249	171.510000
2169.266159	172.420000
2170.900748	171.270000
2172.535016	167.840000
2174.165590	168.040000
2175.799216	167.840000
2177.429150	174.940000
2179.060449	166.220000
2180.689743	179.140000
2182.318718	170.150000
2183.947373	173.940000
2185.575709	165.750000
2187.202043	173.480000
2188.828057	163.940000
2190.452071	171.720000
2192.077450	164.730000
2193.700828	174.600000
2195.325571	173.400000
2196.946633	173.520000
2198.567378	169.160000
2200.189487	174.880000
2201.809599	168.080000
2203.427715	169.470000
2205.045515	171.530000
2206.663000	170.780000
2208.280169	166.980000
2209.897023	168.860000
2211.513561	169.540000
2213.128107	165.360000
2214.740660	165.830000
2216.354577	167.280000
2217.966503	169.420000
2219.579792	172.920000
2221.191091	167.360000
2222.800400	167.090000
2224.411073	168.690000
2226.019757	171.570000
2227.628128	166.740000
2229.234513	170.160000
2230.842260	171.270000
2232.448022	173.850000
2234.053472	170.650000
2235.656937	173.020000
2237.261765	169.830000
2238.864609	182.450000
2240.465470	169.840000
2242.067694	174.480000
2243.667936	171.480000
2245.269540	174.930000
2246.867491	170.330000
2248.466805	172.540000
2250.064139	167.760000
2251.661165	173.480000
2253.259553	168.290000
2254.854292	176.230000
2256.447054	174.490000
2258.041179	176.550000
2259.636665	173.480000
2261.228506	172.290000
2262.820041	173.800000
2264.412938	173.590000
2266.000525	173.110000
2267.592808	174.350000
2269.179785	172.140000
2270.769789	177.310000
2272.354489	172.590000
2273.943883	177.800000
2275.527974	165.830000
2277.113427	173.010000
2278.696911	169.260000
2280.283420	174.670000
2281.866296	174.760000
2283.448869	169.020000
2285.031138	168.280000
2286.609777	173.070000
2288.191441	170.600000
2289.769476	176.070000
2291.350534	168.700000
2292.927965	167.230000
2294.503433	165.760000
2296.081923	169.560000
2297.656789	164.240000
2299.231354	167.850000
2300.805618	166.390000
2302.379583	173.610000
2303.953246	169.680000
2305.526610	176.980000
2307.096355	159.450000
2308.665801	166.580000
2310.238265	164.110000
2311.805455	173.260000
2313.375663	164.350000
2314.942256	172.340000
2316.510209	159.460000
2318.076206	172.540000
2319.641906	168.820000
2321.207308	175.350000
2322.770757	167.690000
2324.335565	177.970000
2325.896765	181.680000
2327.460979	186.280000
2329.019931	184.400000
2330.581897	183.820000
2332.141913	174.550000
2333.701633	168.150000
2335.259405	168.220000
2336.816881	171.790000
2338.374063	167.000000
2339.929297	175.770000
2341.484238	165.470000
2343.038884	167.640000
2344.593237	171.620000
2346.147296	168.150000
2347.701062	166.260000
2349.252883	172.770000
2350.802762	163.350000
2352.355648	166.970000
2353.903291	162.990000
2355.453943	164.010000
2357.001003	164.400000
2358.549421	168.950000
2360.097548	172.100000
2361.642086	166.130000
2363.187982	163.880000
2364.731940	162.460000
2366.277254	168.680000
2367.818985	166.830000
2369.362072	160.410000
2370.903223	173.140000
2372.444085	167.000000
2373.984658	170.590000
2375.524942	167.650000
2377.064937	167.500000
2378.601354	170.060000
2380.140772	162.860000
2381.676612	162.210000
2383.213810	170.350000
2384.747432	165.990000
2386.284054	170.890000
2387.818746	167.690000
2389.351508	171.420000
2390.883983	168.120000
2392.414530	171.020000
2393.948075	171.560000
2395.476409	170.530000
2397.006099	171.060000
2398.535504	170.260000
2400.064624	165.540000
2401.593458	169.370000
2403.117088	172.460000
2404.645353	176.920000
2406.168416	173.420000
2407.696112	172.380000
2409.216969	168.340000
2410.742458	170.920000
2412.264388	168.160000
2413.787672	168.210000
2415.309036	172.120000
2416.828480	178.770000
2418.349279	168.380000
2419.868159	176.840000
2421.386758	169.590000
2422.903439	176.790000
2424.421474	172.980000
2425.939228	174.110000
2427.453430	169.610000
2428.967353	168.150000
2430.480995	170.730000
2431.995992	177.320000
2433.507440	172.160000
2435.020242	169.510000
2436.531132	162.390000
2438.041743	165.420000
2439.550442	169.640000
2441.062127	166.660000
2442.570269	170.770000
2444.078133	173.800000
2445.585718	168.510000
2447.089764	176.550000
2448.596794	164.590000
2450.101916	172.090000
2451.606761	169.960000
2453.109699	169.780000
2454.612361	164.210000
2456.114746	177.630000
2457.615226	166.730000
2459.117059	162.940000
2460.616987	166.030000
2462.116640	166.590000
2463.616018	163.050000
2465.113493	169.790000
2466.609066	163.400000
2468.107619	172.640000
2469.602644	165.620000
2471.099021	168.960000
2472.591872	165.980000
2474.086076	166.250000
2475.580006	159.720000
2477.070412	166.200000
2478.563796	164.220000
2480.055282	162.540000
2481.544871	165.600000
2483.034188	164.740000
2484.521609	165.700000
2486.012006	168.790000
2487.498885	166.290000
2488.987115	164.350000
2490.471828	162.520000
2491.956272	163.570000
2493.442066	157.710000
2494.925969	164.900000
2496.411222	162.920000
2497.891342	164.480000
2499.374435	163.900000
2500.855637	168.190000
2502.336570	167.040000
2503.815614	168.000000
2505.294389	157.950000
2506.772896	174.810000
2508.251135	166.010000
2509.729105	170.940000
2511.203570	167.600000
2512.681005	171.400000
2514.154936	161.930000
2515.630217	161.840000
2517.105231	170.830000
2518.576744	171.170000
2520.049608	168.240000
2521.520589	165.750000
2522.992920	163.920000
2524.460137	167.940000
2525.930321	165.270000
2527.398624	171.240000
2528.866662	165.600000
2530.334435	163.030000
2531.801943	164.310000
2533.269186	161.070000
2534.732937	162.050000
2536.198038	166.660000
2537.661262	162.650000
2539.125835	164.490000
2540.586920	168.080000
2542.049354	166.830000
2543.511525	163.360000
2544.970210	173.490000
2546.433466	168.140000
2547.891626	170.100000
2549.351136	166.160000
2550.805551	165.080000
2552.264537	167.890000
2553.721651	171.900000
2555.176893	165.960000
2556.631875	170.480000
2558.084988	165.170000
2559.539448	167.600000
2560.992040	168.990000
2562.444372	165.220000
2563.894837	171.720000
2565.348257	170.510000
2566.796595	167.650000
2568.247888	169.290000
2569.697316	167.270000
2571.143271	171.740000
2572.592181	163.250000
2574.037621	174.180000
2575.484408	169.680000
2576.929332	170.410000
2578.373999	171.240000
2579.820013	167.740000
2581.262561	170.180000
2582.706456	172.560000
2584.146885	163.200000
2585.588663	169.980000
2587.028581	167.030000
2588.469846	164.930000
2589.907649	168.500000
2591.348402	170.440000
2592.784093	162.640000
2594.222732	164.330000
2595.659515	167.110000
2597.094442	166.420000
2598.532316	166.020000
2599.965133	169.030000
2601.399297	161.810000
2602.831607	172.070000
2604.265263	164.870000
2605.697066	166.470000
2607.128615	169.410000
2608.559912	170.000000
2609.989356	171.270000
2611.418548	172.280000
2612.845890	160.180000
2614.274577	163.940000
2615.703013	160.690000
2617.128001	167.620000
2618.554336	169.260000
2619.978822	167.110000
2621.404654	166.410000
2622.827042	168.390000
2624.250776	165.360000
2625.672663	165.290000
2627.094300	170.680000
2628.514093	169.800000
2629.935231	162.200000
2631.356119	171.260000
2632.773568	157.840000
2634.193958	166.110000
2635.610910	170.670000
2637.027613	163.200000
2638.444068	164.110000
2639.860275	169.150000
2641.276234	166.390000
2642.690352	167.350000
2644.104222	168.310000
2645.516253	171.550000
2646.929629	162.140000
2648.339575	169.020000
2649.752457	168.410000
2651.161910	166.420000
2652.571117	168.160000
2653.978488	177.990000
2655.388793	162.740000
2656.797263	168.920000
2658.203897	166.920000
2659.610286	165.040000
2661.014841	170.000000
2662.420740	172.400000
2663.824806	173.450000
2665.228627	174.150000
2666.632204	173.540000
2668.033950	183.400000
2669.437039	177.450000
2670.836710	181.640000
2672.237725	177.020000
2673.635324	180.820000
2675.035852	184.170000
2676.432966	184.260000
2677.831423	188.080000
2679.228053	189.050000
2680.624440	183.170000
2682.020585	194.460000
2683.414904	192.250000
2684.810566	193.340000
2686.202819	195.590000
2687.596414	196.700000
2688.988185	193.600000
2690.381299	196.720000
2691.772589	193.250000
2693.162056	195.380000
2694.551283	184.540000
2695.940271	191.410000
2697.330600	191.270000
2698.715946	190.050000
2700.104215	185.510000
2701.490664	192.680000
2702.876874	182.150000
2704.262845	183.590000
2705.645418	180.560000
2707.029333	182.420000
2708.413010	173.150000
2709.796448	177.260000
2711.176491	175.580000
2712.557876	178.140000
2713.937446	173.830000
2715.318356	178.190000
2716.697452	175.600000
2718.074734	174.530000
2719.453357	174.170000
2720.830166	175.030000
2722.206740	162.440000
2723.583078	170.120000
2724.957604	169.310000
2726.333471	174.120000
2727.705952	168.600000
2729.081348	176.730000
2730.451784	176.350000
2731.823561	181.930000
2733.195103	163.390000
2734.564837	174.180000
2735.935911	166.890000
2737.305178	172.750000
2738.674211	168.550000
2740.041438	169.140000
2741.408431	167.410000
2742.775192	163.330000
2744.141720	167.480000
2745.506444	172.110000
2746.870935	168.430000
2748.235195	175.440000
2749.599222	168.050000
2750.963018	164.750000
2752.323440	162.920000
2753.686772	171.390000
2755.045162	163.670000
2756.406462	163.120000
2757.764392	168.650000
2759.125230	166.260000
2760.484268	160.260000
2761.839939	173.170000
2763.198517	159.510000
2764.553728	161.790000
2765.908710	166.750000
2767.261895	160.840000
2768.617987	162.120000
2769.970715	166.270000
2771.323215	167.970000
2772.675486	169.840000
2774.029095	159.290000
2775.379344	165.620000
2776.727798	160.490000
2778.079157	159.700000
2779.427158	158.190000
2780.776496	165.720000
2782.124042	161.850000
2783.471362	164.360000
2784.818455	163.350000
2786.163756	163.680000
2787.508832	161.390000
2788.853682	163.030000
2790.198306	160.730000
2791.539578	162.860000
2792.882187	159.420000
2794.224572	159.570000
2795.566731	165.210000
2796.905541	161.310000
2798.247251	160.660000
2799.585612	162.180000
2800.925311	156.800000
2802.263225	168.080000
2803.599353	160.430000
2804.935259	163.170000
2806.272502	168.160000
2807.607961	168.330000
2808.943197	163.780000
2810.276650	169.470000
2811.611440	164.600000
2812.942890	167.610000
2814.277235	161.960000
2815.606682	169.550000
2816.937465	161.480000
2818.268028	164.220000
2819.596811	171.140000
2820.926930	168.290000
2822.255271	164.800000
2823.583391	169.080000
2824.909733	165.120000
2826.237412	167.690000
2827.561757	169.580000
2828.887439	169.210000
2830.211345	158.980000
2831.535031	165.880000
2832.860053	163.780000
2834.181746	166.170000
2835.503220	163.070000
2836.824475	165.920000
2838.145511	163.420000
2839.464774	166.110000
2840.785373	165.400000
2842.104200	172.850000
2843.422810	162.620000
2844.739648	164.470000
2846.056269	158.880000
2847.372673	162.900000
2848.687307	163.420000
2850.003277	165.310000
2851.315926	166.950000
2852.629910	164.320000
2853.943678	160.400000
2855.257229	164.090000
2856.569014	162.450000
2857.879032	165.350000
2859.190385	157.420000
2860.498423	164.120000
2861.807795	166.380000
2863.116952	162.690000
2864.425895	162.440000
2865.733073	168.360000
2867.038489	162.640000
2868.345238	164.180000
2869.650226	161.210000
2870.954999	166.910000
2872.258012	159.040000
2873.563905	164.590000
2874.864944	163.840000
2876.167317	164.900000
2877.467930	157.260000
2878.769877	164.910000
2880.071610	161.060000
2881.370040	170.320000
2882.669803	165.040000
2883.967809	163.540000
2885.265603	162.440000
2886.561641	160.570000
2887.859012	160.260000
2889.154627	158.370000
2890.450031	156.100000
2891.745224	163.550000
2893.037120	152.210000
2894.331892	166.260000
2895.623367	158.980000
2896.916175	160.700000
2898.208773	150.040000
2899.498077	164.750000
2900.788713	153.950000
2902.077598	161.080000
2903.367815	163.920000
2904.654741	158.380000
2905.942999	156.160000
2907.229508	155.310000
2908.515808	158.110000
2909.801900	159.640000
2911.086245	150.820000
2912.373460	160.620000
2913.655849	159.510000
2914.939570	160.370000
2916.221545	165.630000
2917.503312	158.330000
2918.783334	155.980000
2920.066227	157.190000
2921.347374	158.610000
2922.625239	152.840000
2923.905973	159.760000
2925.183426	158.170000
2926.460673	158.110000
2927.736178	155.890000
2929.014551	156.120000
2930.288110	168.480000
2931.564536	154.740000
2932.839221	154.710000
2934.112165	155.810000
2935.386441	158.670000
2936.658977	158.440000
2937.931308	162.220000
2939.200367	154.980000
2940.472291	154.510000
2941.742477	156.920000
2943.012459	158.430000
2944.282238	153.180000
2945.550281	155.020000
2946.816587	150.780000
2948.082691	165.800000
2949.350126	152.450000
2950.615825	157.280000
2951.881323	152.560000
2953.146618	155.600000
2954.408648	153.120000
2955.672008	158.250000
2956.935167	153.580000
2958.196594	165.890000
2959.459350	157.400000
2960.720374	151.590000
2961.979668	156.140000
2963.238761	151.950000
2964.497655	149.700000
2965.756348	148.050000
2967.014841	152.420000
2968.271604	160.410000
2969.528169	147.910000
2970.783005	155.010000
2972.039171	157.640000
2973.292082	157.980000
2974.546321	151.040000
2975.800362	152.900000
2977.052677	151.620000
2978.304794	152.880000
2979.555186	153.990000
2980.808433	153.910000
2982.056903	151.450000
2983.308228	156.230000
2984.556303	150.350000
2985.804181	156.750000
2987.051863	151.280000
2988.299347	160.870000
2989.545110	153.080000
2990.790677	151.650000
2992.037571	150.780000
2993.281221	151.150000
2994.526199	157.760000
2995.767933	150.450000
2997.012519	155.150000
2998.255386	154.770000
2999.495012	146.200000
3000.737488	152.590000
3001.976724	157.620000
3003.217288	156.440000
3004.456135	154.650000
3005.694788	160.480000
3006.931725	143.780000
3008.169990	152.830000
3009.406539	148.800000
3010.642895	153.420000
3011.879057	153.490000
3013.113505	157.000000
3014.347760	150.320000
3015.581823	154.680000
3016.814172	151.800000
3018.044810	152.330000
3019.278294	148.480000
3020.510067	155.310000
3021.740129	148.780000
3022.969998	147.390000
3024.198158	155.170000
3025.427645	158.090000
3026.655422	150.180000
3027.883008	153.680000
3029.111920	145.840000
3030.336090	154.460000
3031.563104	151.930000
3032.786893	151.260000
3034.012009	153.810000
3035.235418	148.120000
3036.458637	149.150000
3037.680151	144.020000
3038.904506	145.630000
3040.124126	150.540000
3041.345072	146.270000
3042.565829	155.150000
3043.784882	153.330000
3045.005260	153.490000
3046.222422	150.150000
3047.440910	150.990000
3048.657695	154.280000
3049.874293	155.870000
3051.090702	146.650000
3052.303898	149.350000
3053.519933	153.860000
3054.732755	153.350000
3055.948413	151.140000
3057.159350	151.320000
3058.371611	146.520000
3059.583685	149.740000
3060.795573	153.520000
3062.005764	148.750000
3063.215768	147.600000
3064.425586	155.510000
3065.633708	151.020000
3066.841645	151.690000
3068.047886	146.540000
3069.255452	152.380000
3070.461323	153.330000
3071.667009	154.280000
3072.872511	150.370000
3074.076319	153.120000
3075.281451	146.380000
3076.484890	152.420000
3077.686638	143.410000
3078.888201	144.290000
3080.089581	140.520000
3081.290777	149.440000
3082.490283	148.020000
3083.689606	144.040000
3084.890252	143.240000
3086.089208	147.500000
3087.284970	145.890000
3088.483560	150.090000
3089.678958	142.650000
3090.875678	146.050000
3092.069206	140.920000
3093.265562	148.330000
3094.460231	142.040000
3095.651710	142.360000
3096.847521	140.820000
3098.038637	147.540000
3099.231077	144.220000
3100.420329	141.340000
3101.612406	136.450000
3102.802800	139.710000
3103.990008	138.880000
3105.178538	143.050000
3106.368391	139.730000
3107.555060	143.870000
3108.741548	139.280000
3109.927858	142.320000
3111.115489	136.710000
3112.299938	144.020000
3113.482708	136.060000
3114.668300	139.750000
3115.852213	142.280000
3117.034447	140.840000
3118.216502	133.860000
3119.398379	139.860000
3120.580078	137.440000
3121.760100	136.280000
3122.938445	136.220000
3124.119610	139.120000
3125.297600	141.150000
3126.475413	140.080000
3127.653049	140.000000
3128.829010	141.290000
3130.004795	138.690000
3131.181901	138.260000
3132.357332	131.550000
3133.531090	142.110000
3134.703175	132.800000
3135.876582	142.030000
3137.049812	136.050000
3138.221371	139.820000
3139.394250	143.610000
3140.563962	139.380000
3141.734995	148.830000
3142.904358	143.000000
3144.072050	140.720000
3145.242558	143.380000
3146.408408	137.950000
3147.578566	142.700000
3148.744068	136.550000
3149.909395	143.000000
3151.074549	136.800000
3152.239530	138.520000
3153.405830	148.650000
3154.567478	135.500000
3155.730445	137.220000
3156.893240	138.980000
3158.055862	132.530000
3159.216818	136.360000
3160.377603	129.130000
3161.538215	135.060000
3162.697163	131.970000
3163.855940	130.840000
3165.014544	128.790000
3166.172977	131.850000
3167.331239	127.540000
3168.487838	135.890000
3169.642776	125.230000
3170.799033	129.810000
3171.953629	131.580000
3173.108055	129.120000
3174.260821	129.420000
3175.413416	131.350000
3176.565842	129.730000
3177.718098	133.810000
3178.870183	128.420000
3180.019122	130.580000
3181.170869	135.170000
3182.320957	134.730000
3183.469389	134.400000
3184.617651	136.980000
3185.765745	131.840000
3186.913670	131.190000
3188.059939	133.720000
3189.206040	138.310000
3190.350487	131.460000
3191.494766	135.620000
3192.638877	136.410000
3193.784305	137.140000
3194.926595	131.130000
3196.068718	130.970000
3197.210673	131.680000
3198.352461	136.290000
3199.494082	133.400000
3200.632568	133.830000
3201.772371	126.700000
3202.913491	134.430000
3204.051478	134.620000
3205.187815	135.890000
3206.323986	133.990000
3207.461474	134.050000
3208.597314	132.050000
3209.734471	132.950000
3210.867015	137.080000
3212.003841	127.510000
3213.136055	132.570000
3214.269586	138.910000
3215.402953	123.800000
3216.533192	135.100000
3217.666229	130.930000
3218.796140	137.640000
3219.927367	133.620000
3221.055470	126.160000
3222.186369	127.470000
3223.315624	131.020000
3224.443236	128.080000
3225.567725	124.130000
3226.696490	127.280000
3227.822133	129.570000
3228.947613	125.560000
3230.071452	128.330000
3231.198086	124.370000
3232.320122	127.030000
3233.443474	122.810000
3234.566664	126.360000
3235.689691	126.000000
3236.811080	130.020000
3237.932306	130.490000
3239.051894	128.550000
3240.171321	125.220000
3241.289111	127.730000
3242.409692	120.310000
3243.527160	133.540000
3244.644467	127.670000
3245.761614	129.710000
3246.877124	128.720000
3247.993950	136.380000
3249.107666	127.950000
3250.224171	134.560000
3251.339042	126.110000
3252.450803	125.630000
3253.562406	130.120000
3254.675324	131.830000
3255.788082	127.290000
3256.897734	133.870000
3258.008701	128.470000
3259.119509	129.590000
3260.228685	130.640000
3261.336230	130.910000
3262.445090	129.340000
3263.553792	127.770000
3264.659391	128.830000
3265.766304	128.200000
3266.871588	130.210000
3267.978186	135.520000
3269.081684	129.250000
3270.186496	133.220000
3271.291151	124.510000
3272.392708	128.450000
3273.494108	131.150000
3274.596822	134.100000
3275.699380	129.760000
3276.798841	131.420000
3277.901086	126.750000
3279.000235	124.280000
3280.097760	125.650000
3281.195129	130.990000
3282.295280	128.570000
3283.392339	133.140000
3284.489242	128.820000
3285.585990	129.940000
3286.678179	121.080000
3287.774618	129.590000
3288.869434	130.010000
3289.964096	129.780000
3291.057136	126.090000
3292.150021	129.430000
3293.241286	131.600000
3294.333864	125.790000
3295.424822	121.420000
3296.514160	126.980000
3297.603345	123.180000
3298.693842	127.730000
3299.781256	124.480000
3300.868516	126.490000
3301.957089	124.040000
3303.045509	122.440000
3304.129383	121.480000
3305.217498	127.680000
3306.302531	122.740000
3307.385949	128.510000
3308.470679	119.400000
3309.553793	128.710000
3310.638220	120.190000
3311.719568	132.670000
3312.802228	129.860000
3313.883274	129.240000
3314.964168	128.810000
3316.043450	126.200000
3317.122581	127.570000
3318.203024	127.200000
3319.280392	122.060000
3320.359072	128.640000
3321.436140	124.260000
3322.513059	126.950000
3323.588366	125.570000
3324.663524	124.890000
3325.739993	125.400000
3326.813392	123.580000
3327.886641	125.560000
3328.961202	125.860000
3330.034154	125.750000
3331.105497	125.150000
3332.178151	124.330000
3333.247739	125.310000
3334.318637	124.070000
3335.387928	129.090000
3336.458529	128.860000
3337.527525	119.970000
3338.594914	121.350000
3339.660698	128.200000
3340.730708	122.760000
3341.797655	126.810000
3342.861540	121.190000
3343.928192	123.870000
3344.993241	119.010000
3346.056686	125.510000
3347.119985	116.640000
3348.183137	123.950000
3349.246143	122.580000
3350.309003	122.010000
3351.370261	127.880000
3352.428462	126.640000
3353.490883	118.780000
3354.550249	123.390000
3355.609469	121.120000
3356.669998	121.740000
3357.726019	118.370000
3358.784803	127.980000
3359.839080	125.440000
3360.896121	123.940000
3361.951563	125.530000
3363.008315	128.500000
3364.063468	130.140000
3365.117024	127.400000
3366.168984	122.940000
3367.223705	129.150000
3368.275377	125.450000
3369.326906	126.300000
3370.379743	126.360000
3371.429533	119.800000
3372.480632	120.600000
3373.528684	128.050000
3374.579497	115.160000
3375.627264	124.900000
3376.674889	123.320000
3377.722372	118.810000
3378.768262	122.130000
3379.815460	125.560000
3380.859616	120.330000
3381.906530	120.280000
3382.951852	123.430000
3383.994133	121.510000
3385.036273	120.720000
3386.079722	125.400000
3387.123029	117.230000
3388.164746	129.590000
3389.206323	125.250000
3390.247758	122.610000
3391.287605	127.900000
3392.325863	125.300000
3393.365429	119.140000
3394.404855	122.810000
3395.442693	121.670000
3396.478944	125.770000
3397.515056	120.730000
3398.552475	120.540000
3399.586861	122.840000
3400.622554	121.270000
3401.658108	122.600000
3402.690631	128.040000
3403.725906	122.010000
3404.758152	118.330000
3405.790259	122.760000
3406.820782	128.680000
3407.852612	126.710000
3408.884304	120.310000
3409.912968	120.930000
3410.941495	124.910000
3411.971328	124.860000
3413.001024	125.500000
3414.027694	117.000000
3415.055670	125.910000
3416.080623	117.020000
3417.108325	122.590000
3418.133003	118.520000
3419.158989	122.010000
3420.183394	118.370000
3421.207663	118.050000
3422.230353	116.540000
3423.252907	122.740000
3424.276767	120.130000
3425.297607	121.840000
3426.318311	114.030000
3427.340322	123.230000
3428.359314	115.950000
3429.378170	122.630000
3430.398333	112.750000
3431.415479	121.270000
