-118.059454	20.969505
-115.389854	10.548352
-112.723189	2.993357
-110.057276	-2.015584
-107.394295	-4.798576
-104.729885	-5.675724
-102.068405	-4.967133
-99.405496	-4.448252
-96.747693	0.322378
-94.088461	4.900699
-91.429977	7.267832
-88.774417	10.014685
-86.117429	11.935664
-83.465539	13.177622
-80.812218	12.672727
-78.161818	11.200000
-75.509988	10.199301
-72.863249	10.309790
-70.215081	6.590210
-67.567655	2.723776
-64.923143	1.623077
-62.277203	-0.504196
-59.636344	-2.416783
-56.994056	-1.434965
-54.354677	-2.329371
-51.713868	0.182517
-49.073800	3.432867
-46.438804	5.714685
-43.802380	9.081119
-41.168858	11.239161
-38.533908	12.702098
-35.904023	16.849650
-33.270546	20.860839
-30.642131	22.738462
-28.014450	20.390909
-25.385340	15.607692
-22.761287	-28.359441
-20.133645	-208.230769
-17.511056	-555.518881
-14.889199	-837.978322
-12.268072	342.704196
-9.647675	2782.269930
-7.030167	4819.887413
-4.411230	6259.737762
-1.795178	7091.489510
0.820145	7312.695804
3.434741	6920.097203
6.046454	5931.090210
8.659596	4364.001399
11.267704	2329.695804
13.879394	237.215385
16.486053	-1137.241259
19.094140	-845.009091
21.701503	-62.674825
24.303841	19.913287
26.909757	19.928671
29.510651	17.923776
32.112973	13.967832
34.710278	8.870629
37.311158	7.108392
39.907023	3.264336
42.504317	-0.087413
45.100891	1.338462
47.692456	2.222378
50.285449	3.995105
52.875581	2.082517
55.467141	-0.210490
58.055841	-0.418182
60.645968	-2.291608
63.231096	-1.053846
65.817652	0.005594
68.403494	-1.787413
70.986482	-3.211189
73.570896	-3.364336
76.148182	-1.518182
78.729034	-0.874825
81.307037	0.216783
83.884330	-2.565734
86.463049	-1.141958
89.036786	2.727273
91.611951	3.767832
94.184272	8.418182
96.755885	8.789510
99.324658	10.384615
101.894858	10.973427
104.462220	12.653147
107.031007	12.348951
109.596958	10.393007
112.160074	9.318881
114.726746	5.557343
117.284197	8.248951
119.847333	14.420979
122.405509	21.527972
124.967240	33.569930
127.524014	54.223776
130.082215	90.143357
132.635462	131.779021
135.188012	182.887413
137.744112	238.794406
140.295264	297.622378
142.845719	355.006294
145.395476	403.114685
147.942414	445.118881
150.488657	474.902797
153.036325	488.706294
155.583297	494.551049
158.125334	495.902797
160.666677	490.954545
163.207327	484.770629
165.749403	475.998601
168.288667	473.616084
170.825123	471.630769
173.360887	467.638462
175.898077	462.674126
178.434576	463.424476
180.968269	464.225874
183.499158	462.203497
186.029360	462.696503
188.560986	459.586014
191.089811	456.168531
193.615837	457.827972
196.141177	454.023776
198.667942	455.680420
201.191911	453.590210
203.715195	455.038462
206.237794	456.020979
208.757600	458.030070
211.276723	462.620979
213.795163	467.512587
216.315027	473.887413
218.827890	483.574126
221.344284	494.437063
223.859996	508.512587
226.370818	520.413986
228.883065	531.811189
231.392530	543.811888
233.901316	550.931469
236.409423	553.777622
238.918955	553.538462
241.423606	555.106993
243.927581	554.279720
246.432980	555.669930
248.933504	558.806294
251.437552	561.855944
253.934628	564.723776
256.435228	567.134266
258.933056	570.802797
261.430211	572.851049
263.926693	576.269930
266.418312	582.712587
268.913451	589.260140
271.405823	597.195804
273.897525	604.230769
276.386464	612.576224
278.876827	619.979720
281.364427	628.079021
283.849268	632.545455
286.337624	641.804196
288.819040	654.420280
291.303970	669.516084
293.784055	690.159441
296.267652	714.235664
298.746406	734.028671
301.226584	743.647552
303.704009	738.813287
306.180771	731.303497
308.656870	726.513287
311.130220	721.634266
313.602908	716.218881
316.074935	715.037762
318.546301	711.905594
321.014922	707.319580
323.482885	705.120280
325.952269	703.027972
328.416831	690.331469
330.884897	668.781818
333.348143	645.327273
335.810731	626.618881
338.272663	616.122378
340.733938	609.634266
343.192479	607.460839
345.652442	604.994406
348.109672	603.508392
350.566248	598.923077
353.022170	600.563636
355.475362	598.759441
357.929977	595.048252
360.379790	589.886014
362.833099	585.186713
365.281610	573.040559
367.729469	566.583217
370.178751	559.755245
372.623239	551.376923
375.069149	545.258741
377.514409	540.000699
379.956951	535.267832
382.398845	537.065734
384.840092	537.383217
387.278623	535.760140
389.718576	534.581119
392.155815	532.114685
394.590342	526.459441
397.028357	529.420280
399.461595	528.368531
401.896254	524.712587
404.326141	522.706993
406.759513	519.897203
409.188115	521.790909
411.616075	520.565035
414.045457	519.175524
416.470073	519.928671
418.896111	520.849650
421.321508	524.078322
423.746265	526.392308
426.166264	532.984615
428.587684	535.737063
431.006407	537.772028
433.426551	533.836364
435.844000	531.688811
438.262869	524.782517
440.679045	514.786713
443.090473	508.593706
445.505379	501.115385
447.917594	492.758042
450.329175	484.695804
452.740122	475.272028
455.148383	470.274825
457.556011	469.952448
459.963007	467.990909
462.369372	465.183217
464.773054	468.265734
467.176106	471.451748
469.578528	475.482517
471.980320	479.094406
474.379435	484.241958
476.779969	496.504196
479.179874	509.653147
481.575056	522.001399
483.973705	539.075524
486.367634	559.998601
488.760937	577.686713
491.153614	602.740559
493.545666	625.587413
495.939136	644.935664
498.327894	632.553147
500.713986	546.874825
503.101498	355.744755
505.488387	432.152448
507.872612	1769.542657
510.258255	4691.288811
512.641237	8311.479021
515.021558	11528.339161
517.403298	13838.090210
519.782379	15036.548951
522.162879	15054.072028
524.540721	13897.086014
526.915908	11633.109790
529.290477	8482.918182
531.666464	4952.590210
534.039799	2013.299301
536.414551	640.503497
538.784618	570.692308
541.154069	811.098601
543.524938	862.467832
545.891127	825.417483
548.258734	758.937063
550.623695	699.746154
552.988043	648.930769
555.351778	604.683916
557.716931	570.399301
560.077412	545.864336
562.439311	519.711888
564.798569	501.160839
567.155190	483.381119
569.515255	470.567133
571.868629	454.121678
574.225448	442.997902
576.579632	428.955245
578.933208	415.354545
581.286175	403.648951
583.636510	395.594406
585.988263	388.645455
588.333339	382.781818
590.683879	382.310490
593.027745	381.816783
595.377073	378.602098
597.721752	380.707692
600.063807	382.631469
602.407279	386.467832
604.748128	387.734266
607.088375	388.936364
609.426001	391.907692
611.767062	392.321678
614.103485	392.051748
616.441325	387.454545
618.776548	388.172727
621.109155	381.117483
623.443178	372.241958
625.774587	364.620280
628.105398	357.613287
630.435612	348.390210
632.765227	342.179720
635.090220	335.848252
637.420653	328.194406
639.746466	323.270629
642.069671	323.307692
644.394293	322.941259
646.716309	325.775524
649.037731	326.244056
651.356551	327.416084
653.676786	330.893007
655.996428	333.352448
658.313469	331.602098
660.629918	331.788112
662.943769	331.318182
665.259036	331.220280
667.571706	329.151748
669.885791	330.300000
672.195276	329.811888
674.506177	326.555245
676.814485	323.908392
679.122205	319.218881
681.431339	317.162937
683.735881	309.422378
686.039837	302.291608
688.343207	294.946853
690.647991	289.284615
692.948189	284.193706
695.249801	280.172727
697.550829	277.213986
699.847274	272.711888
702.145135	268.178322
704.442412	266.129371
706.739106	260.088811
709.031224	257.862238
711.326753	254.254545
713.617708	255.117483
715.910078	251.542657
718.199873	249.172727
720.489087	250.169231
722.777722	251.709790
725.063784	249.779720
727.351261	251.960140
729.636166	253.934266
731.920494	256.924476
734.202253	256.879021
736.485426	259.652448
738.768022	263.586713
741.046062	264.152448
743.325517	265.292308
745.604395	266.703497
747.882699	268.983916
750.156453	267.716084
752.431620	266.149650
754.706214	267.616783
756.978249	268.635664
759.251697	268.234266
761.522587	266.740559
763.790921	264.517483
766.060668	260.326573
768.327861	259.047552
770.594483	263.269930
772.860535	266.657343
775.124036	272.890909
777.388950	274.393007
779.653294	278.294406
781.913109	284.861538
784.174336	290.454545
786.434996	293.751049
788.693110	292.087413
790.948679	292.855944
793.207639	290.382517
795.460100	291.475524
797.717927	291.038462
799.971236	295.034266
802.222005	298.492308
804.474186	296.848951
806.723828	295.306993
808.974883	300.469930
811.221426	304.017483
813.469381	303.490909
815.714802	299.697902
817.961634	301.124476
820.207905	298.558042
822.449671	295.579021
824.694821	296.532867
826.933498	303.383916
829.175557	304.343357
831.413118	305.708392
833.652091	302.997203
835.888537	302.341259
838.126394	296.505594
840.361726	291.946154
842.594535	284.079021
844.828755	275.723077
847.060452	269.884615
849.291595	268.083217
851.522183	268.352448
853.752217	273.748252
855.981697	273.110490
858.206695	276.136364
860.435068	274.993706
862.658961	278.303497
864.884266	284.243357
867.105095	286.593007
869.329296	290.611189
871.549024	293.590909
873.770162	300.724476
875.990750	305.925874
878.208829	302.969930
880.428317	300.402797
882.643339	295.860839
884.857814	291.941259
887.071740	291.602797
889.285120	290.075524
891.497952	294.302797
893.710238	294.330070
895.920021	298.669930
898.129259	300.768531
900.337952	298.791608
902.544146	301.349650
904.751749	303.969930
906.956854	306.156643
909.161416	311.020280
911.363483	307.947552
913.566959	309.588112
915.767941	316.674126
917.968381	323.960839
920.170230	337.686713
922.365688	354.777622
924.564505	381.221678
926.758883	409.854545
928.956619	462.175524
931.149919	522.596503
933.344628	585.839161
935.536851	647.518881
937.728535	700.230769
939.919682	747.848252
942.108346	790.726573
944.296474	809.176224
946.482121	838.469231
948.671120	851.232168
950.855696	854.406294
953.039737	855.686713
955.227128	853.726573
957.406215	862.995105
959.588653	861.565734
961.770557	855.144755
963.949986	860.664336
966.126943	864.437063
968.305308	868.172028
970.485080	868.311888
972.658503	891.615385
974.835272	903.637762
977.007634	911.191608
979.181404	917.613986
981.350770	893.207692
983.523480	868.886014
985.693725	828.745455
987.863441	776.652448
990.032628	732.006993
992.197418	679.391608
994.365549	632.336364
996.529286	585.790909
998.694429	559.928671
1000.857113	539.649650
1003.019272	526.718881
1005.178974	524.416783
1007.338151	503.710490
1009.498735	500.752448
1011.656865	502.506294
1013.814470	485.282517
1015.971552	482.802797
1018.128110	463.044755
1020.280289	459.700699
1022.433875	441.960839
1024.586939	417.827273
1026.737554	414.289510
1028.889576	399.685315
1031.037224	412.652448
1033.188204	417.673427
1035.334813	434.524476
1037.480903	454.808392
1039.626475	459.739860
1041.773452	460.720979
1043.914140	445.525175
1046.058158	445.761538
1048.199735	420.827972
1050.340796	399.110490
1052.483261	405.453147
1054.619447	400.530070
1056.758958	393.892308
1058.894115	389.795105
1061.032596	377.801399
1063.166723	386.820280
1065.300337	383.134266
1067.435356	394.477622
1069.566025	384.232168
1071.698099	378.495105
1073.827744	380.801399
1075.956877	383.139161
1078.085498	382.763636
1080.213608	363.292308
1082.339292	335.731469
1084.464466	328.072727
1086.591044	305.495804
1088.713284	318.079720
1090.836929	317.698601
1092.956239	319.608392
1095.080779	307.810490
1097.199073	309.016783
1099.318772	314.319580
1101.436052	304.677622
1103.552826	304.551049
1105.669093	286.728671
1107.782944	305.149650
1109.898200	304.079720
1112.009132	299.080420
1114.123377	307.304895
1116.233301	310.858042
1118.344629	304.560140
1120.455452	301.272028
1122.561959	298.215385
1124.671776	299.446154
1126.777278	305.520979
1128.884183	303.073427
1130.984873	286.554545
1133.090775	287.690210
1135.192368	271.544755
1137.295364	259.042657
1139.397859	255.910490
1141.494147	263.245455
1143.595643	246.453147
1145.692835	232.146154
1147.789530	227.341958
1149.885726	223.220979
1151.981425	221.352448
1154.076625	222.960140
1156.169429	223.063636
1158.263636	225.423077
1160.351651	232.571329
1162.444864	231.002098
1164.531889	237.639860
1166.622213	244.543357
1168.708250	229.306294
1170.797584	218.445455
1172.880737	212.713986
1174.965292	212.479021
1177.051249	215.780420
1179.132924	231.692308
1181.216001	238.513986
1183.296692	248.813986
1185.376891	255.200000
1187.456599	258.595804
1189.535816	259.451748
1191.612651	251.086014
1193.687105	235.639860
1195.764850	226.854545
1197.838326	223.489510
1199.913202	223.078322
1201.983811	215.233566
1204.055821	217.497203
1206.125456	215.274825
1208.196491	216.241958
1210.267038	214.259441
1212.333324	215.744056
1214.401011	213.118881
1216.466326	211.316084
1218.533041	211.946154
1220.595500	211.506993
1222.661244	216.636364
1224.722734	217.023077
1226.785625	217.392308
1228.846148	218.923077
1230.906187	221.127972
1232.965744	222.031469
1235.022935	224.958741
1237.079645	221.954545
1239.133991	220.200000
1241.191619	218.015385
1243.246884	211.765035
1245.297908	208.969930
1247.350332	206.579720
1249.402276	203.037063
1251.451862	211.181818
1253.500969	205.047552
1255.549598	211.564336
1257.597748	212.218881
1259.645419	213.616084
1261.688860	209.706993
1263.735577	209.433566
1265.779940	207.037063
1267.823827	203.832867
1269.865362	206.327273
1271.904548	209.865035
1273.947007	212.195804
1275.985243	218.708392
1278.024878	222.006993
1280.064038	226.255944
1282.098979	226.897902
1284.135319	221.204196
1286.169315	218.035664
1288.204708	214.083916
1290.235889	206.817483
1292.268467	208.296503
1294.300574	208.430070
1296.330340	205.552448
1298.361504	197.788112
1300.388460	204.397902
1302.416814	216.158741
1304.440963	223.223776
1306.468378	225.565035
1308.491590	227.562238
1310.516200	230.727273
1312.538476	229.996503
1314.562149	226.496503
1316.583489	233.733566
1318.604361	220.736364
1320.624766	206.916084
1322.640978	204.948951
1324.658587	204.027273
1326.673868	201.929371
1328.692408	200.397902
1330.706759	195.473427
1332.718784	198.434266
1334.734066	193.683217
1336.745163	186.246154
1338.757657	186.182517
1340.765968	184.211189
1342.777534	176.465035
1344.783062	180.900000
1346.791845	187.409091
1348.796450	186.665734
1350.804309	191.715385
1352.811706	197.808392
1354.813072	200.723077
1356.815834	196.857343
1358.818137	194.022378
1360.819980	189.447552
1362.821363	189.565035
1364.820433	187.444056
1366.819044	190.713287
1368.817197	188.032867
1370.814891	184.080420
1372.808423	182.838462
1374.803351	186.779021
1376.797821	190.320979
1378.791835	185.716084
1380.783542	183.047552
1382.774794	183.906294
1384.763740	192.823776
1386.754081	198.091608
1388.743967	203.941958
1390.731549	208.648252
1392.718678	199.162238
1394.703505	196.001399
1396.689727	191.166434
1398.673649	190.942657
1400.657118	186.998601
1402.640134	184.767832
1404.620853	184.371329
1406.602966	181.151049
1408.582783	185.872727
1410.562148	186.324476
1412.537375	190.363636
1414.515840	194.588811
1416.492012	192.606993
1418.467735	197.688811
1420.443008	200.712587
1422.415990	204.618881
1424.388524	203.665035
1426.360610	210.323776
1428.332249	208.427273
1430.299759	204.051049
1432.272343	208.282517
1434.237122	208.757343
1436.206972	209.327273
1438.172699	215.403497
1440.139818	215.860140
1442.104654	219.132867
1444.065370	220.876224
1446.031154	215.938462
1447.990983	210.900699
1449.952206	205.841958
1451.914821	198.133566
1453.873321	194.448252
1455.831378	196.976923
1457.788994	189.858741
1459.746167	192.277622
1461.701065	198.330769
1463.657356	198.739860
1465.611372	202.750350
1467.564947	207.474825
1469.516250	207.471329
1471.468946	206.195105
1473.419369	205.476923
1475.369354	203.616783
1477.318900	206.837762
1479.266177	201.885315
1481.211186	194.797902
1483.157588	188.776224
1485.103552	189.254545
1487.049079	190.048252
1488.992340	191.397203
1490.935166	198.623077
1492.875728	200.277622
1494.817681	199.489510
1496.757372	199.469231
1498.696629	194.723077
1500.635450	192.603497
1502.572012	190.151748
1504.509965	181.784615
1506.445659	184.858042
1508.380920	189.426573
1510.313925	196.743357
1512.246497	198.892308
1514.178637	211.442657
1516.110345	207.768531
1518.039799	202.167133
1519.970644	200.947552
1521.901057	197.364336
1523.827398	197.827273
1525.755130	196.874825
1527.680611	198.167832
1529.605663	200.778322
1531.530286	197.451748
1533.454480	201.594406
1535.376426	203.255944
1537.299763	207.562937
1539.220853	202.271329
1541.139700	206.896503
1543.059935	205.645455
1544.977928	205.329371
1546.895494	212.857343
1548.810818	216.832867
1550.727532	225.154545
1552.640191	219.990210
1554.556054	217.094406
1556.469677	220.289510
1558.381062	230.040559
1560.293837	228.186014
1562.202562	222.012587
1564.112676	229.936364
1566.022367	223.965035
1567.931635	221.158741
1569.838669	220.659441
1571.743470	218.028671
1573.649660	212.417483
1575.553618	201.284615
1577.457155	195.383916
1579.360272	202.248951
1581.261159	209.198601
1583.163435	205.315385
1585.063483	203.092308
1586.964918	216.972028
1588.862320	218.811189
1590.759303	223.834266
1592.655868	222.050350
1594.553821	220.571329
1596.445939	211.485315
1598.341250	210.567832
1600.236144	215.700699
1602.128816	218.025175
1604.021071	216.566434
1605.911107	214.262937
1607.800727	213.353846
1609.689932	218.111888
1611.578722	215.949650
1613.465294	220.033566
1615.353254	212.444755
1617.237197	213.887413
1619.122527	217.911888
1621.007444	224.679720
1622.890147	223.312587
1624.774237	223.125175
1626.654315	225.218182
1628.535781	235.562937
1630.415036	246.490210
1632.295677	250.293706
1634.170514	239.307692
1636.050332	236.436364
1637.926146	234.167133
1639.801549	229.018881
1641.678338	228.897203
1643.549331	226.290210
1645.423505	232.488112
1647.293680	241.382517
1649.167037	241.911888
1651.038190	257.676224
1652.907141	264.728671
1654.777477	264.627273
1656.643821	261.241958
1658.511550	255.608392
1660.377080	248.517483
1662.243996	241.734965
1664.106923	238.262937
1665.971235	237.288112
1667.833351	242.669930
1669.695062	233.558741
1671.558159	214.300699
1673.419060	227.825874
1675.277769	224.810490
1677.136074	233.156643
1678.995764	229.339161
1680.849686	224.405594
1682.706782	232.823077
1684.563475	236.653846
1686.416191	241.530769
1688.272079	244.846853
1690.123993	251.821678
1691.975506	249.731469
1693.826618	246.018881
1695.677330	260.686713
1697.527641	264.611888
1699.375767	256.072028
1701.225278	235.323776
1703.069040	233.027972
1704.917751	253.513287
1706.760716	249.627273
1708.606848	258.898601
1710.449017	269.770629
1712.294352	273.191608
1714.133946	269.972028
1715.974924	263.061538
1717.817285	264.981119
1719.655690	251.737063
1721.495478	238.289510
1723.333091	219.364336
1725.170308	231.115385
1727.005352	242.649650
1728.841779	244.691608
1730.676034	253.858741
1732.509894	260.699301
1734.343360	259.945455
1736.172881	260.709091
1738.005560	257.421678
1739.834295	243.821678
1741.666187	234.537762
1743.494137	257.124476
1745.321696	238.541958
1747.148862	257.686014
1748.975637	247.139161
1750.802020	263.438462
1752.624467	256.555944
1754.450069	262.716084
1756.271736	266.542657
1758.094785	274.605594
1759.915672	267.854545
1761.736171	254.693007
1763.558051	254.595804
1765.374231	271.690909
1767.193563	250.758741
1769.008968	254.281818
1770.827523	237.237063
1772.642153	240.124476
1774.456396	236.593706
1776.270253	236.497203
1778.083723	234.667832
1779.895040	256.152448
1781.707737	255.925175
1783.520049	250.977622
1785.328443	248.058741
1787.138217	259.053846
1788.944077	257.263636
1790.753082	254.553147
1792.558174	238.893706
1794.364647	228.648951
1796.170736	231.670629
1797.972914	235.198601
1799.778237	233.879720
1801.579651	244.938462
1803.382445	243.131469
1805.181333	245.537762
1806.981602	251.711888
1808.781489	260.293706
1810.579234	271.379720
1812.376599	261.629371
1814.173584	249.988811
1815.970188	244.202098
1817.764653	257.915385
1819.560497	272.580420
1821.350686	253.013986
1823.145772	252.695105
1824.935206	257.433566
1826.727776	257.739161
1828.518211	253.479021
1830.306512	253.521678
1832.097948	241.126573
1833.883738	226.604196
1835.670908	217.434965
1837.455946	212.158741
1839.244118	226.542657
1841.028404	239.342657
1842.810560	228.987413
1844.594096	234.155245
1846.375503	226.383217
1848.158289	226.113986
1849.937194	216.537063
1851.717479	218.287413
1853.495637	206.650350
1855.275174	206.214685
1857.052586	212.011888
1858.827874	216.322378
1860.604540	229.424476
1862.379084	241.369231
1864.155006	243.306294
1865.925307	243.064336
1867.698736	245.993706
1869.470045	253.280420
1871.240983	250.904895
1873.013299	256.095105
1874.780001	244.882517
1876.549829	241.044056
1878.315793	235.504895
1880.084880	219.769930
1881.850106	204.996503
1883.614964	202.932168
1885.381199	194.829371
1887.143575	196.004196
1888.905584	198.425175
1890.667225	198.206993
1892.428500	205.792308
1894.189407	200.269930
1895.949948	201.342657
1897.708379	214.812587
1899.466444	211.064336
1901.222402	215.472727
1902.979736	205.362937
1904.736705	205.815385
1906.491567	203.487413
1908.244325	204.706294
1909.996718	204.640559
1911.750488	206.257343
1913.502154	206.927972
1915.251718	202.702098
1917.002657	210.853147
1918.753234	215.991608
1920.499971	208.717483
1922.248085	212.836364
1923.994099	202.148951
1925.741488	202.419580
1927.486780	204.060839
1929.229974	200.811888
1930.974543	200.091608
1932.717017	197.365734
1934.459130	200.097902
1936.200883	200.091958
1937.942276	198.535664
1939.681576	189.291259
1941.420517	185.730769
1943.159099	191.919231
1944.895590	190.374126
1946.631723	191.441608
1948.369230	187.341259
1950.102915	183.138112
1951.837975	180.572727
1953.570946	180.527622
1955.303561	184.935664
1957.035820	190.423427
1958.767722	195.088112
1960.497538	197.136364
1962.225269	207.112587
1963.954375	214.898601
1965.683126	205.783916
1967.409793	205.435664
1969.136106	199.458042
1970.863792	194.691608
1972.585942	182.769930
1974.311193	171.938462
1976.032637	170.634266
1977.757182	166.338462
1979.479646	169.495804
1981.198308	176.720280
1982.920068	185.183217
1984.638026	197.360839
1986.357357	194.490210
1988.072889	199.481119
1989.793241	199.199301
1991.509795	203.001399
1993.222552	199.869930
1994.938405	194.373427
1996.652186	190.116783
1998.365617	180.006993
2000.076977	185.674825
2001.789709	188.544056
2003.498651	186.861538
2005.210685	195.642657
2006.917211	189.490909
2008.626828	189.368531
2010.334379	195.337063
2012.041581	205.979021
2013.746718	206.048951
2015.451509	207.186014
2017.157671	212.652448
2018.860051	211.787413
2020.563802	210.944056
2022.265491	204.671329
2023.966835	195.266434
2025.667833	192.392308
2027.366770	178.936364
2029.067079	175.013986
2030.763613	177.088112
2032.461518	175.704895
2034.157364	174.122378
2035.856296	181.256643
2037.549742	188.330769
2039.244559	189.854545
2040.939034	197.623776
2042.629740	197.937762
2044.323530	200.297902
2046.013553	197.759441
2047.704947	193.389510
2049.394288	193.968531
2051.084999	194.511189
2052.771947	193.774126
2054.458556	195.077622
2056.146534	191.396503
2057.830753	186.099301
2059.516343	188.328671
2061.201593	192.277622
2062.884794	183.546853
2064.569366	193.023077
2066.248475	195.230769
2067.932369	201.642657
2069.610802	205.518881
2071.292313	202.951748
2072.970072	200.627972
2074.647495	195.578322
2076.326287	182.440559
2078.003037	180.571329
2079.677745	176.827273
2081.353822	173.893706
2083.027859	177.409091
2084.701560	183.959441
2086.374926	187.433566
2088.046253	193.140559
2089.717246	194.529371
2091.387905	192.327273
2093.058230	195.167133
2094.728221	193.014685
2096.396176	197.833566
2098.063798	197.601399
2099.729385	190.828671
2101.396341	194.185315
2103.061264	199.314685
2104.725855	193.821678
2106.388414	191.053147
2108.052341	194.534965
2109.714237	193.897902
2111.375803	195.677622
2113.037037	198.344056
2114.696243	198.002098
2116.355118	206.894406
2118.013664	203.047552
2119.671880	208.786713
2121.326372	206.193706
2122.983929	207.814685
2124.641157	200.840559
2126.294663	202.783217
2127.949537	197.444755
2129.600692	182.642657
2131.254910	183.888112
2132.905411	178.810490
2134.557278	178.599301
2136.203737	185.083217
2137.854951	186.634266
2139.502451	199.132168
2141.151318	196.413986
2142.798166	200.538462
2144.444689	199.035664
2146.090886	199.728671
2147.733375	185.783916
2149.378922	180.120280
2151.020762	183.614685
2152.665659	177.119580
2154.306850	176.958042
2155.947719	186.621678
2157.588263	183.251748
2159.226795	191.135664
2160.866693	190.525175
2162.502891	195.928671
2164.140455	199.740559
2165.777697	194.545455
2167.412929	192.488112
2169.047840	194.469930
2170.682428	196.104895
2172.316696	197.013986
2173.947270	196.654545
2175.580896	195.267832
2177.210830	184.644056
2178.842129	194.735664
2180.471423	200.197203
2182.100398	205.030070
2183.729053	204.265035
2185.357389	192.426573
2186.983723	192.488811
2188.609738	185.804895
2190.233751	179.485315
2191.859130	172.564336
2193.482508	162.368531
2195.107251	161.157343
2196.728313	165.234965
2198.349058	175.000699
2199.971168	178.793706
2201.591280	183.413986
2203.209395	182.520280
2204.827195	183.330070
2206.444680	187.102098
2208.061849	182.906993
2209.678703	183.595804
2211.295241	190.085315
2212.909787	188.965734
2214.522340	193.741958
2216.136257	190.080420
2217.748183	189.502797
2219.361472	193.964336
2220.972771	187.744755
2222.582080	189.053147
2224.192753	190.793706
2225.801437	188.439161
2227.409808	193.523776
2229.016193	193.885315
2230.623941	196.102098
2232.229702	189.607692
2233.835152	194.044056
2235.438617	192.620979
2237.043445	194.838462
2238.646289	201.288811
2240.247150	201.504895
2241.849374	213.798601
2243.449616	214.660140
2245.051220	213.801399
2246.649171	212.372727
2248.248485	199.188811
2249.845819	188.804196
2251.442845	184.246853
2253.041233	185.049650
2254.635972	185.039161
2256.228734	188.796503
2257.822859	197.197902
2259.418345	200.045455
2261.010186	208.030070
2262.601721	203.714685
2264.194618	203.895804
2265.782205	202.481818
2267.374488	196.037762
2268.961465	193.360839
2270.551469	199.264336
2272.136169	209.344755
2273.725563	210.811189
2275.309655	221.206294
2276.895107	218.276224
2278.478591	219.465734
2280.065100	217.755245
2281.647976	207.398601
2283.230549	203.938112
2284.812818	195.700000
2286.391457	183.549301
2287.973121	182.193007
2289.551156	179.019231
2291.132214	173.653846
2292.709645	172.152098
2294.285113	182.478322
2295.863603	184.626224
2297.438469	192.041958
2299.013034	186.031818
2300.587299	178.669231
2302.161263	186.873776
2303.734926	191.005594
2305.308290	191.781119
2306.878035	189.234965
2308.447481	181.593007
2310.019945	179.611189
2311.587135	191.563636
2313.157343	196.155944
2314.723936	193.011888
2316.291889	182.661538
2317.857886	173.258741
2319.423586	177.110490
2320.988988	197.309091
2322.552437	211.312587
2324.117245	210.824476
2325.678445	196.226573
2327.242659	198.387413
2328.801611	205.972727
2330.363578	211.807692
2331.923593	207.319580
2333.483314	202.110490
2335.041085	200.265734
2336.598561	207.520280
2338.155743	210.824476
2339.710977	225.787413
2341.265918	242.459441
2342.820564	242.679720
2344.374917	241.966434
2345.928977	245.806993
2347.482742	256.054545
2349.034564	255.059441
2350.584442	256.098601
2352.137328	251.027273
2353.684972	252.057343
2355.235623	245.682517
2356.782683	233.380420
2358.331101	241.732168
2359.879228	237.722378
2361.423766	230.578322
2362.969662	230.712587
2364.513620	230.090210
2366.058935	238.932867
2367.600665	240.327972
2369.143752	246.397203
2370.684903	247.785315
2372.225765	258.717483
2373.766338	251.874126
2375.306622	249.381818
2376.846617	237.329371
2378.383034	224.346154
2379.922452	216.267832
2381.458293	220.702797
2382.995490	215.796503
2384.529112	208.600000
2386.065734	211.469231
2387.600426	218.752448
2389.133188	228.888811
2390.665663	229.777622
2392.196210	224.337762
2393.729755	233.304895
2395.258089	230.740559
2396.787780	244.155944
2398.317184	243.102098
2399.846304	239.878322
2401.375139	224.997203
2402.898768	227.834965
2404.427033	226.884615
2405.950096	228.830769
2407.477792	225.472727
2408.998649	220.644755
2410.524139	224.013287
2412.046068	230.710490
2413.569353	233.340559
2415.090716	247.300000
2416.610160	238.601399
2418.130959	237.718881
2419.649840	230.012587
2421.168438	240.942657
2422.685119	227.188112
2424.203154	232.383217
2425.720908	235.353147
2427.235111	234.983217
2428.749033	236.743357
2430.262675	228.374126
2431.777672	239.605594
2433.289120	233.302098
2434.801923	218.357343
2436.312812	207.300000
2437.823423	193.272028
2439.332122	180.375524
2440.843807	166.613986
2442.351949	175.827972
2443.859813	181.259441
2445.367399	189.527972
2446.871444	198.515385
2448.378474	221.246853
2449.883597	239.871329
2451.388441	239.874126
2452.891379	247.045455
2454.394041	248.673427
2455.896426	246.122378
2457.396906	240.665035
2458.898739	244.672028
2460.398667	247.725874
2461.898320	248.023077
2463.397698	241.118182
2464.895173	246.622378
2466.390746	257.993007
2467.889299	253.804196
2469.384324	249.109091
2470.880701	241.992308
2472.373552	232.315385
2473.867756	221.915385
2475.361686	226.187413
2476.852092	220.107692
2478.345476	221.013986
2479.836962	202.951748
2481.326551	190.272028
2482.815868	197.672028
2484.303289	196.574825
2485.793686	197.165035
2487.280565	196.058741
2488.768795	200.988112
2490.253508	208.073427
2491.737952	220.951049
2493.223746	235.265734
2494.707649	230.916084
2496.192902	229.157343
2497.673022	209.591608
2499.156115	206.693706
2500.637317	207.996503
2502.118250	212.869231
2503.597294	210.362937
2505.076069	209.053147
2506.554576	204.592308
2508.032815	205.981818
2509.510785	218.807692
2510.985250	220.653147
2512.462685	218.879021
2513.936616	212.616783
2515.411897	209.653846
2516.886911	215.692308
2518.358425	230.427273
2519.831288	248.137063
2521.302269	241.354545
2522.774600	238.002797
2524.241817	228.798601
2525.712001	227.688112
2527.180304	228.960140
2528.648342	228.373427
2530.116115	226.525874
2531.583623	216.697203
2533.050866	204.804196
2534.514617	206.609790
2535.979718	208.727972
2537.442942	212.640559
2538.907516	208.058741
2540.368600	206.184615
2541.831034	186.757343
2543.293205	186.632168
2544.751890	190.985315
2546.215147	188.693706
2547.673307	193.090210
2549.132816	188.566434
2550.587231	178.976923
2552.046217	173.962238
2553.503331	169.522378
2554.958574	182.290909
2556.413555	188.896503
2557.866668	182.269930
2559.321129	187.051049
2560.773720	209.810490
2562.226052	210.714685
2563.676517	217.410490
2565.129937	223.553846
2566.578275	206.350350
2568.029569	202.551049
2569.478996	197.286014
2570.924951	203.106294
2572.373861	212.938462
2573.819301	209.818881
2575.266088	215.669231
2576.711013	235.751748
2578.155679	235.790210
2579.601693	223.053846
2581.044241	230.365035
2582.488136	211.670629
2583.928566	191.230769
2585.370343	197.727972
2586.810261	188.125874
2588.251526	179.542657
2589.689329	183.124476
2591.130082	178.259441
2592.565773	176.826573
2594.004413	173.387413
2595.441195	159.351748
2596.876122	155.979720
2598.313996	160.281119
2599.746813	156.954545
2601.180977	160.798601
2602.613287	175.929371
2604.046943	194.097203
2605.478746	203.946853
2606.910295	226.183217
2608.341592	228.880420
2609.771036	225.878322
2611.200228	220.572028
2612.627570	209.679720
2614.056257	200.846853
2615.484693	196.317483
2616.909681	182.327972
2618.336016	179.025175
2619.760502	176.358042
2621.186334	185.247552
2622.608722	178.589510
2624.032456	175.094406
2625.454343	158.135664
2626.875981	159.824476
2628.295773	167.874825
2629.716911	166.070629
2631.137799	173.191608
2632.555249	180.717483
2633.975638	175.743357
2635.392590	185.962937
2636.809293	180.230769
2638.225748	181.110490
2639.641955	186.155245
2641.057914	173.449650
2642.472032	160.679720
2643.885902	168.531469
2645.297934	172.837063
2646.711309	169.025874
2648.121255	171.318182
2649.534137	165.047552
2650.943590	164.376224
2652.352797	169.194406
2653.760168	166.940559
2655.170473	180.123077
2656.578943	198.292308
2657.985577	200.127972
2659.391966	187.269930
2660.796521	186.223776
2662.202420	192.526573
2663.606486	189.472727
2665.010307	182.444755
2666.413884	167.706294
2667.815630	163.373427
2669.218719	172.258741
2670.618390	180.527972
2672.019405	184.855944
2673.417004	189.723077
2674.817533	185.073427
2676.214646	179.648951
2677.613103	185.471329
2679.009733	191.213287
2680.406120	188.190210
2681.802265	185.999301
2683.196585	175.317483
2684.592246	174.758741
2685.984499	177.919580
2687.378094	186.099301
2688.769865	185.625874
2690.162979	190.146853
2691.554269	196.034266
2692.943736	195.437762
2694.332963	191.957343
2695.721951	181.718881
2697.112280	182.327273
2698.497626	172.258741
2699.885895	173.726573
2701.272344	172.024476
2702.658554	171.190909
2704.044525	175.881119
2705.427098	176.627273
2706.811013	178.029371
2708.194690	170.915385
2709.578128	162.874126
2710.958172	162.744755
2712.339556	154.926573
2713.719126	157.907692
2715.100036	155.789510
2716.479132	166.904196
2717.856414	161.563636
2719.235037	164.386713
2720.611847	152.832867
2721.988420	159.412587
2723.364758	165.718182
2724.739285	163.332867
2726.115152	167.283217
2727.487632	171.870629
2728.863028	184.416084
2730.233464	189.202797
2731.605241	196.037063
2732.976783	188.896503
2734.346517	188.484615
2735.717592	188.769930
2737.086858	184.065035
2738.455891	194.655944
2739.823118	201.032867
2741.190112	187.180420
2742.556872	186.613986
2743.923401	187.073427
2745.288124	191.686713
2746.652615	191.466434
2748.016875	185.121678
2749.380902	181.041259
2750.744698	181.753846
2752.105120	177.832867
2753.468452	174.255944
2754.826842	181.900699
2756.188142	186.390909
2757.546072	168.974126
2758.906910	169.270629
2760.265949	160.758042
2761.621619	155.037762
2762.980197	160.029371
2764.335408	153.646853
2765.690390	161.940559
2767.043576	158.470629
2768.399668	162.395804
2769.752395	163.413986
2771.104895	176.577622
2772.457166	172.139860
2773.810776	162.421678
2775.161024	166.626573
2776.509478	170.597203
2777.860838	164.151748
2779.208838	178.840559
2780.558176	176.357343
2781.905722	178.651748
2783.253042	184.004895
2784.600135	189.364336
2785.945437	182.641958
2787.290512	174.206993
2788.635362	162.649650
2789.979986	164.090909
2791.321258	166.284615
2792.663868	164.830769
2794.006252	163.209091
2795.348411	169.809790
2796.687221	170.807692
2798.028931	180.302098
2799.367293	192.024476
2800.706991	192.134266
2802.044905	180.986014
2803.381034	181.681119
2804.716939	175.002797
2806.054182	159.978322
2807.389641	163.113287
2808.724877	157.027273
2810.058330	157.453846
2811.393120	144.197203
2812.724570	152.483217
2814.058915	163.880420
2815.388362	170.682517
2816.719146	175.155245
2818.049708	174.541259
2819.378491	180.547552
2820.708610	169.312587
2822.036951	163.848951
2823.365071	175.238462
2824.691413	175.426573
2826.019092	178.979720
2827.343437	172.890909
2828.669119	176.838462
2829.993025	183.744056
2831.316712	185.527273
2832.641734	187.697902
2833.963426	186.723077
2835.284900	180.732867
2836.606155	170.827972
2837.927191	154.748252
2839.246454	136.436364
2840.567053	142.644056
2841.885881	140.441958
2843.204490	138.981119
2844.521328	137.425175
2845.837949	147.813986
2847.154353	156.251049
2848.468987	155.974825
2849.784957	167.890210
2851.097606	169.148951
2852.411590	163.728671
2853.725358	152.237762
2855.038909	156.602098
2856.350694	167.194406
2857.660712	167.424476
2858.972065	170.709091
2860.280103	175.706294
2861.589475	181.296503
2862.898633	184.065734
2864.207575	181.739161
2865.514753	183.337063
2866.820169	180.976923
2868.126919	164.955245
2869.431906	157.367832
2870.736680	159.830769
2872.039692	146.910490
2873.345585	143.803497
2874.646624	135.858042
2875.948997	130.241958
2877.249610	136.434266
2878.551557	148.548951
2879.853290	151.967133
2881.151720	165.146853
2882.451483	172.390210
2883.749489	175.386014
2885.047283	192.079021
2886.343321	199.922378
2887.640692	199.804196
2888.936307	191.244755
2890.231711	178.772028
2891.526904	168.948252
2892.818800	179.156643
2894.113572	168.151049
2895.405047	161.450350
2896.697855	169.448252
2897.990453	169.720979
2899.279757	181.755944
2900.570393	188.562937
2901.859278	182.821678
2903.149495	185.885315
2904.436421	175.941259
2905.724679	167.101399
2907.011188	166.363636
2908.297489	163.240559
2909.583581	151.638462
2910.867925	142.566434
2912.155140	145.081818
2913.437529	148.892308
2914.721250	156.431469
2916.003225	157.582517
2917.284992	155.967133
2918.565015	158.234965
2919.847907	145.809790
2921.129054	145.253846
2922.406919	150.718881
2923.687653	140.225874
2924.965106	143.698601
2926.242353	141.419580
2927.517858	150.793706
2928.796231	154.709790
2930.069790	172.739860
2931.346216	172.755245
2932.620901	170.968531
2933.893845	172.414685
2935.168121	163.593007
2936.440657	163.665035
2937.712988	156.625175
2938.982047	151.200699
2940.253971	149.414685
2941.524157	149.868531
2942.794139	151.195105
2944.063918	164.234266
2945.331961	173.663636
2946.598267	166.058741
2947.864372	165.388112
2949.131806	170.016084
2950.397506	177.566434
2951.663003	175.181818
2952.928298	175.837762
2954.190328	172.733566
2955.453688	162.893706
2956.716847	154.357343
2957.978274	153.128671
2959.241030	154.184615
2960.502054	142.791608
2961.761348	137.861538
2963.020442	129.220979
2964.279335	131.439860
2965.538028	146.176923
2966.796521	146.050350
2968.053285	152.109091
2969.309849	154.072028
2970.564686	153.857343
2971.820851	159.081818
2973.073762	167.506993
2974.328002	170.825175
2975.582043	178.033566
2976.834358	174.148951
2978.086474	163.499301
2979.336866	166.258741
2980.590113	173.690210
2981.838583	177.118881
2983.089908	185.015385
2984.337983	183.218182
2985.585862	178.077622
2986.833543	178.432867
2988.081027	172.898601
2989.326790	171.113986
2990.572357	161.893706
2991.819251	151.191608
2993.062901	145.267832
2994.307879	144.009091
2995.549613	141.922378
2996.794199	147.290210
2998.037066	146.296503
2999.276692	141.360839
3000.519168	138.265734
3001.758404	138.102797
3002.998968	142.498601
3004.237816	137.487413
3005.476468	134.979021
3006.713406	139.697203
3007.951670	135.341259
3009.188219	139.360140
3010.424575	141.455944
3011.660737	141.295105
3012.895185	134.067832
3014.129441	129.716084
3015.363503	126.715385
3016.595853	123.543357
3017.826491	123.532168
3019.059975	113.745455
3020.291747	118.288112
3021.521809	120.088112
3022.751679	130.442657
3023.979839	150.691608
3025.209325	155.273427
3026.437102	163.236364
3027.664688	173.571329
3028.893601	164.201399
3030.117771	160.501399
3031.344784	152.725874
3032.568573	144.982517
3033.793689	138.239860
3035.017098	135.901399
3036.240317	134.969231
3037.461831	136.986713
3038.686186	140.090210
3039.905806	137.275524
3041.126752	152.385315
3042.347509	154.979720
3043.566562	144.579720
3044.786940	146.425874
3046.004102	141.833566
3047.222590	142.013287
3048.439375	154.636364
3049.655973	156.235664
3050.872382	155.388811
3052.085579	155.638462
3053.301613	146.128671
3054.514435	149.832168
3055.730094	151.030769
3056.941030	150.948951
3058.153291	147.180420
3059.365366	146.869231
3060.577253	146.232867
3061.787444	146.532168
3062.997448	150.579021
3064.207266	143.830769
3065.415388	129.968531
3066.623325	126.339860
3067.829566	111.739161
3069.037132	122.552448
3070.243003	115.787413
3071.448690	114.311888
3072.654191	114.745455
3073.857999	118.499301
3075.063131	128.851748
3076.266570	135.581119
3077.468318	146.116084
3078.669881	145.957343
3079.871261	141.787413
3081.072457	156.902098
3082.271963	154.609790
3083.471286	153.501399
3084.671932	141.818881
3085.870888	129.862238
3087.066650	132.157343
3088.265241	130.579720
3089.460638	140.605594
3090.657358	135.490210
3091.850886	131.869231
3093.047242	125.962238
3094.241912	125.655944
3095.433391	126.834266
3096.629201	111.470629
3097.820318	106.616084
3099.012757	104.333566
3100.202009	106.380420
3101.394086	115.253846
3102.584480	115.795105
3103.771688	123.371329
3104.960219	122.983916
3106.150071	128.222378
3107.336740	130.830769
3108.523228	131.229371
3109.709538	122.967133
3110.897169	120.440559
3112.081618	121.550350
3113.264388	121.213287
3114.449980	123.685315
3115.633893	130.016783
3116.816127	130.896503
3117.998182	138.260839
3119.180059	146.313287
3120.361758	150.348252
3121.541780	146.738462
3122.720125	145.359441
3123.901290	134.083217
3125.079280	132.424476
3126.257094	122.729371
3127.434730	120.185315
3128.610691	121.008392
3129.786475	128.174825
3130.963581	122.202797
3132.139012	128.229371
3133.312770	130.518182
3134.484855	135.513287
3135.658262	125.238462
3136.831492	115.318182
3138.003051	115.164336
3139.175930	118.624476
3140.345642	107.723077
3141.516675	110.472727
3142.686038	108.318182
3143.853730	108.546853
3145.024238	109.560839
3146.190088	119.609091
3147.360246	132.439860
3148.525748	136.720979
3149.691075	128.300000
3150.856229	126.695105
3152.021210	136.409091
3153.187510	136.652448
3154.349158	118.614685
3155.512125	120.051748
3156.674920	113.887413
3157.837542	114.425874
3158.998499	119.582517
3160.159283	122.323776
3161.319895	139.410490
3162.478843	141.730769
3163.637620	145.673427
3164.796225	146.100000
3165.954657	142.490210
3167.112919	141.825175
3168.269518	133.453147
3169.424456	147.534965
3170.580713	143.767832
3171.735309	148.490210
3172.889735	147.065035
3174.042501	136.627972
3175.195096	134.528671
3176.347522	134.030769
3177.499778	131.044755
3178.651863	123.393706
3179.800803	110.936364
3180.952549	117.534266
3182.102637	117.067133
3183.251069	120.362937
3184.399331	120.238462
3185.547425	125.936364
3186.695350	124.727273
3187.841619	121.006294
3188.987720	130.148252
3190.132167	133.530769
3191.276446	135.303497
3192.420557	128.932867
3193.565985	129.918182
3194.708275	126.161538
3195.850398	117.951049
3196.992353	117.639161
3198.134141	123.921678
3199.275762	121.600699
3200.414248	128.550350
3201.554051	128.046154
3202.695172	124.862937
3203.833158	120.215385
3204.969495	106.824476
3206.105666	106.879021
3207.243154	107.541958
3208.378994	103.655245
3209.516151	113.066434
3210.648695	121.695105
3211.785521	130.933566
3212.917735	132.066434
3214.051266	139.418881
3215.184633	140.300699
3216.314872	132.718182
3217.447909	135.308392
3218.577820	116.751049
3219.709047	125.907692
3220.837150	125.388811
3221.968049	131.779021
3223.097304	123.940559
3224.224916	124.013986
3225.349405	116.926573
3226.478170	102.326573
3227.603813	111.888811
3228.729294	113.090909
3229.853133	102.076224
3230.979766	97.537063
3232.101802	83.459441
3233.225154	97.761538
3234.348344	107.541259
3235.471372	105.262937
3236.592760	103.847552
3237.713986	113.495804
3238.833575	102.953147
3239.953002	107.834965
3241.070791	117.173427
3242.191372	110.965734
3243.308840	107.744056
3244.426147	113.758042
3245.543294	115.497203
3246.658805	128.604895
3247.775630	131.066434
3248.889346	125.863636
3250.005851	131.841259
3251.120722	128.188112
3252.232484	113.572727
3253.344086	106.832168
3254.457004	94.857343
3255.569762	91.655944
3256.679414	96.432867
3257.790381	106.982517
3258.901189	109.917483
3260.010365	110.413986
3261.117911	111.669231
3262.226770	105.441958
3263.335472	108.807692
3264.441071	102.463636
3265.547984	100.476224
3266.653268	104.893007
3267.759866	112.146853
3268.863364	124.800699
3269.968177	127.241958
3271.072832	130.706294
3272.174388	127.490210
3273.275788	121.009091
3274.378502	116.633566
3275.481060	116.575524
3276.580521	119.939860
3277.682766	115.976224
3278.781915	114.178322
3279.879440	116.025175
3280.976809	117.053846
3282.076960	123.468531
3283.174019	121.871329
3284.270922	115.695105
3285.367670	113.461538
3286.459860	114.340559
3287.556298	118.533566
3288.651114	124.316783
3289.745776	119.079021
3290.838816	117.224476
3291.931701	118.400699
3293.022967	120.473427
3294.115544	125.319580
3295.206502	133.862238
3296.295840	137.934266
3297.385025	137.011189
3298.475523	136.510490
3299.562936	126.884615
3300.650196	129.856643
3301.738769	121.958741
3302.827190	115.914685
3303.911063	119.137762
3304.999178	117.937762
3306.084211	115.116084
3307.167629	114.358042
3308.252359	116.388811
3309.335473	122.408392
3310.419900	120.826573
3311.501248	113.397902
3312.583908	105.379021
3313.664954	108.906294
3314.745849	100.628671
3315.825130	98.958042
3316.904261	106.609091
3317.984704	103.225175
3319.062072	99.206294
3320.140752	103.048252
3321.217820	100.209790
3322.294739	105.586713
3323.370046	112.123077
3324.445204	117.844056
3325.521673	114.813986
3326.595072	115.228671
3327.668322	123.919580
3328.742882	128.296503
3329.815834	132.383916
3330.887177	129.297203
3331.959831	125.923077
3333.029419	119.995804
3334.100317	110.059441
3335.169608	116.010490
3336.240210	123.158741
3337.309205	120.394406
3338.376594	116.155944
3339.442378	115.619580
3340.512388	122.769231
3341.579335	112.059441
3342.643220	117.551049
3343.709873	117.503497
3344.774921	119.235664
3345.838366	110.306294
3346.901665	108.518881
3347.964817	105.679021
3349.027823	104.458741
3350.090683	100.093007
3351.151941	104.455245
3352.210142	96.735664
3353.272563	92.543357
3354.331929	89.521678
3355.391149	105.308392
3356.451679	104.017483
3357.507699	107.125175
3358.566483	104.449650
3359.620760	100.941259
3360.677801	103.088811
3361.733243	107.576923
3362.789995	114.301399
3363.845148	114.620280
3364.898704	106.110490
3365.950664	99.568531
3367.005385	106.229371
3368.057057	101.990909
3369.108586	96.472727
3370.161423	94.347552
3371.211213	101.258741
3372.262312	103.074825
3373.310365	109.404895
3374.361177	109.488811
3375.408945	119.654545
3376.456570	111.618881
3377.504052	107.077622
3378.549942	99.060140
3379.597140	100.026573
3380.641296	88.709091
3381.688210	87.682517
3382.733532	96.123077
3383.775813	105.169231
3384.817954	104.709790
3385.861402	105.009091
3386.904709	106.948951
3387.946427	119.688811
3388.988003	114.568531
3390.029438	111.919580
3391.069285	110.728671
3392.107543	110.967133
3393.147109	109.320280
3394.186535	107.672028
3395.224373	114.261538
3396.260624	118.009790
3397.296736	112.984615
3398.334155	110.472028
3399.368541	111.988112
3400.404234	113.893706
3401.439788	106.544755
3402.472311	108.751748
3403.507587	107.751049
3404.539832	103.006993
3405.571939	101.168531
3406.602462	96.255944
3407.634292	98.493706
3408.665984	95.925175
3409.694648	95.718881
3410.723175	95.069930
3411.753008	97.869231
3412.782704	99.510490
3413.809374	111.313287
3414.837351	121.563636
3415.862303	118.608392
3416.890005	114.435664
3417.914684	113.881119
3418.940669	103.606993
3419.965074	91.802797
3420.989343	82.062238
3422.012033	88.289510
3423.034587	88.702098
3424.058447	95.679021
3425.079287	94.669930
3426.099991	101.586414
3427.122002	105.888636
3428.140994	105.570130
3429.159850	98.624426
3430.180013	83.045055
3431.197159	56.825549
