-118.059454	4.900549
-115.389854	1.739560
-112.723189	-0.166533
-110.057276	-1.099201
-107.394295	-1.339910
-104.729885	-1.170130
-102.068405	-0.871329
-99.405496	-2.230070
-96.747693	-1.915385
-94.088461	-5.144056
-91.429977	-3.809790
-88.774417	-4.440559
-86.117429	-6.005594
-83.465539	-5.506993
-80.812218	-4.609091
-78.161818	-4.292308
-75.509988	-1.532168
-72.863249	-1.879720
-70.215081	0.182517
-67.567655	-1.413287
-64.923143	-1.682517
-62.277203	-2.237063
-59.636344	-1.107692
-56.994056	-0.272727
-54.354677	-0.848252
-51.713868	-1.141958
-49.073800	-1.411189
-46.438804	-1.168531
-43.802380	-0.273427
-41.168858	-1.597203
-38.533908	-1.129371
-35.904023	-3.044056
-33.270546	-0.386713
-30.642131	2.523077
-28.014450	4.429371
-25.385340	5.062937
-22.761287	-9.046853
-20.133645	-61.941958
-17.511056	-144.781818
-14.889199	-281.833566
-12.268072	56.402098
-9.647675	814.569930
-7.030167	1456.128671
-4.411230	1910.768531
-1.795178	2181.930769
0.820145	2262.100000
3.434741	2153.454545
6.046454	1860.215385
8.659596	1387.751049
11.267704	767.919580
13.879394	122.767832
16.486053	-362.480420
19.094140	-273.275524
21.701503	-21.319580
24.303841	8.746154
26.909757	7.855944
29.510651	7.118182
32.112973	4.657343
34.710278	3.642657
37.311158	3.752448
39.907023	3.655944
42.504317	1.239161
45.100891	0.366434
47.692456	-0.427972
50.285449	-0.468531
52.875581	-4.718182
55.467141	-2.058741
58.055841	-2.840559
60.645968	-4.621678
63.231096	-6.976224
65.817652	-6.481818
68.403494	-6.707692
70.986482	-4.602797
73.570896	-1.394406
76.148182	0.203497
78.729034	1.363636
81.307037	3.794406
83.884330	2.646853
86.463049	3.920280
89.036786	3.514685
91.611951	1.428671
94.184272	-0.071329
96.755885	-0.328671
99.324658	-3.271329
101.894858	-3.397203
104.462220	-3.726573
107.031007	-5.490909
109.596958	-5.783217
112.160074	-2.348252
114.726746	-2.277622
117.284197	1.826573
119.847333	4.190909
122.405509	7.976923
124.967240	13.938462
127.524014	23.234965
130.082215	29.395804
132.635462	40.428671
135.188012	52.737762
137.744112	64.029371
140.295264	80.460839
142.845719	95.481119
145.395476	107.576923
147.942414	118.928671
150.488657	122.816084
153.036325	128.504895
155.583297	127.598601
158.125334	130.051748
160.666677	128.594406
163.207327	129.780420
165.749403	127.948951
168.288667	126.077622
170.825123	129.058741
173.360887	127.225175
175.898077	126.910490
178.434576	126.910490
180.968269	127.021678
183.499158	124.260839
186.029360	119.997203
188.560986	118.932168
191.089811	116.872727
193.615837	117.002797
196.141177	115.540559
198.667942	114.683217
201.191911	116.257343
203.715195	117.645455
206.237794	116.710490
208.757600	118.113986
211.276723	122.348951
213.795163	122.562937
216.315027	125.855245
218.827890	126.595804
221.344284	131.000000
223.859996	134.679021
226.370818	137.982517
228.883065	139.119580
231.392530	145.439161
233.901316	146.998601
236.409423	142.393007
238.918955	141.632867
241.423606	143.765734
243.927581	142.327273
246.432980	139.381818
248.933504	141.022378
251.437552	141.568531
253.934628	141.502797
256.435228	143.849650
258.933056	144.290909
261.430211	147.499301
263.926693	148.023077
266.418312	147.596503
268.913451	150.667832
271.405823	153.676224
273.897525	153.981119
276.386464	155.065734
278.876827	159.102098
281.364427	161.025175
283.849268	164.472028
286.337624	170.727273
288.819040	174.204895
291.303970	180.323077
293.784055	187.318182
296.267652	190.605594
298.746406	193.758042
301.226584	194.321678
303.704009	195.242657
306.180771	191.839161
308.656870	186.411888
311.130220	183.257343
313.602908	181.404895
316.074935	181.885315
318.546301	182.144056
321.014922	182.541259
323.482885	183.048252
325.952269	181.750350
328.416831	180.615385
330.884897	177.654545
333.348143	173.427273
335.810731	166.292308
338.272663	159.086014
340.733938	157.484615
343.192479	157.486014
345.652442	156.434965
348.109672	156.800699
350.566248	155.275524
353.022170	156.633566
355.475362	158.549650
357.929977	158.502797
360.379790	159.259441
362.833099	157.283217
365.281610	153.218182
367.729469	149.428671
370.178751	149.467133
372.623239	146.685315
375.069149	143.234965
377.514409	141.687413
379.956951	141.002797
382.398845	139.534266
384.840092	141.650350
387.278623	142.844755
389.718576	145.253846
392.155815	141.164336
394.590342	136.957343
397.028357	137.341958
399.461595	138.521678
401.896254	136.102098
404.326141	135.605594
406.759513	136.453147
409.188115	139.047552
411.616075	138.235664
414.045457	141.339860
416.470073	141.379720
418.896111	138.469930
421.321508	137.281119
423.746265	137.362238
426.166264	137.506294
428.587684	135.897902
431.006407	132.995105
433.426551	132.967133
435.844000	133.022378
438.262869	132.490909
440.679045	129.749650
443.090473	131.079720
445.505379	130.319580
447.917594	126.847552
450.329175	126.209790
452.740122	125.334266
455.148383	121.831469
457.556011	117.482517
459.963007	119.714685
462.369372	120.207692
464.773054	118.795105
467.176106	120.700000
469.578528	125.097203
471.980320	129.730070
474.379435	130.711888
476.779969	134.138462
479.179874	138.290909
481.575056	143.023077
483.973705	145.748951
486.367634	150.755245
488.760937	158.955245
491.153614	161.067133
493.545666	163.862238
495.939136	168.354545
498.327894	167.133566
500.713986	147.558741
503.101498	98.812587
505.488387	127.225175
507.872612	463.624476
510.258255	1185.466434
512.641237	2084.658741
515.021558	2888.888811
517.403298	3460.197902
519.782379	3758.671329
522.162879	3762.384615
524.540721	3471.213986
526.915908	2910.673427
529.290477	2128.844755
531.666464	1250.899301
534.039799	523.734266
536.414551	177.733566
538.784618	152.755944
541.154069	211.272028
543.524938	225.358042
545.891127	211.213287
548.258734	197.800000
550.623695	181.252448
552.988043	169.206294
555.351778	161.423077
557.716931	152.317483
560.077412	144.878322
562.439311	137.622378
564.798569	132.917483
567.155190	128.739161
569.515255	124.513287
571.868629	121.782517
574.225448	118.119580
576.579632	114.700699
578.933208	112.024476
581.286175	112.550350
583.636510	110.639161
585.988263	107.072727
588.333339	105.315385
590.683879	104.772028
593.027745	101.041259
595.377073	98.788811
597.721752	96.988811
600.063807	96.721678
602.407279	95.811888
604.748128	96.900000
607.088375	99.115385
609.426001	102.781818
611.767062	104.680420
614.103485	106.220979
616.441325	106.660140
618.776548	108.544056
621.109155	106.753846
623.443178	104.307692
625.774587	100.346853
628.105398	98.818881
630.435612	94.570629
632.765227	94.358741
635.090220	91.102098
637.420653	89.525874
639.746466	89.900699
642.069671	89.588112
644.394293	90.772727
646.716309	94.987413
649.037731	96.854545
651.356551	95.276923
653.676786	97.905594
655.996428	98.211189
658.313469	95.045455
660.629918	94.394406
662.943769	91.527273
665.259036	91.813986
667.571706	91.514685
669.885791	90.860140
672.195276	90.883916
674.506177	90.817483
676.814485	91.046154
679.122205	89.086713
681.431339	87.813986
683.735881	84.653147
686.039837	82.498601
688.343207	79.825874
690.647991	77.877622
692.948189	79.158042
695.249801	77.235664
697.550829	75.593706
699.847274	74.888811
702.145135	76.418182
704.442412	76.939161
706.739106	76.122378
709.031224	74.434266
711.326753	72.198601
713.617708	72.974825
715.910078	72.310490
718.199873	72.226573
720.489087	72.130769
722.777722	71.483916
725.063784	69.930070
727.351261	71.864336
729.636166	73.364336
731.920494	72.512587
734.202253	73.438462
736.485426	73.168531
738.768022	72.538462
741.046062	76.161538
743.325517	77.958042
745.604395	78.556643
747.882699	79.761538
750.156453	79.011888
752.431620	78.072727
754.706214	77.937063
756.978249	78.803497
759.251697	79.520979
761.522587	78.956643
763.790921	77.497203
766.060668	77.660140
768.327861	75.619580
770.594483	76.441958
772.860535	75.206993
775.124036	74.365734
777.388950	72.835664
779.653294	74.730070
781.913109	77.364336
784.174336	81.579021
786.434996	86.158042
788.693110	86.096503
790.948679	86.241958
793.207639	83.883916
795.460100	83.332867
797.717927	81.148951
799.971236	78.080420
802.222005	79.100000
804.474186	77.988112
806.723828	79.192308
808.974883	79.616084
811.221426	81.532168
813.469381	84.026573
815.714802	80.909091
817.961634	82.356643
820.207905	82.454545
822.449671	85.088112
824.694821	80.559441
826.933498	81.515385
829.175557	81.083217
831.413118	80.580420
833.652091	81.692308
835.888537	79.927273
838.126394	82.075524
840.361726	81.713287
842.594535	83.888811
844.828755	87.872727
847.060452	89.623776
849.291595	86.941958
851.522183	80.539860
853.752217	79.862937
855.981697	74.265035
858.206695	71.714685
860.435068	65.277622
862.658961	61.884615
864.884266	64.176224
867.105095	67.417483
869.329296	73.369930
871.549024	77.872727
873.770162	81.470629
875.990750	84.056643
878.208829	85.927273
880.428317	88.310490
882.643339	84.836364
884.857814	86.279021
887.071740	84.727972
889.285120	83.804196
891.497952	87.620979
893.710238	88.008392
895.920021	85.746154
898.129259	84.158042
900.337952	80.975524
902.544146	81.853147
904.751749	80.199301
906.956854	77.776224
909.161416	78.293706
911.363483	83.566434
913.566959	84.571329
915.767941	83.158042
917.968381	86.480420
920.170230	89.227972
922.365688	92.511189
924.564505	98.468531
926.758883	108.888811
928.956619	121.006294
931.149919	135.742657
933.344628	155.004895
935.536851	173.555245
937.728535	189.332867
939.919682	206.114685
942.108346	215.754545
944.296474	220.144056
946.482121	225.413986
948.671120	224.875524
950.855696	223.481818
953.039737	226.163636
955.227128	221.870629
957.406215	228.527972
959.588653	230.653846
961.770557	231.565035
963.949986	230.005594
966.126943	235.689510
968.305308	234.203497
970.485080	235.388811
972.658503	237.348951
974.835272	242.317483
977.007634	245.237762
979.181404	244.392308
981.350770	243.664336
983.523480	245.455944
985.693725	232.860140
987.863441	219.011189
990.032628	199.893007
992.197418	188.610490
994.365549	171.843357
996.529286	167.372028
998.694429	158.186713
1000.857113	155.323776
1003.019272	146.476224
1005.178974	137.080420
1007.338151	142.313986
1009.498735	141.497902
1011.656865	137.618881
1013.814470	123.246154
1015.971552	120.002098
1018.128110	112.360140
1020.280289	106.916783
1022.433875	105.780420
1024.586939	100.377622
1026.737554	95.870629
1028.889576	91.173427
1031.037224	88.618881
1033.188204	94.645455
1035.334813	100.684615
1037.480903	100.690210
1039.626475	99.418182
1041.773452	116.860140
1043.914140	116.467133
1046.058158	123.404196
1048.199735	129.356643
1050.340796	126.925175
1052.483261	129.863636
1054.619447	129.616783
1056.758958	128.121678
1058.894115	132.795804
1061.032596	138.514685
1063.166723	141.835664
1065.300337	148.097203
1067.435356	152.467832
1069.566025	148.559441
1071.698099	141.788112
1073.827744	135.386713
1075.956877	121.156643
1078.085498	109.285315
1080.213608	91.362238
1082.339292	83.276923
1084.464466	79.629371
1086.591044	78.927273
1088.713284	80.315385
1090.836929	78.483916
1092.956239	80.622378
1095.080779	85.063636
1097.199073	85.957343
1099.318772	89.559441
1101.436052	89.310490
1103.552826	83.890909
1105.669093	81.216084
1107.782944	80.153147
1109.898200	78.922378
1112.009132	76.801399
1114.123377	74.818881
1116.233301	76.348252
1118.344629	78.464336
1120.455452	78.662238
1122.561959	80.462937
1124.671776	81.763636
1126.777278	79.375524
1128.884183	79.960140
1130.984873	80.843357
1133.090775	82.437063
1135.192368	82.441259
1137.295364	80.792308
1139.397859	81.546853
1141.494147	84.460839
1143.595643	81.327972
1145.692835	79.231469
1147.789530	73.602098
1149.885726	70.654545
1151.981425	64.588112
1154.076625	61.144056
1156.169429	61.523776
1158.263636	68.538462
1160.351651	71.268531
1162.444864	76.523077
1164.531889	79.587413
1166.622213	85.062238
1168.708250	86.197203
1170.797584	83.245455
1172.880737	79.244755
1174.965292	78.973427
1177.051249	76.786014
1179.132924	71.540559
1181.216001	71.380420
1183.296692	73.492308
1185.376891	71.161538
1187.456599	68.764336
1189.535816	68.078322
1191.612651	69.360839
1193.687105	72.419580
1195.764850	66.731469
1197.838326	64.788811
1199.913202	65.855944
1201.983811	69.025874
1204.055821	68.338462
1206.125456	68.362238
1208.196491	67.475524
1210.267038	63.527273
1212.333324	59.408392
1214.401011	57.448951
1216.466326	59.500699
1218.533041	58.088811
1220.595500	50.269231
1222.661244	51.318182
1224.722734	55.205594
1226.785625	59.388811
1228.846148	62.132168
1230.906187	68.169231
1232.965744	70.851748
1235.022935	71.881119
1237.079645	73.486713
1239.133991	71.866434
1241.191619	71.105594
1243.246884	66.752448
1245.297908	65.336364
1247.350332	65.101399
1249.402276	63.413287
1251.451862	62.406993
1253.500969	63.253147
1255.549598	67.931469
1257.597748	68.460839
1259.645419	73.924476
1261.688860	76.311189
1263.735577	69.993706
1265.779940	65.386014
1267.823827	64.073427
1269.865362	63.289510
1271.904548	62.451049
1273.947007	61.690210
1275.985243	66.573427
1278.024878	67.009091
1280.064038	69.824476
1282.098979	70.127972
1284.135319	72.807692
1286.169315	70.532867
1288.204708	61.969231
1290.235889	62.362937
1292.268467	62.809790
1294.300574	66.783217
1296.330340	69.416084
1298.361504	69.503497
1300.388460	76.365734
1302.416814	77.029371
1304.440963	78.144056
1306.468378	79.441958
1308.491590	78.489510
1310.516200	75.094406
1312.538476	72.144056
1314.562149	72.841958
1316.583489	70.251049
1318.604361	69.762937
1320.624766	68.531469
1322.640978	70.609091
1324.658587	70.925874
1326.673868	74.009790
1328.692408	73.577622
1330.706759	75.102098
1332.718784	74.276224
1334.734066	73.835664
1336.745163	73.654545
1338.757657	69.709790
1340.765968	63.523077
1342.777534	58.259441
1344.783062	53.821678
1346.791845	54.436364
1348.796450	49.036364
1350.804309	52.008392
1352.811706	51.700699
1354.813072	55.022378
1356.815834	58.401399
1358.818137	60.695804
1360.819980	59.770629
1362.821363	54.072727
1364.820433	51.625175
1366.819044	49.683217
1368.817197	47.308392
1370.814891	50.767133
1372.808423	52.901399
1374.803351	53.207692
1376.797821	54.438462
1378.791835	57.208392
1380.783542	59.330070
1382.774794	58.866434
1384.763740	59.951748
1386.754081	61.034965
1388.743967	64.906294
1390.731549	61.932168
1392.718678	63.084615
1394.703505	64.016783
1396.689727	64.541259
1398.673649	59.981119
1400.657118	58.769231
1402.640134	54.279720
1404.620853	50.924476
1406.602966	46.962937
1408.582783	49.327972
1410.562148	51.376224
1412.537375	52.974126
1414.515840	52.074126
1416.492012	54.251748
1418.467735	52.472028
1420.443008	54.160839
1422.415990	52.871329
1424.388524	52.653846
1426.360610	49.898601
1428.332249	47.845455
1430.299759	46.031469
1432.272343	51.557343
1434.237122	51.972727
1436.206972	51.990909
1438.172699	52.776923
1440.139818	50.818881
1442.104654	47.982517
1444.065370	54.310490
1446.031154	53.488811
1447.990983	53.967133
1449.952206	56.104895
1451.914821	56.316783
1453.873321	58.125175
1455.831378	62.620979
1457.788994	61.752448
1459.746167	63.163636
1461.701065	58.572727
1463.657356	53.623776
1465.611372	52.600699
1467.564947	57.229371
1469.516250	53.160839
1471.468946	54.375524
1473.419369	58.600699
1475.369354	58.854545
1477.318900	61.548951
1479.266177	60.953846
1481.211186	63.880420
1483.157588	65.504895
1485.103552	61.955944
1487.049079	61.101399
1488.992340	57.688811
1490.935166	55.615385
1492.875728	55.769930
1494.817681	60.046154
1496.757372	61.782517
1498.696629	60.920280
1500.635450	59.244755
1502.572012	60.635664
1504.509965	67.468531
1506.445659	74.339860
1508.380920	77.090909
1510.313925	75.627273
1512.246497	72.781119
1514.178637	71.837762
1516.110345	72.509091
1518.039799	70.486713
1519.970644	65.887413
1521.901057	62.655245
1523.827398	58.973427
1525.755130	59.909790
1527.680611	64.440559
1529.605663	64.962238
1531.530286	65.900699
1533.454480	65.385315
1535.376426	64.165734
1537.299763	63.192308
1539.220853	64.928671
1541.139700	64.083217
1543.059935	65.628671
1544.977928	65.149650
1546.895494	62.662238
1548.810818	62.124476
1550.727532	65.802797
1552.640191	63.004895
1554.556054	64.261538
1556.469677	64.668531
1558.381062	59.981818
1560.293837	63.880420
1562.202562	65.195804
1564.112676	64.290210
1566.022367	65.147552
1567.931635	64.271329
1569.838669	65.169231
1571.743470	69.043357
1573.649660	68.458741
1575.553618	71.060839
1577.457155	70.973427
1579.360272	70.308392
1581.261159	66.388811
1583.163435	70.514685
1585.063483	67.660839
1586.964918	68.355245
1588.862320	68.948951
1590.759303	68.588112
1592.655868	69.776923
1594.553821	71.758042
1596.445939	64.665035
1598.341250	69.050350
1600.236144	62.812587
1602.128816	58.846853
1604.021071	61.186713
1605.911107	59.680420
1607.800727	65.929371
1609.689932	66.089510
1611.578722	66.047552
1613.465294	67.467832
1615.353254	63.100000
1617.237197	65.831469
1619.122527	56.063636
1621.007444	59.067832
1622.890147	57.318881
1624.774237	59.002797
1626.654315	66.348951
1628.535781	67.339860
1630.415036	74.765035
1632.295677	68.174825
1634.170514	64.630769
1636.050332	66.072028
1637.926146	58.718182
1639.801549	55.893007
1641.678338	43.666434
1643.549331	48.290909
1645.423505	57.381818
1647.293680	58.421678
1649.167037	62.540559
1651.038190	60.224476
1652.907141	63.380420
1654.777477	65.767832
1656.643821	69.965035
1658.511550	79.119580
1660.377080	79.953147
1662.243996	78.888112
1664.106923	77.285315
1665.971235	78.094406
1667.833351	75.206294
1669.695062	62.895105
1671.558159	60.273427
1673.419060	54.879021
1675.277769	60.761538
1677.136074	60.462238
1678.995764	63.735664
1680.849686	63.677622
1682.706782	64.213287
1684.563475	61.705594
1686.416191	62.397203
1688.272079	58.020979
1690.123993	57.352448
1691.975506	52.652448
1693.826618	54.397203
1695.677330	56.957343
1697.527641	69.657343
1699.375767	68.604895
1701.225278	73.650350
1703.069040	70.090909
1704.917751	75.744056
1706.760716	78.068531
1708.606848	83.055944
1710.449017	80.186014
1712.294352	81.995105
1714.133946	71.848951
1715.974924	65.469930
1717.817285	66.549650
1719.655690	71.338462
1721.495478	68.135664
1723.333091	63.572727
1725.170308	55.753147
1727.005352	59.889510
1728.841779	58.609091
1730.676034	56.970629
1732.509894	59.200699
1734.343360	57.715385
1736.172881	57.800699
1738.005560	65.395804
1739.834295	75.190909
1741.666187	75.398601
1743.494137	72.813986
1745.321696	69.769231
1747.148862	68.187413
1748.975637	73.154545
1750.802020	69.250350
1752.624467	61.918881
1754.450069	63.415385
1756.271736	58.504196
1758.094785	63.754545
1759.915672	63.306993
1761.736171	57.323077
1763.558051	43.190210
1765.374231	38.158741
1767.193563	40.288811
1769.008968	43.230769
1770.827523	46.107692
1772.642153	46.936364
1774.456396	55.311189
1776.270253	69.193706
1778.083723	77.335664
1779.895040	80.509091
1781.707737	82.967832
1783.520049	83.330070
1785.328443	81.633566
1787.138217	82.837762
1788.944077	75.416783
1790.753082	78.012587
1792.558174	74.755944
1794.364647	75.045455
1796.170736	78.420979
1797.972914	78.828671
1799.778237	81.265734
1801.579651	75.637063
1803.382445	77.735664
1805.181333	74.051748
1806.981602	76.516084
1808.781489	73.657343
1810.579234	65.081119
1812.376599	68.889510
1814.173584	67.048951
1815.970188	64.934965
1817.764653	59.695105
1819.560497	60.204895
1821.350686	61.465734
1823.145772	56.566434
1824.935206	58.679021
1826.727776	62.507692
1828.518211	67.207692
1830.306512	67.086713
1832.097948	66.386014
1833.883738	68.607692
1835.670908	74.141958
1837.455946	71.998601
1839.244118	74.913287
1841.028404	73.600699
1842.810560	73.697902
1844.594096	70.598601
1846.375503	68.885315
1848.158289	65.601399
1849.937194	64.066434
1851.717479	65.751049
1853.495637	62.978322
1855.275174	64.343357
1857.052586	67.116783
1858.827874	68.915385
1860.604540	77.620979
1862.379084	76.265734
1864.155006	70.527972
1865.925307	72.106294
1867.698736	71.774825
1869.470045	67.498601
1871.240983	66.901399
1873.013299	63.874126
1874.780001	59.027972
1876.549829	55.023776
1878.315793	49.956643
1880.084880	53.441958
1881.850106	57.473427
1883.614964	54.900699
1885.381199	50.548252
1887.143575	57.016783
1888.905584	57.001399
1890.667225	58.212587
1892.428500	61.864336
1894.189407	60.697902
1895.949948	59.685315
1897.708379	57.321678
1899.466444	60.118881
1901.222402	58.527972
1902.979736	56.051049
1904.736705	54.783217
1906.491567	50.232867
1908.244325	47.213986
1909.996718	46.688112
1911.750488	47.907692
1913.502154	50.488112
1915.251718	49.498601
1917.002657	49.753147
1918.753234	54.756643
1920.499971	55.555245
1922.248085	53.000000
1923.994099	56.046853
1925.741488	53.548951
1927.486780	54.673427
1929.229974	53.678322
1930.974543	51.065035
1932.717017	45.293706
1934.459130	44.515385
1936.200883	42.913986
1937.942276	41.326573
1939.681576	47.471329
1941.420517	45.504895
1943.159099	48.632867
1944.895590	50.884615
1946.631723	48.061538
1948.369230	53.953147
1950.102915	52.359441
1951.837975	51.718182
1953.570946	47.588811
1955.303561	46.537063
1957.035820	44.564336
1958.767722	45.744056
1960.497538	51.674825
1962.225269	50.910490
1963.954375	57.045455
1965.683126	59.124476
1967.409793	62.519580
1969.136106	64.604895
1970.863792	68.639860
1972.585942	66.503497
1974.311193	66.834266
1976.032637	68.095105
1977.757182	68.022378
1979.479646	71.589510
1981.198308	73.488811
1982.920068	73.525175
1984.638026	72.796503
1986.357357	67.027972
1988.072889	70.330070
1989.793241	65.634266
1991.509795	60.855944
1993.222552	51.876923
1994.938405	52.147552
1996.652186	52.079720
1998.365617	52.027273
2000.076977	54.397902
2001.789709	56.610490
2003.498651	59.544056
2005.210685	60.693007
2006.917211	59.814685
2008.626828	67.466434
2010.334379	66.667133
2012.041581	63.127273
2013.746718	60.867133
2015.451509	59.717483
2017.157671	55.893007
2018.860051	60.344755
2020.563802	59.524476
2022.265491	60.107692
2023.966835	57.317483
2025.667833	57.753147
2027.366770	52.585315
2029.067079	55.297902
2030.763613	54.555944
2032.461518	52.282517
2034.157364	52.350350
2035.856296	48.418881
2037.549742	50.381119
2039.244559	58.390909
2040.939034	57.899301
2042.629740	57.965035
2044.323530	56.369930
2046.013553	59.586713
2047.704947	58.437762
2049.394288	58.996503
2051.084999	58.662937
2052.771947	56.602797
2054.458556	55.723077
2056.146534	52.045455
2057.830753	52.136364
2059.516343	52.560140
2061.201593	51.152448
2062.884794	48.171329
2064.569366	47.057343
2066.248475	48.802797
2067.932369	50.406294
2069.610802	52.372727
2071.292313	54.395804
2072.970072	59.106294
2074.647495	60.907692
2076.326287	59.323077
2078.003037	59.506294
2079.677745	60.913986
2081.353822	57.590909
2083.027859	57.674825
2084.701560	57.498601
2086.374926	58.890909
2088.046253	61.895105
2089.717246	65.089510
2091.387905	65.483916
2093.058230	67.727972
2094.728221	65.685315
2096.396176	61.090210
2098.063798	59.510490
2099.729385	55.795804
2101.396341	50.076923
2103.061264	48.419580
2104.725855	47.087413
2106.388414	51.059441
2108.052341	51.750350
2109.714237	52.463636
2111.375803	54.801399
2113.037037	56.181818
2114.696243	57.193706
2116.355118	55.280420
2118.013664	57.945455
2119.671880	56.076224
2121.326372	57.183916
2122.983929	53.273427
2124.641157	52.518881
2126.294663	51.386713
2127.949537	50.383916
2129.600692	51.516783
2131.254910	54.950350
2132.905411	52.716783
2134.557278	51.265734
2136.203737	50.767832
2137.854951	51.746853
2139.502451	52.678322
2141.151318	55.330070
2142.798166	49.093007
2144.444689	52.234965
2146.090886	49.820979
2147.733375	54.667133
2149.378922	57.730769
2151.020762	62.365734
2152.665659	61.572727
2154.306850	60.266434
2155.947719	60.344056
2157.588263	57.596503
2159.226795	58.865035
2160.866693	60.208392
2162.502891	53.868531
2164.140455	48.564336
2165.777697	44.360140
2167.412929	48.385315
2169.047840	51.156643
2170.682428	53.367832
2172.316696	54.280420
2173.947270	51.953846
2175.580896	51.850350
2177.210830	52.877622
2178.842129	55.627273
2180.471423	53.811888
2182.100398	47.727273
2183.729053	46.521678
2185.357389	53.313986
2186.983723	49.606993
2188.609738	51.376923
2190.233751	47.865035
2191.859130	47.532168
2193.482508	46.596503
2195.107251	49.111888
2196.728313	53.228671
2198.349058	56.469231
2199.971168	55.334965
2201.591280	56.979720
2203.209395	56.923077
2204.827195	57.866434
2206.444680	55.913287
2208.061849	58.546853
2209.678703	60.106993
2211.295241	66.560839
2212.909787	71.634266
2214.522340	75.032867
2216.136257	74.976224
2217.748183	71.939161
2219.361472	71.240559
2220.972771	67.441958
2222.582080	63.953147
2224.192753	69.698601
2225.801437	68.379720
2227.409808	62.782517
2229.016193	63.753147
2230.623941	60.578322
2232.229702	56.312587
2233.835152	53.902098
2235.438617	45.766434
2237.043445	42.601399
2238.646289	49.600000
2240.247150	50.855944
2241.849374	55.471329
2243.449616	62.998601
2245.051220	65.774126
2246.649171	66.542657
2248.248485	65.486713
2249.845819	63.290909
2251.442845	58.817483
2253.041233	56.330070
2254.635972	50.241958
2256.228734	49.711888
2257.822859	50.048252
2259.418345	43.267832
2261.010186	42.911888
2262.601721	47.208392
2264.194618	51.097203
2265.782205	47.125874
2267.374488	48.102797
2268.961465	48.830070
2270.551469	49.227972
2272.136169	54.698601
2273.725563	58.511189
2275.309655	58.504895
2276.895107	54.874825
2278.478591	50.850350
2280.065100	55.258741
2281.647976	55.951049
2283.230549	54.333566
2284.812818	52.077622
2286.391457	54.795804
2287.973121	51.911888
2289.551156	55.272028
2291.132214	53.301399
2292.709645	53.037762
2294.285113	55.925175
2295.863603	57.488811
2297.438469	62.214685
2299.013034	67.297203
2300.587299	69.406993
2302.161263	72.952448
2303.734926	69.576224
2305.308290	68.446853
2306.878035	62.967832
2308.447481	64.027273
2310.019945	58.072727
2311.587135	58.540559
2313.157343	61.846853
2314.723936	65.663636
2316.291889	64.841259
2317.857886	64.563636
2319.423586	63.255245
2320.988988	57.713986
2322.552437	53.253846
2324.117245	54.859441
2325.678445	53.679021
2327.242659	60.060839
2328.801611	56.593007
2330.363578	59.413287
2331.923593	61.603497
2333.483314	66.424476
2335.041085	63.744755
2336.598561	65.387413
2338.155743	67.139161
2339.710977	68.008392
2341.265918	72.511888
2342.820564	73.685315
2344.374917	65.811888
2345.928977	63.795804
2347.482742	55.337063
2349.034564	55.497902
2350.584442	54.724476
2352.137328	54.495105
2353.684972	57.454545
2355.235623	62.105594
2356.782683	73.560140
2358.331101	80.132168
2359.879228	80.709091
2361.423766	76.572727
2362.969662	69.211888
2364.513620	64.213287
2366.058935	59.406993
2367.600665	55.875524
2369.143752	51.812587
2370.684903	51.376224
2372.225765	56.503497
2373.766338	56.183217
2375.306622	63.885315
2376.846617	66.204196
2378.383034	69.676224
2379.922452	70.382517
2381.458293	68.955245
2382.995490	61.977622
2384.529112	63.885315
2386.065734	60.392308
2387.600426	65.630769
2389.133188	69.372028
2390.665663	71.306993
2392.196210	64.839161
2393.729755	69.087413
2395.258089	76.656643
2396.787780	77.380420
2398.317184	74.351049
2399.846304	72.680420
2401.375139	71.060140
2402.898768	74.042657
2404.427033	74.126573
2405.950096	78.744056
2407.477792	80.234266
2408.998649	86.206993
2410.524139	77.996503
2412.046068	77.174126
2413.569353	76.829371
2415.090716	69.450350
2416.610160	70.565035
2418.130959	65.564336
2419.649840	60.095105
2421.168438	61.998601
2422.685119	62.213287
2424.203154	66.914685
2425.720908	67.105594
2427.235111	70.368531
2428.749033	62.533566
2430.262675	57.930070
2431.777672	55.921678
2433.289120	63.174825
2434.801923	65.084615
2436.312812	59.146154
2437.823423	61.424476
2439.332122	71.148252
2440.843807	68.870629
2442.351949	69.913986
2443.859813	62.104895
2445.367399	58.966434
2446.871444	48.852448
2448.378474	40.900000
2449.883597	41.271329
2451.388441	52.610490
2452.891379	45.362937
2454.394041	47.100699
2455.896426	56.890210
2457.396906	67.942657
2458.898739	71.640559
2460.398667	81.241958
2461.898320	86.657343
2463.397698	81.534965
2464.895173	78.650350
2466.390746	71.109790
2467.889299	62.855944
2469.384324	56.891608
2470.880701	41.868531
2472.373552	41.197902
2473.867756	44.400699
2475.361686	46.753846
2476.852092	52.339161
2478.345476	50.839860
2479.836962	52.874825
2481.326551	57.227273
2482.815868	58.388112
2484.303289	55.910490
2485.793686	50.600699
2487.280565	48.130070
2488.768795	48.104196
2490.253508	39.694406
2491.737952	38.234266
2493.223746	33.936364
2494.707649	32.546154
2496.192902	22.230070
2497.673022	27.700000
2499.156115	38.465035
2500.637317	46.400000
2502.118250	55.134965
2503.597294	51.632168
2505.076069	52.567133
2506.554576	49.414685
2508.032815	40.005594
2509.510785	40.740559
2510.985250	46.125874
2512.462685	47.984615
2513.936616	49.518881
2515.411897	63.568531
2516.886911	68.106993
2518.358425	67.844056
2519.831288	60.486014
2521.302269	52.590210
2522.774600	46.811189
2524.241817	37.601399
2525.712001	35.616783
2527.180304	37.388112
2528.648342	49.523077
2530.116115	48.506993
2531.583623	54.829371
2533.050866	61.717483
2534.514617	54.450350
2535.979718	48.910490
2537.442942	46.076224
2538.907516	48.839860
2540.368600	43.795804
2541.831034	45.901399
2543.293205	47.677622
2544.751890	56.971329
2546.215147	62.073427
2547.673307	58.721678
2549.132816	62.665035
2550.587231	64.510490
2552.046217	65.636364
2553.503331	67.020979
2554.958574	73.048252
2556.413555	73.833566
2557.866668	73.194406
2559.321129	73.924476
2560.773720	69.646154
2562.226052	65.769231
2563.676517	55.561538
2565.129937	47.630070
2566.578275	44.455245
2568.029569	45.609091
2569.478996	54.354545
2570.924951	59.137063
2572.373861	67.565035
2573.819301	69.327972
2575.266088	74.166434
2576.711013	75.805594
2578.155679	73.114685
2579.601693	69.201399
2581.044241	63.513287
2582.488136	56.897902
2583.928566	56.861538
2585.370343	55.795804
2586.810261	56.111189
2588.251526	51.294406
2589.689329	53.495105
2591.130082	53.679720
2592.565773	55.184615
2594.004413	58.754545
2595.441195	55.716783
2596.876122	54.604196
2598.313996	49.743357
2599.746813	48.066434
2601.180977	52.102098
2602.613287	44.704895
2604.046943	40.990909
2605.478746	40.839860
2606.910295	43.107692
2608.341592	46.923776
2609.771036	50.858042
2611.200228	52.975524
2612.627570	52.587413
2614.056257	53.934965
2615.484693	54.039161
2616.909681	60.199301
2618.336016	64.772727
2619.760502	64.937063
2621.186334	66.281119
2622.608722	71.805594
2624.032456	68.473427
2625.454343	67.297902
2626.875981	56.642657
2628.295773	51.509790
2629.716911	48.465734
2631.137799	43.025874
2632.555249	41.247552
2633.975638	41.339860
2635.392590	44.802797
2636.809293	43.748252
2638.225748	44.225175
2639.641955	48.541958
2641.057914	44.090909
2642.472032	48.892308
2643.885902	48.901399
2645.297934	52.825874
2646.711309	46.762937
2648.121255	45.909091
2649.534137	47.081119
2650.943590	41.217483
2652.352797	39.706993
2653.760168	31.173427
2655.170473	30.171329
2656.578943	30.048252
2657.985577	38.400699
2659.391966	49.051049
2660.796521	53.218182
2662.202420	55.697203
2663.606486	52.655245
2665.010307	56.934965
2666.413884	53.183916
2667.815630	47.382517
2669.218719	46.074126
2670.618390	42.643357
2672.019405	42.179021
2673.417004	41.818881
2674.817533	43.808392
2676.214646	47.004196
2677.613103	50.246853
2679.009733	52.497902
2680.406120	55.066434
2681.802265	57.551748
2683.196585	58.477622
2684.592246	57.512587
2685.984499	55.000000
2687.378094	45.165734
2688.769865	41.716783
2690.162979	40.065035
2691.554269	35.260839
2692.943736	38.195105
2694.332963	38.271329
2695.721951	45.401399
2697.112280	50.572028
2698.497626	54.858042
2699.885895	54.141958
2701.272344	53.398601
2702.658554	48.390909
2704.044525	46.186014
2705.427098	48.043357
2706.811013	50.028671
2708.194690	50.970629
2709.578128	53.628671
2710.958172	59.390909
2712.339556	64.550350
2713.719126	66.862238
2715.100036	69.119580
2716.479132	70.112587
2717.856414	70.434266
2719.235037	67.386014
2720.611847	66.152448
2721.988420	55.373427
2723.364758	51.301399
2724.739285	46.176923
2726.115152	43.826573
2727.487632	37.659441
2728.863028	33.780420
2730.233464	42.467832
2731.605241	48.951748
2732.976783	55.994406
2734.346517	53.306294
2735.717592	51.391608
2737.086858	44.835664
2738.455891	41.990210
2739.823118	39.930070
2741.190112	39.662937
2742.556872	39.100699
2743.923401	30.517483
2745.288124	32.846853
2746.652615	38.053147
2748.016875	42.957343
2749.380902	44.760140
2750.744698	47.186014
2752.105120	46.902797
2753.468452	49.447552
2754.826842	58.049650
2756.188142	59.820280
2757.546072	66.027972
2758.906910	67.344056
2760.265949	63.872028
2761.621619	63.362937
2762.980197	56.683916
2764.335408	46.462937
2765.690390	41.673427
2767.043576	41.197203
2768.399668	34.808392
2769.752395	38.313986
2771.104895	43.211888
2772.457166	45.697203
2773.810776	49.013986
2775.161024	53.753846
2776.509478	53.054545
2777.860838	53.882517
2779.208838	47.496503
2780.558176	43.498601
2781.905722	40.195804
2783.253042	36.314685
2784.600135	33.014685
2785.945437	32.884615
2787.290512	33.162238
2788.635362	33.951049
2789.979986	35.478322
2791.321258	29.106294
2792.663868	27.106294
2794.006252	35.524476
2795.348411	39.969231
2796.687221	43.067832
2798.028931	33.683916
2799.367293	37.809091
2800.706991	44.497203
2802.044905	48.939860
2803.381034	58.445455
2804.716939	64.942657
2806.054182	72.606294
2807.389641	68.516783
2808.724877	73.855944
2810.058330	77.104895
2811.393120	74.711888
2812.724570	63.069231
2814.058915	55.881119
2815.388362	56.019580
2816.719146	51.745455
2818.049708	48.104895
2819.378491	45.167133
2820.708610	46.403497
2822.036951	47.668531
2823.365071	45.070629
2824.691413	47.503497
2826.019092	44.467133
2827.343437	44.430769
2828.669119	42.027972
2829.993025	41.942657
2831.316712	39.655245
2832.641734	37.427972
2833.963426	38.441958
2835.284900	37.154545
2836.606155	38.077622
2837.927191	35.320280
2839.246454	36.400000
2840.567053	42.596503
2841.885881	41.251748
2843.204490	41.179021
2844.521328	35.048252
2845.837949	35.237063
2847.154353	35.445455
2848.468987	36.651049
2849.784957	33.429371
2851.097606	29.440559
2852.411590	25.469231
2853.725358	31.873427
2855.038909	41.627273
2856.350694	50.895804
2857.660712	51.094406
2858.972065	53.402797
2860.280103	52.408392
2861.589475	56.205594
2862.898633	54.013287
2864.207575	49.400000
2865.514753	40.423776
2866.820169	33.716084
2868.126919	36.303497
2869.431906	38.502098
2870.736680	40.056643
2872.039692	40.960839
2873.345585	38.313986
2874.646624	40.739161
2875.948997	44.195804
2877.249610	46.979021
2878.551557	50.120280
2879.853290	45.939161
2881.151720	44.504196
2882.451483	42.976923
2883.749489	46.920280
2885.047283	38.079720
2886.343321	35.487413
2887.640692	33.909790
2888.936307	34.591608
2890.231711	38.070629
2891.526904	43.523077
2892.818800	44.496503
2894.113572	41.086014
2895.405047	36.814685
2896.697855	41.693007
2897.990453	49.429371
2899.279757	52.500699
2900.570393	50.339860
2901.859278	47.205594
2903.149495	47.955245
2904.436421	53.241259
2905.724679	52.386713
2907.011188	52.825175
2908.297489	44.009091
2909.583581	35.594406
2910.867925	30.304196
2912.155140	32.114685
2913.437529	34.677622
2914.721250	33.164336
2916.003225	29.698601
2917.284992	20.585315
2918.565015	22.591608
2919.847907	31.995804
2921.129054	40.226573
2922.406919	47.771329
2923.687653	50.158741
2924.965106	54.156643
2926.242353	54.579720
2927.517858	53.120280
2928.796231	58.558741
2930.069790	54.446853
2931.346216	47.339860
2932.620901	39.022378
2933.893845	37.446853
2935.168121	38.459441
2936.440657	33.482517
2937.712988	32.988811
2938.982047	34.483217
2940.253971	38.683916
2941.524157	40.178322
2942.794139	36.484615
2944.063918	39.993706
2945.331961	35.834266
2946.598267	35.571329
2947.864372	33.246154
2949.131806	32.111189
2950.397506	33.587413
2951.663003	30.516783
2952.928298	34.652448
2954.190328	41.109091
2955.453688	48.447552
2956.716847	52.788112
2957.978274	52.939161
2959.241030	53.802797
2960.502054	53.816783
2961.761348	50.320280
2963.020442	45.106294
2964.279335	43.820979
2965.538028	47.272727
2966.796521	44.137063
2968.053285	44.262238
2969.309849	44.553147
2970.564686	45.915385
2971.820851	46.451049
2973.073762	47.266434
2974.328002	48.373427
2975.582043	44.636364
2976.834358	33.699301
2978.086474	27.881119
2979.336866	31.523776
2980.590113	34.755944
2981.838583	38.672727
2983.089908	37.275524
2984.337983	33.662937
2985.585862	34.432168
2986.833543	37.746853
2988.081027	41.302098
2989.326790	47.290210
2990.572357	43.974126
2991.819251	40.251748
2993.062901	44.090210
2994.307879	49.483916
2995.549613	49.832168
2996.794199	46.430070
2998.037066	38.351049
2999.276692	35.542657
3000.519168	37.874825
3001.758404	39.049650
3002.998968	40.882517
3004.237816	47.905594
3005.476468	49.746154
3006.713406	47.048252
3007.951670	47.426573
3009.188219	43.552448
3010.424575	40.643357
3011.660737	33.683217
3012.895185	34.020280
3014.129441	31.690909
3015.363503	30.884615
3016.595853	30.790909
3017.826491	31.779021
3019.059975	35.041958
3020.291747	36.971329
3021.521809	31.823077
3022.751679	34.732168
3023.979839	31.183217
3025.209325	30.241259
3026.437102	27.176224
3027.664688	28.894406
3028.893601	22.844056
3030.117771	22.674825
3031.344784	17.794406
3032.568573	20.162937
3033.793689	24.761538
3035.017098	31.867133
3036.240317	32.272028
3037.461831	41.579021
3038.686186	43.498601
3039.905806	42.770629
3041.126752	43.551049
3042.347509	44.725175
3043.566562	41.970629
3044.786940	38.210490
3046.004102	31.091608
3047.222590	34.298601
3048.439375	34.134965
3049.655973	33.033566
3050.872382	31.953147
3052.085579	36.734965
3053.301613	33.806294
3054.514435	30.044755
3055.730094	31.772028
3056.941030	33.258741
3058.153291	36.168531
3059.365366	34.887413
3060.577253	37.001399
3061.787444	38.306993
3062.997448	38.706294
3064.207266	35.739860
3065.415388	35.797902
3066.623325	34.897902
3067.829566	29.169231
3069.037132	25.856643
3070.243003	31.977622
3071.448690	38.324476
3072.654191	44.973427
3073.857999	51.523077
3075.063131	60.507692
3076.266570	58.416783
3077.468318	57.937063
3078.669881	50.525175
3079.871261	48.571329
3081.072457	45.890909
3082.271963	34.964336
3083.471286	31.937063
3084.671932	36.613287
3085.870888	38.924476
3087.066650	41.328671
3088.265241	43.855245
3089.460638	43.350350
3090.657358	41.865035
3091.850886	37.657343
3093.047242	32.592308
3094.241912	34.226573
3095.433391	33.704196
3096.629201	32.416783
3097.820318	37.634266
3099.012757	41.293007
3100.202009	41.651049
3101.394086	42.100699
3102.584480	37.947552
3103.771688	32.834965
3104.960219	33.274126
3106.150071	26.748951
3107.336740	27.754545
3108.523228	27.258741
3109.709538	29.025175
3110.897169	29.024476
3112.081618	26.220979
3113.264388	20.676923
3114.449980	16.417483
3115.633893	17.238462
3116.816127	13.658741
3117.998182	14.337762
3119.180059	18.873427
3120.361758	23.631469
3121.541780	28.093706
3122.720125	27.888811
3123.901290	30.482517
3125.079280	31.335664
3126.257094	27.248951
3127.434730	21.498601
3128.610691	20.080420
3129.786475	22.933566
3130.963581	25.312587
3132.139012	29.257343
3133.312770	33.460140
3134.484855	38.871329
3135.658262	41.441958
3136.831492	47.236364
3138.003051	48.006294
3139.175930	52.752448
3140.345642	50.334965
3141.516675	46.781119
3142.686038	44.628671
3143.853730	39.689510
3145.024238	34.839860
3146.190088	28.315385
3147.360246	28.197203
3148.525748	32.167832
3149.691075	31.067133
3150.856229	33.123077
3152.021210	22.893706
3153.187510	25.017483
3154.349158	23.008392
3155.512125	18.659441
3156.674920	17.146154
3157.837542	16.327972
3158.998499	14.044755
3160.159283	18.362937
3161.319895	23.232867
3162.478843	28.102098
3163.637620	29.632168
3164.796225	29.983217
3165.954657	30.226573
3167.112919	27.102098
3168.269518	26.488112
3169.424456	24.294406
3170.580713	21.862238
3171.735309	21.179021
3172.889735	16.581119
3174.042501	16.217483
3175.195096	12.655944
3176.347522	13.646154
3177.499778	11.386713
3178.651863	10.053846
3179.800803	18.410490
3180.952549	20.562937
3182.102637	28.059441
3183.251069	29.716783
3184.399331	28.434965
3185.547425	27.615385
3186.695350	27.002098
3187.841619	27.032168
3188.987720	26.482517
3190.132167	24.982517
3191.276446	25.379720
3192.420557	32.268531
3193.565985	39.922378
3194.708275	44.460839
3195.850398	50.688112
3196.992353	53.488112
3198.134141	51.858042
3199.275762	50.695105
3200.414248	47.725175
3201.554051	47.694406
3202.695172	40.300000
3203.833158	36.372727
3204.969495	40.651748
3206.105666	39.177622
3207.243154	37.002098
3208.378994	37.386014
3209.516151	42.895105
3210.648695	43.597902
3211.785521	43.680420
3212.917735	43.008392
3214.051266	42.579720
3215.184633	41.949650
3216.314872	36.657343
3217.447909	40.318881
3218.577820	45.569930
3219.709047	40.158042
3220.837150	41.093007
3221.968049	38.778322
3223.097304	35.962937
3224.224916	35.513287
3225.349405	37.032168
3226.478170	34.513287
3227.603813	34.323077
3228.729294	31.271329
3229.853133	30.030769
3230.979766	30.967133
3232.101802	30.623077
3233.225154	29.758042
3234.348344	30.231469
3235.471372	32.633566
3236.592760	27.090909
3237.713986	33.194406
3238.833575	35.214685
3239.953002	33.357343
3241.070791	32.368531
3242.191372	29.866434
3243.308840	30.699301
3244.426147	28.622378
3245.543294	26.675524
3246.658805	25.595804
3247.775630	26.338462
3248.889346	26.578322
3250.005851	21.464336
3251.120722	28.404895
3252.232484	29.652448
3253.344086	30.773427
3254.457004	33.021678
3255.569762	33.651049
3256.679414	39.314685
3257.790381	35.274126
3258.901189	32.746154
3260.010365	32.755944
3261.117911	32.189510
3262.226770	25.320979
3263.335472	24.174825
3264.441071	23.693007
3265.547984	25.020979
3266.653268	20.457343
3267.759866	24.893706
3268.863364	27.427273
3269.968177	31.148252
3271.072832	34.539860
3272.174388	36.858042
3273.275788	39.418881
3274.378502	36.792308
3275.481060	35.666434
3276.580521	33.309790
3277.682766	27.334266
3278.781915	27.575524
3279.879440	22.727273
3280.976809	23.648252
3282.076960	23.432867
3283.174019	23.912587
3284.270922	27.072028
3285.367670	22.780420
3286.459860	24.400000
3287.556298	25.195804
3288.651114	27.854545
3289.745776	28.104895
3290.838816	28.998601
3291.931701	32.124476
3293.022967	33.771329
3294.115544	31.348951
3295.206502	37.223776
3296.295840	39.463636
3297.385025	39.270629
3298.475523	41.806993
3299.562936	39.937063
3300.650196	36.290210
3301.738769	30.932168
3302.827190	30.171329
3303.911063	24.048252
3304.999178	22.295105
3306.084211	20.946853
3307.167629	19.081119
3308.252359	20.633566
3309.335473	21.465734
3310.419900	19.846853
3311.501248	20.548252
3312.583908	18.148252
3313.664954	18.413287
3314.745849	21.546853
3315.825130	22.927972
3316.904261	23.232867
3317.984704	24.879720
3319.062072	22.944056
3320.140752	23.441259
3321.217820	22.769231
3322.294739	21.621678
3323.370046	14.181119
3324.445204	18.748951
3325.521673	21.688811
3326.595072	23.976224
3327.668322	26.489510
3328.742882	25.318881
3329.815834	32.625874
3330.887177	34.967832
3331.959831	36.027972
3333.029419	37.491608
3334.100317	41.385315
3335.169608	35.017483
3336.240210	31.111888
3337.309205	39.527972
3338.376594	29.793007
3339.442378	24.579021
3340.512388	20.285315
3341.579335	21.609091
3342.643220	25.176923
3343.709873	31.957343
3344.774921	27.253147
3345.838366	28.106294
3346.901665	32.869930
3347.964817	32.220979
3349.027823	36.372028
3350.090683	40.426573
3351.151941	34.684615
3352.210142	31.941259
3353.272563	28.656643
3354.331929	30.962937
3355.391149	32.753846
3356.451679	37.273427
3357.507699	32.168531
3358.566483	32.525874
3359.620760	33.518182
3360.677801	35.460839
3361.733243	38.013287
3362.789995	32.515385
3363.845148	28.463636
3364.898704	27.488112
3365.950664	25.716783
3367.005385	29.461538
3368.057057	30.504196
3369.108586	32.769231
3370.161423	31.354545
3371.211213	29.458042
3372.262312	30.644755
3373.310365	35.518182
3374.361177	35.498601
3375.408945	30.466434
3376.456570	31.272028
3377.504052	34.825874
3378.549942	32.622378
3379.597140	30.364336
3380.641296	28.058741
3381.688210	24.371329
3382.733532	18.970629
3383.775813	17.828671
3384.817954	17.702797
3385.861402	24.263636
3386.904709	27.303497
3387.946427	35.106294
3388.988003	35.871329
3390.029438	39.131469
3391.069285	41.158741
3392.107543	39.969231
3393.147109	38.088811
3394.186535	36.855245
3395.224373	35.548252
3396.260624	28.796503
3397.296736	24.005594
3398.334155	22.674126
3399.368541	21.404196
3400.404234	23.839860
3401.439788	24.442657
3402.472311	23.599301
3403.507587	21.698601
3404.539832	22.302098
3405.571939	22.800699
3406.602462	25.072727
3407.634292	21.948252
3408.665984	15.601399
3409.694648	14.383916
3410.723175	9.220979
3411.753008	14.160140
3412.782704	20.916783
3413.809374	26.279021
3414.837351	28.414685
3415.862303	30.435664
3416.890005	34.733566
3417.914684	30.223776
3418.940669	30.449650
3419.965074	28.424476
3420.989343	29.410490
3422.012033	30.497203
3423.034587	29.779021
3424.058447	36.322378
3425.079287	37.411189
3426.099991	39.791908
3427.122002	40.680869
3428.140994	39.463736
3429.159850	35.526174
3430.180013	28.253846
3431.197159	17.032418
