-118.059454	13.218132
-115.389854	6.212088
-112.723189	1.513686
-110.057276	-1.220080
-107.394295	-2.332218
-104.729885	-2.165734
-102.068405	-1.063636
-99.405496	-1.672028
-96.747693	1.841958
-94.088461	5.981818
-91.429977	4.878322
-88.774417	8.242657
-86.117429	7.615385
-83.465539	7.450350
-80.812218	6.289510
-78.161818	4.865734
-75.509988	5.120979
-72.863249	5.872727
-70.215081	7.831469
-67.567655	8.460839
-64.923143	12.558741
-62.277203	13.322378
-59.636344	12.140559
-56.994056	15.308392
-54.354677	13.387413
-51.713868	13.936364
-49.073800	12.684615
-46.438804	12.488112
-43.802380	12.732168
-41.168858	16.543357
-38.533908	20.534266
-35.904023	22.755944
-33.270546	27.596503
-30.642131	29.957343
-28.014450	32.731469
-25.385340	22.986014
-22.761287	-61.930769
-20.133645	-394.323077
-17.511056	-1162.332168
-14.889199	-1948.730070
-12.268072	435.764336
-9.647675	5617.636364
-7.030167	10003.445455
-4.411230	13125.085315
-1.795178	14963.823776
0.820145	15504.903497
3.434741	14756.997902
6.046454	12729.144056
8.659596	9471.862937
11.267704	5192.843357
13.879394	642.040559
16.486053	-2459.681119
19.094140	-1877.415385
21.701503	-179.542657
24.303841	25.334266
26.909757	30.160140
29.510651	30.230070
32.112973	24.143357
34.710278	20.896503
37.311158	15.563636
39.907023	10.809091
42.504317	6.852448
45.100891	3.968531
47.692456	4.034266
50.285449	3.035664
52.875581	2.534965
55.467141	0.742657
58.055841	3.841259
60.645968	6.378322
63.231096	8.889510
65.817652	12.405594
68.403494	12.230070
70.986482	13.000000
73.570896	16.200000
76.148182	14.090909
78.729034	12.998601
81.307037	10.788811
83.884330	8.955944
86.463049	7.491608
89.036786	10.416084
91.611951	7.688811
94.184272	7.978322
96.755885	7.914685
99.324658	8.574126
101.894858	11.115385
104.462220	14.569231
107.031007	16.890909
109.596958	21.237762
112.160074	24.978322
114.726746	28.602797
117.284197	32.690909
119.847333	39.339860
122.405509	46.357343
124.967240	67.692308
127.524014	98.324476
130.082215	152.437762
132.635462	226.915385
135.188012	322.324476
137.744112	433.793007
140.295264	544.284615
142.845719	651.223077
145.395476	742.555944
147.942414	815.088112
150.488657	864.107692
153.036325	889.115385
155.583297	895.069930
158.125334	884.654545
160.666677	878.765035
163.207327	866.985315
165.749403	858.578322
168.288667	856.951748
170.825123	850.306294
173.360887	846.927273
175.898077	844.722378
178.434576	846.090210
180.968269	842.443357
183.499158	835.027972
186.029360	826.733566
188.560986	820.978322
191.089811	823.537063
193.615837	820.254545
196.141177	820.212587
198.667942	819.185315
201.191911	819.011888
203.715195	818.136364
206.237794	820.690210
208.757600	827.288112
211.276723	831.500699
213.795163	836.248951
216.315027	849.396503
218.827890	869.379720
221.344284	893.326573
223.859996	911.452448
226.370818	932.934965
228.883065	948.835664
231.392530	965.699301
233.901316	978.288811
236.409423	987.461538
238.918955	989.140559
241.423606	990.111888
243.927581	991.550350
246.432980	998.432168
248.933504	1005.981119
251.437552	1015.753147
253.934628	1019.313986
256.435228	1026.322378
258.933056	1034.841259
261.430211	1041.511888
263.926693	1051.122378
266.418312	1057.700000
268.913451	1059.852448
271.405823	1069.600699
273.897525	1084.484615
276.386464	1097.028671
278.876827	1108.983217
281.364427	1120.612587
283.849268	1127.695105
286.337624	1141.954545
288.819040	1165.482517
291.303970	1191.136364
293.784055	1228.746154
296.267652	1266.272028
298.746406	1298.431469
301.226584	1319.653846
303.704009	1326.175524
306.180771	1324.288112
308.656870	1316.755944
311.130220	1311.616783
313.602908	1305.749650
316.074935	1299.688811
318.546301	1288.944056
321.014922	1279.004196
323.482885	1271.283217
325.952269	1257.930070
328.416831	1229.970629
330.884897	1195.976224
333.348143	1158.502797
335.810731	1133.719580
338.272663	1110.834266
340.733938	1104.397902
343.192479	1097.581818
345.652442	1090.660839
348.109672	1079.236364
350.566248	1073.736364
353.022170	1068.763636
355.475362	1061.595804
357.929977	1050.030769
360.379790	1043.407692
362.833099	1034.493706
365.281610	1026.557343
367.729469	1015.671329
370.178751	1011.588811
372.623239	1005.759441
375.069149	999.738462
377.514409	989.398601
379.956951	983.573427
382.398845	977.117483
384.840092	971.712587
387.278623	965.982517
389.718576	961.746154
392.155815	960.095804
394.590342	955.537063
397.028357	956.190909
399.461595	960.055944
401.896254	963.168531
404.326141	966.726573
406.759513	966.041259
409.188115	966.078322
411.616075	963.627273
414.045457	962.155944
416.470073	956.283916
418.896111	956.130769
421.321508	956.554545
423.746265	956.128671
426.166264	965.032867
428.587684	970.651748
431.006407	974.205594
433.426551	978.176224
435.844000	968.233566
438.262869	957.283217
440.679045	941.923776
443.090473	924.744755
445.505379	909.686713
447.917594	896.126573
450.329175	878.225175
452.740122	868.670629
455.148383	862.548951
457.556011	855.055944
459.963007	848.034266
462.369372	848.569930
464.773054	842.720280
467.176106	848.867133
469.578528	855.015385
471.980320	865.251748
474.379435	888.027972
476.779969	910.713287
479.179874	932.276923
481.575056	963.967133
483.973705	995.243357
486.367634	1026.720979
488.760937	1059.809790
491.153614	1097.011888
493.545666	1124.245455
495.939136	1148.147552
498.327894	1123.855245
500.713986	972.875524
503.101498	630.713986
505.488387	816.188112
507.872612	3161.467133
510.258255	8206.034965
512.641237	14413.348252
515.021558	19915.639161
517.403298	23848.397203
519.782379	25884.411888
522.162879	25889.511189
524.540721	23877.248951
526.915908	19972.471329
529.290477	14546.444755
531.666464	8485.295105
534.039799	3515.137762
536.414551	1186.127273
538.784618	1063.090210
541.154069	1460.122378
543.524938	1539.140559
545.891127	1466.931469
548.258734	1373.220280
550.623695	1273.283916
552.988043	1191.820280
555.351778	1118.490909
557.716931	1059.988811
560.077412	1014.714685
562.439311	973.251049
564.798569	931.445455
567.155190	894.616783
569.515255	865.050350
571.868629	834.237063
574.225448	807.923776
576.579632	787.813986
578.933208	769.609091
581.286175	759.355944
583.636510	744.019580
585.988263	735.252448
588.333339	726.229371
590.683879	721.084615
593.027745	714.938462
595.377073	714.077622
597.721752	713.127972
600.063807	713.514685
602.407279	714.024476
604.748128	718.947552
607.088375	728.283217
609.426001	736.048951
611.767062	736.221678
614.103485	740.021678
616.441325	739.588112
618.776548	737.559441
621.109155	727.512587
623.443178	716.763636
625.774587	702.284615
628.105398	683.618182
630.435612	668.800000
632.765227	656.853147
635.090220	647.983217
637.420653	636.865734
639.746466	630.217483
642.069671	630.474825
644.394293	629.104196
646.716309	628.449650
649.037731	627.476923
651.356551	626.195804
653.676786	624.546853
655.996428	622.237762
658.313469	627.639860
660.629918	633.817483
662.943769	635.461538
665.259036	637.865734
667.571706	637.660839
669.885791	641.830070
672.195276	642.146853
674.506177	637.995105
676.814485	633.788112
679.122205	623.810490
681.431339	612.387413
683.735881	600.997902
686.039837	591.713287
688.343207	583.264336
690.647991	572.445455
692.948189	564.623077
695.249801	553.230070
697.550829	549.376224
699.847274	541.858042
702.145135	539.383916
704.442412	537.392308
706.739106	530.481119
709.031224	524.248252
711.326753	520.543357
713.617708	516.265734
715.910078	516.558741
718.199873	515.478322
720.489087	511.621678
722.777722	512.661538
725.063784	516.113287
727.351261	515.032168
729.636166	518.143357
731.920494	517.576923
734.202253	513.818182
736.485426	513.782517
738.768022	516.009790
741.046062	515.848951
743.325517	513.995105
745.604395	513.845455
747.882699	513.058042
750.156453	517.641958
752.431620	522.565035
754.706214	521.063636
756.978249	523.357343
759.251697	522.910490
761.522587	528.702098
763.790921	531.811189
766.060668	537.732867
768.327861	540.695804
770.594483	544.389510
772.860535	547.764336
775.124036	549.751049
777.388950	555.312587
779.653294	557.383916
781.913109	559.020280
784.174336	560.465734
786.434996	557.174825
788.693110	563.688811
790.948679	564.643357
793.207639	573.892308
795.460100	577.244056
797.717927	580.522378
799.971236	580.877622
802.222005	586.063636
804.474186	581.335664
806.723828	579.950350
808.974883	582.279720
811.221426	578.656643
813.469381	573.839860
815.714802	575.334266
817.961634	578.041259
820.207905	582.392308
822.449671	581.255245
824.694821	585.526573
826.933498	589.128671
829.175557	593.282517
831.413118	584.729371
833.652091	592.018881
835.888537	587.273427
838.126394	587.581818
840.361726	585.938462
842.594535	587.292308
844.828755	590.076923
847.060452	589.315385
849.291595	582.216084
851.522183	589.593007
853.752217	576.995105
855.981697	569.769231
858.206695	555.181119
860.435068	546.680420
862.658961	533.111888
864.884266	534.097902
867.105095	534.450350
869.329296	541.387413
871.549024	554.981119
873.770162	563.751049
875.990750	574.560140
878.208829	587.958741
880.428317	587.213986
882.643339	595.824476
884.857814	602.404895
887.071740	596.204895
889.285120	590.775524
891.497952	591.630070
893.710238	585.744056
895.920021	579.879021
898.129259	581.765734
900.337952	577.460140
902.544146	574.153846
904.751749	572.251049
906.956854	575.641259
909.161416	576.420979
911.363483	585.286713
913.566959	588.066434
915.767941	597.312587
917.968381	616.159441
920.170230	629.375524
922.365688	671.081119
924.564505	732.874825
926.758883	799.577622
928.956619	885.909091
931.149919	992.332867
933.344628	1107.952448
935.536851	1224.056643
937.728535	1332.907692
939.919682	1422.613986
942.108346	1489.662238
944.296474	1530.811189
946.482121	1548.310490
948.671120	1550.867133
950.855696	1547.869231
953.039737	1524.090909
955.227128	1510.666434
957.406215	1512.548252
959.588653	1523.153147
961.770557	1527.012587
963.949986	1559.941958
966.126943	1581.629371
968.305308	1606.426573
970.485080	1628.404895
972.658503	1648.105594
974.835272	1651.172727
977.007634	1662.902098
979.181404	1648.063636
981.350770	1617.759441
983.523480	1583.179720
985.693725	1506.941259
987.863441	1428.718881
990.032628	1361.330070
992.197418	1275.302098
994.365549	1192.027972
996.529286	1120.258042
998.694429	1049.737762
1000.857113	997.998601
1003.019272	956.021678
1005.178974	932.325175
1007.338151	903.876224
1009.498735	879.262238
1011.656865	856.230070
1013.814470	863.150350
1015.971552	857.853147
1018.128110	861.426573
1020.280289	853.953147
1022.433875	852.737762
1024.586939	846.081818
1026.737554	861.818182
1028.889576	859.602098
1031.037224	851.372727
1033.188204	849.772727
1035.334813	820.790210
1037.480903	795.167133
1039.626475	773.488112
1041.773452	767.030769
1043.914140	781.182517
1046.058158	779.325175
1048.199735	771.293706
1050.340796	786.878322
1052.483261	823.706294
1054.619447	844.621678
1056.758958	842.327273
1058.894115	864.674126
1061.032596	823.869930
1063.166723	808.997902
1065.300337	805.251049
1067.435356	804.457343
1069.566025	799.312587
1071.698099	787.467832
1073.827744	769.697203
1075.956877	770.241958
1078.085498	769.158042
1080.213608	778.785315
1082.339292	762.439860
1084.464466	764.451748
1086.591044	743.529371
1088.713284	744.576224
1090.836929	710.219580
1092.956239	686.154545
1095.080779	654.944056
1097.199073	632.000699
1099.318772	594.139161
1101.436052	564.694406
1103.552826	559.408392
1105.669093	577.702098
1107.782944	579.983916
1109.898200	600.127972
1112.009132	605.588112
1114.123377	603.878322
1116.233301	615.818182
1118.344629	625.593007
1120.455452	614.301399
1122.561959	608.469231
1124.671776	595.294406
1126.777278	598.893706
1128.884183	596.569930
1130.984873	592.341259
1133.090775	575.349650
1135.192368	566.451049
1137.295364	535.788811
1139.397859	524.667133
1141.494147	525.380420
1143.595643	511.895804
1145.692835	511.117483
1147.789530	509.530769
1149.885726	511.831469
1151.981425	515.536364
1154.076625	511.843357
1156.169429	508.333566
1158.263636	518.610490
1160.351651	522.940559
1162.444864	521.796503
1164.531889	524.869231
1166.622213	524.438462
1168.708250	518.237063
1170.797584	513.592308
1172.880737	502.334965
1174.965292	501.979021
1177.051249	490.813287
1179.132924	498.250350
1181.216001	499.313287
1183.296692	504.995804
1185.376891	492.324476
1187.456599	493.027273
1189.535816	496.066434
1191.612651	493.247552
1193.687105	487.508392
1195.764850	469.752448
1197.838326	458.764336
1199.913202	460.024476
1201.983811	451.398601
1204.055821	457.606993
1206.125456	460.104196
1208.196491	448.060140
1210.267038	448.351049
1212.333324	456.854545
1214.401011	465.201399
1216.466326	463.244755
1218.533041	467.504895
1220.595500	447.866434
1222.661244	455.731469
1224.722734	456.964336
1226.785625	458.001399
1228.846148	458.993706
1230.906187	457.300699
1232.965744	452.330769
1235.022935	455.431469
1237.079645	458.455944
1239.133991	457.089510
1241.191619	455.498601
1243.246884	456.039860
1245.297908	447.678322
1247.350332	459.451748
1249.402276	464.569930
1251.451862	462.655944
1253.500969	458.457343
1255.549598	447.030769
1257.597748	447.357343
1259.645419	441.020979
1261.688860	450.646154
1263.735577	438.041958
1265.779940	435.616084
1267.823827	440.537063
1269.865362	435.844056
1271.904548	450.762937
1273.947007	462.113986
1275.985243	468.453846
1278.024878	486.172727
1280.064038	480.418182
1282.098979	488.358042
1284.135319	487.659441
1286.169315	488.444755
1288.204708	476.301399
1290.235889	484.806993
1292.268467	480.470629
1294.300574	465.728671
1296.330340	474.485315
1298.361504	489.685315
1300.388460	485.582517
1302.416814	482.941958
1304.440963	467.356643
1306.468378	458.227972
1308.491590	443.810490
1310.516200	433.383916
1312.538476	433.027972
1314.562149	435.500000
1316.583489	424.875524
1318.604361	415.712587
1320.624766	426.093706
1322.640978	443.765035
1324.658587	437.165734
1326.673868	447.865035
1328.692408	451.685315
1330.706759	449.286713
1332.718784	447.939161
1334.734066	450.713986
1336.745163	449.472028
1338.757657	447.172727
1340.765968	436.640559
1342.777534	423.003497
1344.783062	414.799301
1346.791845	419.610490
1348.796450	421.195804
1350.804309	422.651049
1352.811706	422.425175
1354.813072	419.044056
1356.815834	407.089510
1358.818137	409.353846
1360.819980	414.574126
1362.821363	415.739161
1364.820433	423.946154
1366.819044	419.464336
1368.817197	423.911888
1370.814891	433.202098
1372.808423	435.271329
1374.803351	433.438462
1376.797821	439.560839
1378.791835	429.858042
1380.783542	415.506993
1382.774794	419.738462
1384.763740	421.211888
1386.754081	425.924476
1388.743967	430.742657
1390.731549	435.076224
1392.718678	435.048252
1394.703505	432.475524
1396.689727	430.016084
1398.673649	431.295804
1400.657118	429.888811
1402.640134	428.600000
1404.620853	422.938462
1406.602966	425.860839
1408.582783	420.718182
1410.562148	420.011888
1412.537375	408.182517
1414.515840	416.005594
1416.492012	402.967832
1418.467735	410.705594
1420.443008	413.546154
1422.415990	412.569930
1424.388524	418.071329
1426.360610	423.125874
1428.332249	429.697902
1430.299759	436.376923
1432.272343	432.695105
1434.237122	430.255944
1436.206972	422.954545
1438.172699	420.611189
1440.139818	414.830769
1442.104654	416.370629
1444.065370	416.444056
1446.031154	417.999301
1447.990983	415.176923
1449.952206	414.362238
1451.914821	427.497203
1453.873321	428.656643
1455.831378	425.851748
1457.788994	423.164336
1459.746167	416.786713
1461.701065	412.742657
1463.657356	417.172727
1465.611372	412.487413
1467.564947	426.079021
1469.516250	436.203497
1471.468946	437.467832
1473.419369	446.845455
1475.369354	451.753846
1477.318900	450.541259
1479.266177	438.600000
1481.211186	433.131469
1483.157588	424.577622
1485.103552	423.105594
1487.049079	428.206294
1488.992340	422.495804
1490.935166	429.796503
1492.875728	439.476224
1494.817681	434.714685
1496.757372	435.895105
1498.696629	429.264336
1500.635450	425.784615
1502.572012	418.605594
1504.509965	420.641958
1506.445659	419.367832
1508.380920	424.446154
1510.313925	426.395105
1512.246497	429.601399
1514.178637	438.109091
1516.110345	441.579021
1518.039799	428.161538
1519.970644	430.021678
1521.901057	424.451049
1523.827398	419.033566
1525.755130	423.023776
1527.680611	425.513986
1529.605663	430.357343
1531.530286	429.929371
1533.454480	442.878322
1535.376426	461.758042
1537.299763	458.679021
1539.220853	453.533566
1541.139700	440.518182
1543.059935	435.802797
1544.977928	431.201399
1546.895494	433.802797
1548.810818	441.808392
1550.727532	452.846154
1552.640191	463.576923
1554.556054	464.331469
1556.469677	474.988811
1558.381062	476.087413
1560.293837	461.487413
1562.202562	452.185315
1564.112676	429.494406
1566.022367	430.118182
1567.931635	441.248252
1569.838669	444.215385
1571.743470	450.113986
1573.649660	466.683217
1575.553618	467.772727
1577.457155	463.972727
1579.360272	463.675524
1581.261159	470.111189
1583.163435	463.592308
1585.063483	452.863636
1586.964918	429.520979
1588.862320	435.319580
1590.759303	443.337063
1592.655868	431.262937
1594.553821	436.686014
1596.445939	446.586014
1598.341250	454.039161
1600.236144	454.411189
1602.128816	457.776923
1604.021071	470.306993
1605.911107	469.737063
1607.800727	471.412587
1609.689932	468.325874
1611.578722	474.834266
1613.465294	470.365035
1615.353254	451.464336
1617.237197	445.376923
1619.122527	454.808392
1621.007444	463.181119
1622.890147	456.158042
1624.774237	454.800000
1626.654315	470.680420
1628.535781	474.591608
1630.415036	479.411189
1632.295677	492.725175
1634.170514	480.021678
1636.050332	475.697902
1637.926146	481.441958
1639.801549	491.444755
1641.678338	516.182517
1643.549331	525.080420
1645.423505	538.585315
1647.293680	527.920280
1649.167037	531.691608
1651.038190	532.086014
1652.907141	524.311189
1654.777477	521.051748
1656.643821	510.296503
1658.511550	518.956643
1660.377080	522.041958
1662.243996	514.830070
1664.106923	511.870629
1665.971235	503.261538
1667.833351	500.372028
1669.695062	491.644755
1671.558159	477.727273
1673.419060	470.739860
1675.277769	450.397902
1677.136074	447.169231
1678.995764	455.381119
1680.849686	460.168531
1682.706782	469.230070
1684.563475	477.302797
1686.416191	482.081818
1688.272079	517.439860
1690.123993	535.822378
1691.975506	539.688112
1693.826618	542.112587
1695.677330	532.059441
1697.527641	529.913986
1699.375767	528.730769
1701.225278	534.974825
1703.069040	542.140559
1704.917751	546.262238
1706.760716	534.758042
1708.606848	524.044056
1710.449017	547.948951
1712.294352	518.763636
1714.133946	508.685315
1715.974924	534.421678
1717.817285	519.416783
1719.655690	530.877622
1721.495478	551.565035
1723.333091	548.234266
1725.170308	568.581818
1727.005352	565.646154
1728.841779	567.465734
1730.676034	563.906993
1732.509894	557.115385
1734.343360	535.008392
1736.172881	539.985315
1738.005560	537.775524
1739.834295	530.429371
1741.666187	530.311189
1743.494137	550.630769
1745.321696	542.534266
1747.148862	564.367832
1748.975637	546.907692
1750.802020	555.546853
1752.624467	546.072727
1754.450069	545.055245
1756.271736	549.054545
1758.094785	549.296503
1759.915672	533.979720
1761.736171	531.270629
1763.558051	510.743357
1765.374231	528.516783
1767.193563	519.559441
1769.008968	501.804895
1770.827523	503.389510
1772.642153	510.932168
1774.456396	504.016783
1776.270253	519.836364
1778.083723	516.006993
1779.895040	528.200000
1781.707737	525.478322
1783.520049	528.824476
1785.328443	521.467133
1787.138217	541.934965
1788.944077	520.611189
1790.753082	503.047552
1792.558174	500.033566
1794.364647	478.590909
1796.170736	458.076923
1797.972914	438.174825
1799.778237	425.197203
1801.579651	429.969930
1803.382445	448.891608
1805.181333	471.553846
1806.981602	490.213287
1808.781489	499.155245
1810.579234	499.195804
1812.376599	479.919580
1814.173584	476.242657
1815.970188	467.523776
1817.764653	472.234266
1819.560497	467.717483
1821.350686	463.808392
1823.145772	456.922378
1824.935206	465.841958
1826.727776	475.369930
1828.518211	479.797902
1830.306512	475.537063
1832.097948	471.157343
1833.883738	446.211888
1835.670908	447.483916
1837.455946	464.268531
1839.244118	491.288811
1841.028404	491.652448
1842.810560	482.569930
1844.594096	490.485315
1846.375503	500.745455
1848.158289	516.537762
1849.937194	509.220979
1851.717479	500.297902
1853.495637	496.032867
1855.275174	492.000699
1857.052586	498.793007
1858.827874	488.512587
1860.604540	468.300000
1862.379084	456.753846
1864.155006	445.584615
1865.925307	430.572727
1867.698736	424.047552
1869.470045	424.369231
1871.240983	427.920280
1873.013299	434.265734
1874.780001	453.055944
1876.549829	449.004895
1878.315793	459.302098
1880.084880	443.941958
1881.850106	443.539161
1883.614964	444.611888
1885.381199	438.995105
1887.143575	429.054545
1888.905584	445.984615
1890.667225	451.517483
1892.428500	452.902098
1894.189407	446.277622
1895.949948	445.833566
1897.708379	433.732867
1899.466444	435.436364
1901.222402	423.875524
1902.979736	418.859441
1904.736705	415.858741
1906.491567	420.054545
1908.244325	420.406993
1909.996718	428.262238
1911.750488	414.111888
1913.502154	411.671329
1915.251718	406.862238
1917.002657	415.984615
1918.753234	410.665035
1920.499971	405.682517
1922.248085	406.543357
1923.994099	403.342657
1925.741488	412.361538
1927.486780	417.241259
1929.229974	422.049650
1930.974543	418.405594
1932.717017	416.989510
1934.459130	428.036364
1936.200883	428.474825
1937.942276	433.719580
1939.681576	432.403497
1941.420517	426.663636
1943.159099	421.111189
1944.895590	411.206993
1946.631723	422.146853
1948.369230	426.098601
1950.102915	426.602098
1951.837975	428.130070
1953.570946	438.404895
1955.303561	439.952448
1957.035820	443.837762
1958.767722	448.670629
1960.497538	468.683217
1962.225269	460.413287
1963.954375	454.821678
1965.683126	443.549650
1967.409793	442.635664
1969.136106	438.607692
1970.863792	437.088112
1972.585942	435.644056
1974.311193	421.588811
1976.032637	418.910490
1977.757182	429.381818
1979.479646	437.727972
1981.198308	448.720979
1982.920068	450.162238
1984.638026	449.637762
1986.357357	442.141958
1988.072889	440.513287
1989.793241	442.365734
1991.509795	447.329371
1993.222552	438.142657
1994.938405	424.534965
1996.652186	426.698601
1998.365617	418.617483
2000.076977	419.379021
2001.789709	415.462937
2003.498651	421.272028
2005.210685	415.090909
2006.917211	405.250350
2008.626828	405.420979
2010.334379	410.570629
2012.041581	418.037063
2013.746718	423.787413
2015.451509	427.553147
2017.157671	433.202098
2018.860051	438.132168
2020.563802	438.781818
2022.265491	441.322378
2023.966835	431.509091
2025.667833	417.889510
2027.366770	401.737762
2029.067079	403.878322
2030.763613	409.885315
2032.461518	402.942657
2034.157364	416.131469
2035.856296	417.300000
2037.549742	424.392308
2039.244559	425.051049
2040.939034	425.146853
2042.629740	422.674126
2044.323530	407.710490
2046.013553	410.320979
2047.704947	398.963636
2049.394288	399.740559
2051.084999	394.358042
2052.771947	380.081818
2054.458556	398.083916
2056.146534	386.179720
2057.830753	393.711189
2059.516343	390.567832
2061.201593	390.487413
2062.884794	376.850350
2064.569366	386.655944
2066.248475	389.593007
2067.932369	384.370629
2069.610802	391.620280
2071.292313	390.790210
2072.970072	386.294406
2074.647495	392.624476
2076.326287	390.130769
2078.003037	396.453846
2079.677745	394.651049
2081.353822	392.522378
2083.027859	394.972727
2084.701560	406.917483
2086.374926	398.100000
2088.046253	408.319580
2089.717246	416.595105
2091.387905	418.037063
2093.058230	413.069231
2094.728221	413.460140
2096.396176	411.672727
2098.063798	413.823776
2099.729385	413.821678
2101.396341	422.370629
2103.061264	427.176923
2104.725855	426.958042
2106.388414	419.951748
2108.052341	424.643357
2109.714237	419.726573
2111.375803	421.220979
2113.037037	415.115385
2114.696243	407.672727
2116.355118	405.176224
2118.013664	407.251748
2119.671880	402.170629
2121.326372	409.274825
2122.983929	410.043357
2124.641157	404.738462
2126.294663	399.234266
2127.949537	405.615385
2129.600692	397.316084
2131.254910	389.844056
2132.905411	389.709790
2134.557278	393.428671
2136.203737	409.104196
2137.854951	412.937063
2139.502451	423.494406
2141.151318	437.484615
2142.798166	441.234266
2144.444689	436.466434
2146.090886	433.679021
2147.733375	426.157343
2149.378922	404.204895
2151.020762	395.080420
2152.665659	391.079720
2154.306850	392.197902
2155.947719	399.170629
2157.588263	403.911189
2159.226795	412.524476
2160.866693	416.283916
2162.502891	410.076923
2164.140455	410.404196
2165.777697	406.808392
2167.412929	402.874126
2169.047840	405.686014
2170.682428	406.979720
2172.316696	403.843357
2173.947270	411.658042
2175.580896	417.730070
2177.210830	431.781818
2178.842129	425.091608
2180.471423	421.783217
2182.100398	416.760839
2183.729053	422.321678
2185.357389	420.281119
2186.983723	408.535664
2188.609738	400.905594
2190.233751	390.233566
2191.859130	384.511189
2193.482508	385.929371
2195.107251	395.094406
2196.728313	399.832168
2198.349058	391.474825
2199.971168	400.366434
2201.591280	407.036364
2203.209395	405.033566
2204.827195	395.744755
2206.444680	392.913986
2208.061849	389.530070
2209.678703	386.700699
2211.295241	400.094406
2212.909787	402.720280
2214.522340	405.730070
2216.136257	397.151049
2217.748183	394.139860
2219.361472	410.420280
2220.972771	419.587413
2222.582080	417.502098
2224.192753	412.465035
2225.801437	422.609790
2227.409808	423.206294
2229.016193	428.648951
2230.623941	434.901399
2232.229702	421.613287
2233.835152	417.327273
2235.438617	420.421678
2237.043445	422.427972
2238.646289	427.390909
2240.247150	423.195105
2241.849374	422.098601
2243.449616	410.730070
2245.051220	404.706993
2246.649171	400.146853
2248.248485	398.790210
2249.845819	392.243357
2251.442845	389.837063
2253.041233	400.913287
2254.635972	418.748951
2256.228734	422.195804
2257.822859	424.183217
2259.418345	412.622378
2261.010186	423.373427
2262.601721	415.224476
2264.194618	414.413287
2265.782205	407.715385
2267.374488	424.103497
2268.961465	416.634965
2270.551469	408.086713
2272.136169	406.747552
2273.725563	410.074825
2275.309655	410.230769
2276.895107	415.988112
2278.478591	421.127972
2280.065100	439.088112
2281.647976	434.189510
2283.230549	432.846154
2284.812818	421.313986
2286.391457	436.083217
2287.973121	405.829371
2289.551156	394.428671
2291.132214	377.472028
2292.709645	384.858741
2294.285113	392.641259
2295.863603	406.602797
2297.438469	421.409091
2299.013034	421.604895
2300.587299	410.713986
2302.161263	405.969930
2303.734926	403.000699
2305.308290	405.270629
2306.878035	380.751748
2308.447481	378.452448
2310.019945	393.208392
2311.587135	415.332867
2313.157343	429.405594
2314.723936	432.239161
2316.291889	439.384615
2317.857886	442.575524
2319.423586	427.700000
2320.988988	432.977622
2322.552437	432.103497
2324.117245	436.770629
2325.678445	427.872727
2327.242659	440.904895
2328.801611	445.917483
2330.363578	435.604895
2331.923593	428.495804
2333.483314	427.629371
2335.041085	423.593706
2336.598561	425.608392
2338.155743	404.186014
2339.710977	421.155245
2341.265918	413.369231
2342.820564	429.254545
2344.374917	423.737762
2345.928977	428.568531
2347.482742	411.455245
2349.034564	417.813986
2350.584442	414.306294
2352.137328	413.235664
2353.684972	401.686014
2355.235623	406.535664
2356.782683	387.062238
2358.331101	393.421678
2359.879228	391.276923
2361.423766	400.116084
2362.969662	399.139860
2364.513620	429.034266
2366.058935	439.020280
2367.600665	470.158042
2369.143752	472.450350
2370.684903	475.520979
2372.225765	465.538462
2373.766338	454.799301
2375.306622	428.307692
2376.846617	417.009790
2378.383034	408.673427
2379.922452	393.898601
2381.458293	403.905594
2382.995490	437.802098
2384.529112	439.039860
2386.065734	449.906294
2387.600426	451.747552
2389.133188	455.123077
2390.665663	455.065734
2392.196210	454.809790
2393.729755	447.693706
2395.258089	447.665035
2396.787780	458.046853
2398.317184	455.768531
2399.846304	472.130769
2401.375139	485.874126
2402.898768	475.330769
2404.427033	450.639161
2405.950096	453.346853
2407.477792	452.652448
2408.998649	453.458042
2410.524139	460.180420
2412.046068	463.204196
2413.569353	462.459441
2415.090716	467.379720
2416.610160	464.286713
2418.130959	475.205594
2419.649840	477.995105
2421.168438	486.117483
2422.685119	484.269231
2424.203154	491.551049
2425.720908	487.397902
2427.235111	477.139860
2428.749033	479.814685
2430.262675	457.479021
2431.777672	447.760140
2433.289120	447.204196
2434.801923	448.793706
2436.312812	442.039161
2437.823423	427.146154
2439.332122	430.293706
2440.843807	427.541259
2442.351949	412.030070
2443.859813	401.425175
2445.367399	403.259441
2446.871444	412.015385
2448.378474	425.395105
2449.883597	462.972028
2451.388441	476.354545
2452.891379	476.069930
2454.394041	457.714685
2455.896426	441.532168
2457.396906	440.305594
2458.898739	431.051049
2460.398667	422.186713
2461.898320	398.870629
2463.397698	396.619580
2464.895173	383.576923
2466.390746	400.613287
2467.889299	411.770629
2469.384324	407.691608
2470.880701	402.126573
2472.373552	409.747552
2473.867756	425.460140
2475.361686	426.282517
2476.852092	437.923077
2478.345476	445.518182
2479.836962	434.842657
2481.326551	434.245455
2482.815868	421.950350
2484.303289	436.481818
2485.793686	422.385315
2487.280565	415.573427
2488.768795	399.096503
2490.253508	398.077622
2491.737952	393.076224
2493.223746	382.128671
2494.707649	382.241958
2496.192902	376.863636
2497.673022	362.366434
2499.156115	363.001399
2500.637317	358.240559
2502.118250	372.244755
2503.597294	378.693706
2505.076069	391.785315
2506.554576	406.065035
2508.032815	415.782517
2509.510785	428.872028
2510.985250	419.214685
2512.462685	415.599301
2513.936616	405.603497
2515.411897	399.208392
2516.886911	392.282517
2518.358425	388.074126
2519.831288	385.458042
2521.302269	388.379720
2522.774600	381.542657
2524.241817	384.897203
2525.712001	386.630769
2527.180304	403.490210
2528.648342	397.015385
2530.116115	400.292308
2531.583623	398.552448
2533.050866	407.111189
2534.514617	394.247552
2535.979718	385.022378
2537.442942	371.835664
2538.907516	376.879021
2540.368600	368.572727
2541.831034	372.204196
2543.293205	390.111888
2544.751890	398.503497
2546.215147	397.409790
2547.673307	401.905594
2549.132816	408.648252
2550.587231	415.298601
2552.046217	403.792308
2553.503331	409.672028
2554.958574	410.925874
2556.413555	420.931469
2557.866668	410.200699
2559.321129	406.936364
2560.773720	408.872028
2562.226052	403.215385
2563.676517	406.481818
2565.129937	411.448252
2566.578275	400.988811
2568.029569	397.616783
2569.478996	396.281119
2570.924951	405.540559
2572.373861	383.953147
2573.819301	392.971329
2575.266088	384.130769
2576.711013	390.541958
2578.155679	380.675524
2579.601693	383.674825
2581.044241	385.553147
2582.488136	379.306993
2583.928566	386.648951
2585.370343	385.247552
2586.810261	402.532168
2588.251526	398.059441
2589.689329	392.695105
2591.130082	383.372727
2592.565773	378.231469
2594.004413	370.890210
2595.441195	354.925874
2596.876122	372.099301
2598.313996	371.728671
2599.746813	361.732168
2601.180977	372.474825
2602.613287	374.334965
2604.046943	390.351748
2605.478746	394.334965
2606.910295	403.620979
2608.341592	403.387413
2609.771036	416.965734
2611.200228	420.619580
2612.627570	415.953846
2614.056257	428.816084
2615.484693	423.982517
2616.909681	402.308392
2618.336016	396.248951
2619.760502	389.849650
2621.186334	381.613986
2622.608722	379.156643
2624.032456	379.770629
2625.454343	392.182517
2626.875981	403.031469
2628.295773	410.831469
2629.716911	402.679021
2631.137799	403.474825
2632.555249	398.624476
2633.975638	388.371329
2635.392590	385.128671
2636.809293	366.532867
2638.225748	351.943357
2639.641955	345.529371
2641.057914	351.250350
2642.472032	359.507692
2643.885902	362.041958
2645.297934	362.373427
2646.711309	362.185315
2648.121255	364.764336
2649.534137	363.297203
2650.943590	363.334266
2652.352797	361.760140
2653.760168	363.156643
2655.170473	365.388112
2656.578943	369.855245
2657.985577	373.915385
2659.391966	378.262238
2660.796521	372.717483
2662.202420	377.544056
2663.606486	378.720280
2665.010307	376.153846
2666.413884	371.272028
2667.815630	376.625874
2669.218719	366.542657
2670.618390	360.873427
2672.019405	347.493706
2673.417004	344.618881
2674.817533	346.753147
2676.214646	339.088112
2677.613103	339.041259
2679.009733	346.954545
2680.406120	353.076224
2681.802265	366.851049
2683.196585	378.551049
2684.592246	388.126573
2685.984499	379.396503
2687.378094	370.692308
2688.769865	360.981119
2690.162979	356.974825
2691.554269	346.484615
2692.943736	334.270629
2694.332963	327.175524
2695.721951	329.587413
2697.112280	330.192308
2698.497626	329.399301
2699.885895	330.555245
2701.272344	345.965035
2702.658554	353.260839
2704.044525	346.223077
2705.427098	345.310490
2706.811013	345.542657
2708.194690	341.489510
2709.578128	359.320280
2710.958172	348.283217
2712.339556	367.566434
2713.719126	354.718182
2715.100036	337.717483
2716.479132	351.331469
2717.856414	364.110490
2719.235037	376.948252
2720.611847	364.392308
2721.988420	365.483217
2723.364758	357.469930
2724.739285	349.346154
2726.115152	364.934965
2727.487632	334.788811
2728.863028	341.847552
2730.233464	328.026573
2731.605241	330.348951
2732.976783	344.451748
2734.346517	347.030070
2735.717592	361.969231
2737.086858	360.880420
2738.455891	367.125175
2739.823118	369.506294
2741.190112	374.786713
2742.556872	384.258741
2743.923401	360.706993
2745.288124	360.428671
2746.652615	357.236364
2748.016875	361.776923
2749.380902	350.725874
2750.744698	344.348951
2752.105120	352.280420
2753.468452	351.393007
2754.826842	352.826573
2756.188142	368.125874
2757.546072	375.039161
2758.906910	375.904196
2760.265949	360.669231
2761.621619	355.362937
2762.980197	350.812587
2764.335408	356.211888
2765.690390	340.544755
2767.043576	321.673427
2768.399668	333.518881
2769.752395	333.763636
2771.104895	349.360839
2772.457166	347.708392
2773.810776	340.153147
2775.161024	341.682517
2776.509478	348.085315
2777.860838	356.464336
2779.208838	349.579720
2780.558176	351.258042
2781.905722	329.425175
2783.253042	323.760839
2784.600135	341.832867
2785.945437	345.157343
2787.290512	347.030769
2788.635362	330.308392
2789.979986	325.472028
2791.321258	321.161538
2792.663868	324.118182
2794.006252	331.839161
2795.348411	335.188811
2796.687221	341.595105
2798.028931	340.849650
2799.367293	356.947552
2800.706991	368.704196
2802.044905	360.539161
2803.381034	360.195105
2804.716939	355.205594
2806.054182	363.746154
2807.389641	349.804895
2808.724877	339.880420
2810.058330	349.487413
2811.393120	345.374825
2812.724570	341.886014
2814.058915	341.450350
2815.388362	341.539161
2816.719146	329.520280
2818.049708	310.889510
2819.378491	310.804196
2820.708610	324.072028
2822.036951	327.886713
2823.365071	319.042657
2824.691413	327.656643
2826.019092	356.386014
2827.343437	364.491608
2828.669119	364.266434
2829.993025	363.261538
2831.316712	364.482517
2832.641734	361.001399
2833.963426	354.430070
2835.284900	343.858741
2836.606155	342.128671
2837.927191	320.293007
2839.246454	336.896503
2840.567053	359.884615
2841.885881	364.981818
2843.204490	368.839860
2844.521328	357.076224
2845.837949	360.943357
2847.154353	356.282517
2848.468987	339.224476
2849.784957	316.785315
2851.097606	313.320280
2852.411590	320.100000
2853.725358	318.310490
2855.038909	336.786014
2856.350694	336.370629
2857.660712	332.955245
2858.972065	335.868531
2860.280103	332.200699
2861.589475	328.139161
2862.898633	310.090210
2864.207575	284.595804
2865.514753	283.324476
2866.820169	304.293706
2868.126919	307.572028
2869.431906	314.729371
2870.736680	326.543357
2872.039692	328.505594
2873.345585	336.499301
2874.646624	330.488811
2875.948997	334.625874
2877.249610	335.616783
2878.551557	327.486713
2879.853290	325.201399
2881.151720	341.904895
2882.451483	349.245455
2883.749489	353.906294
2885.047283	367.606294
2886.343321	366.786014
2887.640692	356.390210
2888.936307	352.042657
2890.231711	345.365734
2891.526904	333.937762
2892.818800	321.929371
2894.113572	304.279021
2895.405047	301.649650
2896.697855	297.833566
2897.990453	294.428671
2899.279757	295.094406
2900.570393	297.073427
2901.859278	305.676224
2903.149495	313.581818
2904.436421	310.572028
2905.724679	323.797203
2907.011188	326.971329
2908.297489	332.729371
2909.583581	320.904895
2910.867925	333.423077
2912.155140	331.970629
2913.437529	328.431469
2914.721250	324.404895
2916.003225	322.899301
2917.284992	336.015385
2918.565015	330.876224
2919.847907	331.129371
2921.129054	347.387413
2922.406919	350.517483
2923.687653	334.651748
2924.965106	337.397902
2926.242353	355.345455
2927.517858	351.083916
2928.796231	360.375524
2930.069790	364.613986
2931.346216	360.755944
2932.620901	371.572727
2933.893845	363.890210
2935.168121	372.641259
2936.440657	355.445455
2937.712988	343.220979
2938.982047	323.746853
2940.253971	324.232867
2941.524157	319.070629
2942.794139	317.341259
2944.063918	318.676923
2945.331961	322.888811
2946.598267	316.558042
2947.864372	323.076224
2949.131806	341.212587
2950.397506	332.642657
2951.663003	326.960140
2952.928298	323.743357
2954.190328	337.029371
2955.453688	340.928671
2956.716847	335.767832
2957.978274	337.255944
2959.241030	327.737762
2960.502054	329.972028
2961.761348	320.154545
2963.020442	331.446154
2964.279335	333.551049
2965.538028	309.174126
2966.796521	312.520979
2968.053285	318.737063
2969.309849	342.996503
2970.564686	344.909091
2971.820851	336.175524
2973.073762	337.991608
2974.328002	324.132867
2975.582043	319.260839
2976.834358	315.463636
2978.086474	314.119580
2979.336866	310.339860
2980.590113	310.653846
2981.838583	314.874825
2983.089908	318.659441
2984.337983	325.379720
2985.585862	323.861538
2986.833543	320.767133
2988.081027	306.272727
2989.326790	309.230070
2990.572357	306.034266
2991.819251	293.846154
2993.062901	294.681119
2994.307879	297.670629
2995.549613	297.955245
2996.794199	291.755245
2998.037066	286.130769
2999.276692	289.544755
3000.519168	294.411888
3001.758404	303.348252
3002.998968	305.969231
3004.237816	314.894406
3005.476468	312.955944
3006.713406	308.825874
3007.951670	321.555245
3009.188219	321.769231
3010.424575	322.797902
3011.660737	314.362238
3012.895185	309.897203
3014.129441	302.556643
3015.363503	297.649650
3016.595853	289.698601
3017.826491	285.088112
3019.059975	263.303497
3020.291747	259.294406
3021.521809	266.683916
3022.751679	267.162238
3023.979839	273.467133
3025.209325	287.296503
3026.437102	289.155944
3027.664688	296.053846
3028.893601	299.230070
3030.117771	295.958741
3031.344784	291.597203
3032.568573	291.872028
3033.793689	291.009091
3035.017098	296.350350
3036.240317	304.230070
3037.461831	308.408392
3038.686186	312.282517
3039.905806	309.548951
3041.126752	289.192308
3042.347509	288.245455
3043.566562	285.356643
3044.786940	266.093706
3046.004102	271.010490
3047.222590	274.341259
3048.439375	289.173427
3049.655973	299.783217
3050.872382	304.779720
3052.085579	315.325874
3053.301613	303.697203
3054.514435	293.077622
3055.730094	273.511189
3056.941030	263.436364
3058.153291	264.364336
3059.365366	260.460140
3060.577253	266.012587
3061.787444	260.796503
3062.997448	266.316783
3064.207266	272.414685
3065.415388	270.544056
3066.623325	274.955245
3067.829566	270.187413
3069.037132	276.660839
3070.243003	278.590210
3071.448690	293.353147
3072.654191	307.239860
3073.857999	313.539860
3075.063131	300.697203
3076.266570	286.018881
3077.468318	274.323077
3078.669881	269.334266
3079.871261	259.076224
3081.072457	245.833566
3082.271963	235.838462
3083.471286	235.231469
3084.671932	232.629371
3085.870888	252.063636
3087.066650	263.039161
3088.265241	279.078322
3089.460638	272.794406
3090.657358	276.329371
3091.850886	284.988811
3093.047242	290.331469
3094.241912	285.703497
3095.433391	274.446154
3096.629201	264.958741
3097.820318	252.514685
3099.012757	263.386713
3100.202009	274.327972
3101.394086	266.141958
3102.584480	257.100000
3103.771688	244.534965
3104.960219	238.230769
3106.150071	247.709091
3107.336740	254.515385
3108.523228	261.995105
3109.709538	273.061538
3110.897169	279.114685
3112.081618	291.674126
3113.264388	296.990909
3114.449980	281.179021
3115.633893	255.315385
3116.816127	242.999301
3117.998182	228.434965
3119.180059	217.307692
3120.361758	234.059441
3121.541780	242.165035
3122.720125	248.698601
3123.901290	257.914685
3125.079280	255.263636
3126.257094	259.478322
3127.434730	256.002098
3128.610691	250.479720
3129.786475	233.518881
3130.963581	232.623077
3132.139012	230.158741
3133.312770	221.665734
3134.484855	235.880420
3135.658262	235.036364
3136.831492	238.943357
3138.003051	243.737762
3139.175930	243.231469
3140.345642	250.455944
3141.516675	253.502797
3142.686038	242.219580
3143.853730	232.257343
3145.024238	239.553147
3146.190088	234.320280
3147.360246	222.090909
3148.525748	226.393706
3149.691075	224.185315
3150.856229	217.151748
3152.021210	218.305594
3153.187510	211.582517
3154.349158	214.795105
3155.512125	214.215385
3156.674920	218.762238
3157.837542	220.452448
3158.998499	237.040559
3160.159283	236.730070
3161.319895	238.181119
3162.478843	238.288811
3163.637620	244.953846
3164.796225	238.571329
3165.954657	245.134965
3167.112919	247.573427
3168.269518	252.818881
3169.424456	256.528671
3170.580713	260.692308
3171.735309	260.109091
3172.889735	265.236364
3174.042501	269.264336
3175.195096	260.534965
3176.347522	248.218881
3177.499778	250.739860
3178.651863	235.692308
3179.800803	231.334266
3180.952549	232.771329
3182.102637	237.284615
3183.251069	229.872727
3184.399331	223.883916
3185.547425	220.646154
3186.695350	226.046154
3187.841619	231.757343
3188.987720	221.668531
3190.132167	223.324476
3191.276446	232.907692
3192.420557	234.400000
3193.565985	239.206993
3194.708275	251.313986
3195.850398	256.593007
3196.992353	246.260839
3198.134141	253.882517
3199.275762	246.983217
3200.414248	254.665035
3201.554051	251.306993
3202.695172	256.068531
3203.833158	256.645455
3204.969495	246.968531
3206.105666	249.216084
3207.243154	226.802098
3208.378994	227.623776
3209.516151	224.223077
3210.648695	234.740559
3211.785521	240.200000
3212.917735	232.611888
3214.051266	238.854545
3215.184633	246.443357
3216.314872	252.667832
3217.447909	245.116084
3218.577820	232.896503
3219.709047	229.842657
3220.837150	213.569231
3221.968049	220.862238
3223.097304	224.532168
3224.224916	234.209790
3225.349405	223.934266
3226.478170	216.831469
3227.603813	213.062937
3228.729294	228.353846
3229.853133	236.745455
3230.979766	248.555944
3232.101802	248.869930
3233.225154	250.252448
3234.348344	250.808392
3235.471372	245.622378
3236.592760	237.398601
3237.713986	237.735664
3238.833575	224.954545
3239.953002	222.230769
3241.070791	220.748252
3242.191372	227.123077
3243.308840	231.913287
3244.426147	240.682517
3245.543294	240.165035
3246.658805	242.139161
3247.775630	234.841958
3248.889346	224.345455
3250.005851	226.841259
3251.120722	238.193007
3252.232484	246.053147
3253.344086	255.391608
3254.457004	252.501399
3255.569762	247.886014
3256.679414	249.612587
3257.790381	253.555944
3258.901189	247.322378
3260.010365	240.167832
3261.117911	230.204895
3262.226770	221.000000
3263.335472	223.511189
3264.441071	217.772028
3265.547984	211.758042
3266.653268	208.439860
3267.759866	208.572028
3268.863364	215.365035
3269.968177	225.858741
3271.072832	238.123776
3272.174388	235.020979
3273.275788	243.408392
3274.378502	243.758042
3275.481060	245.752448
3276.580521	240.486713
3277.682766	230.558741
3278.781915	231.417483
3279.879440	238.244056
3280.976809	244.998601
3282.076960	248.939860
3283.174019	244.412587
3284.270922	237.763636
3285.367670	239.875524
3286.459860	240.316783
3287.556298	246.319580
3288.651114	241.564336
3289.745776	234.619580
3290.838816	241.276923
3291.931701	244.419580
3293.022967	249.583217
3294.115544	260.204895
3295.206502	249.748951
3296.295840	232.966434
3297.385025	219.517483
3298.475523	216.035664
3299.562936	205.671329
3300.650196	206.664336
3301.738769	199.411888
3302.827190	210.369930
3303.911063	215.698601
3304.999178	226.495804
3306.084211	240.561538
3307.167629	248.218881
3308.252359	240.953846
3309.335473	229.896503
3310.419900	223.225874
3311.501248	213.167133
3312.583908	209.705594
3313.664954	208.362937
3314.745849	227.863636
3315.825130	238.790909
3316.904261	237.128671
3317.984704	244.937762
3319.062072	234.010490
3320.140752	229.183217
3321.217820	221.967133
3322.294739	212.956643
3323.370046	215.125874
3324.445204	211.567832
3325.521673	208.200000
3326.595072	218.574126
3327.668322	230.083217
3328.742882	212.523077
3329.815834	219.408392
3330.887177	219.637762
3331.959831	208.869231
3333.029419	228.825874
3334.100317	234.152448
3335.169608	241.122378
3336.240210	255.140559
3337.309205	253.583217
3338.376594	249.482517
3339.442378	258.037762
3340.512388	244.667832
3341.579335	230.780420
3342.643220	246.602797
3343.709873	234.099301
3344.774921	228.079720
3345.838366	231.863636
3346.901665	226.723077
3347.964817	220.360140
3349.027823	226.928671
3350.090683	218.733566
3351.151941	221.470629
3352.210142	226.201399
3353.272563	218.371329
3354.331929	226.950350
3355.391149	227.267832
3356.451679	206.246853
3357.507699	201.923077
3358.566483	198.387413
3359.620760	197.379021
3360.677801	192.504895
3361.733243	194.569930
3362.789995	194.365734
3363.845148	205.393706
3364.898704	214.916084
3365.950664	219.854545
3367.005385	235.687413
3368.057057	234.577622
3369.108586	239.161538
3370.161423	243.293706
3371.211213	244.494406
3372.262312	238.115385
3373.310365	226.276224
3374.361177	215.963636
3375.408945	207.910490
3376.456570	206.535664
3377.504052	206.306294
3378.549942	210.846853
3379.597140	217.490909
3380.641296	217.583916
3381.688210	229.761538
3382.733532	210.862238
3383.775813	205.055944
3384.817954	212.116783
3385.861402	196.400699
3386.904709	191.427273
3387.946427	182.467832
3388.988003	180.723776
3390.029438	189.883916
3391.069285	206.246154
3392.107543	213.905594
3393.147109	217.139161
3394.186535	220.760140
3395.224373	209.009790
3396.260624	207.944755
3397.296736	213.395105
3398.334155	200.333566
3399.368541	193.108392
3400.404234	186.299301
3401.439788	187.887413
3402.472311	194.415385
3403.507587	192.913986
3404.539832	183.107692
3405.571939	184.911189
3406.602462	182.414685
3407.634292	188.855944
3408.665984	189.483916
3409.694648	185.288811
3410.723175	183.720280
3411.753008	175.317483
3412.782704	186.336364
3413.809374	189.736364
3414.837351	186.695105
3415.862303	177.869231
3416.890005	176.495804
3417.914684	182.595105
3418.940669	186.286713
3419.965074	193.223776
3420.989343	197.927972
3422.012033	198.661538
3423.034587	193.637063
3424.058447	194.888112
3425.079287	196.617483
3426.099991	188.033067
3427.122002	180.543457
3428.140994	176.505295
3429.159850	178.275225
3430.180013	188.209890
3431.197159	208.665934
