-118.059454	-2.047527
-115.389854	-1.210989
-112.723189	-1.092657
-110.057276	-1.530470
-107.394295	-2.362363
-104.729885	-3.426274
-102.068405	-4.560140
-99.405496	-6.513986
-96.747693	-5.502797
-94.088461	-6.263636
-91.429977	-4.095105
-88.774417	-4.809790
-86.117429	-6.826573
-83.465539	-4.060839
-80.812218	-2.217483
-78.161818	-0.679021
-75.509988	0.540559
-72.863249	-0.010490
-70.215081	1.238462
-67.567655	0.783916
-64.923143	2.659441
-62.277203	2.494406
-59.636344	3.929371
-56.994056	1.916084
-54.354677	-0.118182
-51.713868	0.188811
-49.073800	-0.320280
-46.438804	1.862238
-43.802380	2.154545
-41.168858	4.556643
-38.533908	5.490909
-35.904023	5.149650
-33.270546	5.300000
-30.642131	4.197902
-28.014450	5.379720
-25.385340	1.132168
-22.761287	-19.610490
-20.133645	-99.884615
-17.511056	-231.809790
-14.889199	-387.176224
-12.268072	78.818182
-9.647675	1185.121678
-7.030167	2116.264336
-4.411230	2777.219580
-1.795178	3166.113287
0.820145	3282.168531
3.434741	3125.551049
6.046454	2694.091608
8.659596	2006.022378
11.267704	1103.717483
13.879394	168.575524
16.486053	-504.862937
19.094140	-413.645455
21.701503	-31.824476
24.303841	10.733566
26.909757	11.248252
29.510651	9.214685
32.112973	8.110490
34.710278	8.118881
37.311158	4.546853
39.907023	5.683217
42.504317	4.653846
45.100891	5.301399
47.692456	7.208392
50.285449	7.478322
52.875581	6.546853
55.467141	7.160839
58.055841	2.995105
60.645968	1.847552
63.231096	0.995105
65.817652	0.190909
68.403494	-2.083916
70.986482	-0.634965
73.570896	-3.176224
76.148182	-1.585315
78.729034	-0.141259
81.307037	-0.355944
83.884330	-0.268531
86.463049	-1.576224
89.036786	-3.249650
91.611951	-3.301399
94.184272	-4.958741
96.755885	-3.069231
99.324658	-0.779720
101.894858	-0.017483
104.462220	1.526573
107.031007	7.265035
109.596958	8.431469
112.160074	9.630769
114.726746	8.923776
117.284197	9.068531
119.847333	9.937762
122.405509	9.650350
124.967240	15.925874
127.524014	26.109790
130.082215	37.252448
132.635462	54.628671
135.188012	79.942657
137.744112	107.251049
140.295264	131.060839
142.845719	154.460140
145.395476	173.861538
147.942414	190.148951
150.488657	202.964336
153.036325	207.893706
155.583297	211.004196
158.125334	209.302098
160.666677	204.595804
163.207327	201.669930
165.749403	200.162238
168.288667	198.032867
170.825123	194.172028
173.360887	192.109790
175.898077	191.901399
178.434576	194.997902
180.968269	194.869930
183.499158	195.377622
186.029360	196.585315
188.560986	199.002098
191.089811	199.880420
193.615837	199.229371
196.141177	198.718881
198.667942	196.546853
201.191911	193.611888
203.715195	193.650350
206.237794	192.297203
208.757600	191.942657
211.276723	190.551748
213.795163	192.160140
216.315027	196.008392
218.827890	203.290909
221.344284	210.531469
223.859996	217.439860
226.370818	220.704895
228.883065	224.256643
231.392530	228.022378
233.901316	232.564336
236.409423	233.971329
238.918955	234.537762
241.423606	234.202797
243.927581	232.286014
246.432980	232.477622
248.933504	236.347552
251.437552	238.715385
253.934628	238.701399
256.435228	240.207692
258.933056	244.155245
261.430211	247.081818
263.926693	251.017483
266.418312	255.273427
268.913451	253.818182
271.405823	255.909091
273.897525	256.760140
276.386464	257.839860
278.876827	260.319580
281.364427	261.988811
283.849268	264.860839
286.337624	270.141958
288.819040	275.334965
291.303970	283.239161
293.784055	296.445455
296.267652	306.141958
298.746406	313.987413
301.226584	320.690909
303.704009	322.300000
306.180771	320.138462
308.656870	316.513287
311.130220	317.339860
313.602908	312.451049
316.074935	307.451748
318.546301	305.234965
321.014922	303.476224
323.482885	302.225874
325.952269	297.411888
328.416831	291.581818
330.884897	282.513986
333.348143	274.820280
335.810731	264.361538
338.272663	260.612587
340.733938	260.875524
343.192479	256.109790
345.652442	254.020280
348.109672	251.177622
350.566248	246.482517
353.022170	242.246154
355.475362	240.606294
357.929977	240.226573
360.379790	240.254545
362.833099	242.532867
365.281610	240.662238
367.729469	240.228671
370.178751	238.121678
372.623239	233.633566
375.069149	229.451748
377.514409	225.725175
379.956951	219.831469
382.398845	218.459441
384.840092	217.213986
387.278623	218.001399
389.718576	219.527972
392.155815	224.030070
394.590342	223.653846
397.028357	223.363636
399.461595	223.207692
401.896254	223.545455
404.326141	225.543357
406.759513	227.220280
409.188115	228.541958
411.616075	230.925874
414.045457	228.318881
416.470073	228.000699
418.896111	226.065035
421.321508	224.872028
423.746265	223.751049
426.166264	222.074825
428.587684	219.729371
431.006407	217.355944
433.426551	214.837063
435.844000	215.224476
438.262869	212.674825
440.679045	210.141958
443.090473	207.723077
445.505379	204.624476
447.917594	200.442657
450.329175	198.686014
452.740122	198.973427
455.148383	201.052448
457.556011	199.691608
459.963007	199.029371
462.369372	198.235664
464.773054	200.035664
467.176106	199.867832
469.578528	199.816783
471.980320	200.974126
474.379435	204.095804
476.779969	207.119580
479.179874	212.772028
481.575056	223.822378
483.973705	236.382517
486.367634	246.148252
488.760937	255.974825
491.153614	261.535664
493.545666	270.706294
495.939136	276.588112
498.327894	269.060140
500.713986	231.987413
503.101498	159.484615
505.488387	185.873427
507.872612	733.675524
510.258255	1932.913287
512.641237	3430.791608
515.021558	4770.855944
517.403298	5732.102098
519.782379	6234.919580
522.162879	6255.186713
524.540721	5784.376224
526.915908	4855.029371
529.290477	3553.547552
531.666464	2096.056643
534.039799	869.153147
536.414551	290.134266
538.784618	246.657343
541.154069	343.114685
543.524938	366.736364
545.891127	350.444755
548.258734	326.712587
550.623695	304.579021
552.988043	280.219580
555.351778	260.756643
557.716931	244.312587
560.077412	233.412587
562.439311	223.586713
564.798569	214.434266
567.155190	203.759441
569.515255	195.328671
571.868629	190.297203
574.225448	186.267832
576.579632	181.226573
578.933208	175.767133
581.286175	172.506294
583.636510	171.769930
585.988263	170.884615
588.333339	170.627273
590.683879	169.831469
593.027745	166.204895
595.377073	162.670629
597.721752	159.717483
600.063807	159.656643
602.407279	159.793706
604.748128	160.600000
607.088375	163.077622
609.426001	169.154545
611.767062	171.453147
614.103485	174.581119
616.441325	175.813986
618.776548	176.534266
621.109155	173.024476
623.443178	164.709091
625.774587	160.985315
628.105398	155.749650
630.435612	150.489510
632.765227	145.294406
635.090220	140.958741
637.420653	141.310490
639.746466	141.011888
642.069671	140.027972
644.394293	138.215385
646.716309	141.606993
649.037731	140.700000
651.356551	139.889510
653.676786	143.253147
655.996428	144.472727
658.313469	145.732867
660.629918	147.086713
662.943769	148.264336
665.259036	151.685315
667.571706	151.541958
669.885791	150.359441
672.195276	150.774825
674.506177	149.738462
676.814485	145.941958
679.122205	142.602098
681.431339	139.502098
683.735881	136.573427
686.039837	131.028671
688.343207	127.303497
690.647991	123.710490
692.948189	121.230070
695.249801	118.565035
697.550829	117.860839
699.847274	118.681818
702.145135	116.538462
704.442412	116.216783
706.739106	114.308392
709.031224	115.608392
711.326753	116.246154
713.617708	116.751049
715.910078	119.169231
718.199873	121.596503
720.489087	123.889510
722.777722	123.567832
725.063784	123.870629
727.351261	123.399301
729.636166	119.688811
731.920494	115.275524
734.202253	111.472028
736.485426	110.951049
738.768022	111.669930
741.046062	111.843357
743.325517	113.527273
745.604395	114.759441
747.882699	116.827273
750.156453	117.697902
752.431620	117.702098
754.706214	118.178322
756.978249	116.545455
759.251697	114.755245
761.522587	114.398601
763.790921	115.602098
766.060668	117.082517
768.327861	115.616084
770.594483	116.808392
772.860535	117.516084
775.124036	118.634965
777.388950	121.174126
779.653294	118.845455
781.913109	122.196503
784.174336	122.344056
786.434996	122.081818
788.693110	124.513287
790.948679	122.459441
793.207639	124.209790
795.460100	122.443357
797.717927	124.333566
799.971236	124.970629
802.222005	125.481119
804.474186	125.604196
806.723828	125.739860
808.974883	130.128671
811.221426	131.025874
813.469381	130.554545
815.714802	134.714685
817.961634	131.416084
820.207905	135.111189
822.449671	136.609790
824.694821	141.796503
826.933498	141.740559
829.175557	137.367133
831.413118	135.308392
833.652091	131.888811
835.888537	128.800000
838.126394	126.469231
840.361726	124.525175
842.594535	122.767133
844.828755	120.193007
847.060452	119.987413
849.291595	121.132867
851.522183	121.511888
853.752217	119.860839
855.981697	116.855944
858.206695	118.822378
860.435068	119.277622
862.658961	121.554545
864.884266	124.830769
867.105095	123.854545
869.329296	123.534266
871.549024	126.334266
873.770162	124.759441
875.990750	129.083916
878.208829	128.435664
880.428317	131.139860
882.643339	130.184615
884.857814	133.739161
887.071740	130.036364
889.285120	126.612587
891.497952	123.981119
893.710238	124.248252
895.920021	127.541958
898.129259	130.274825
900.337952	129.109091
902.544146	129.719580
904.751749	128.612587
906.956854	129.981818
909.161416	124.169231
911.363483	127.385315
913.566959	121.146853
915.767941	126.635664
917.968381	133.757343
920.170230	143.885315
922.365688	152.069930
924.564505	161.682517
926.758883	173.251049
928.956619	191.830769
931.149919	220.604196
933.344628	246.890909
935.536851	270.520280
937.728535	296.716084
939.919682	313.965035
942.108346	329.844056
944.296474	343.302797
946.482121	349.032168
948.671120	351.662238
950.855696	346.402797
953.039737	344.498601
955.227128	342.979021
957.406215	349.273427
959.588653	350.260839
961.770557	356.567832
963.949986	365.769930
966.126943	368.297902
968.305308	371.104895
970.485080	383.437063
972.658503	384.804895
974.835272	384.655245
977.007634	378.619580
979.181404	372.847552
981.350770	366.799301
983.523480	365.201399
985.693725	354.576224
987.863441	341.562238
990.032628	328.395105
992.197418	307.809091
994.365549	284.565035
996.529286	266.704895
998.694429	244.947552
1000.857113	227.555944
1003.019272	210.126573
1005.178974	203.351748
1007.338151	200.752448
1009.498735	203.018182
1011.656865	200.300699
1013.814470	196.565734
1015.971552	208.693706
1018.128110	204.279720
1020.280289	200.630070
1022.433875	200.139161
1024.586939	191.543357
1026.737554	187.326573
1028.889576	171.395804
1031.037224	162.555245
1033.188204	154.751049
1035.334813	152.880420
1037.480903	140.943357
1039.626475	149.244056
1041.773452	164.386014
1043.914140	171.497203
1046.058158	180.746853
1048.199735	184.024476
1050.340796	182.858042
1052.483261	187.482517
1054.619447	177.188112
1056.758958	165.548951
1058.894115	168.441259
1061.032596	165.153147
1063.166723	159.220979
1065.300337	176.844755
1067.435356	184.405594
1069.566025	183.705594
1071.698099	180.662238
1073.827744	185.163636
1075.956877	180.020280
1078.085498	175.943357
1080.213608	175.733566
1082.339292	172.841259
1084.464466	166.574126
1086.591044	158.251049
1088.713284	154.203497
1090.836929	153.805594
1092.956239	146.976923
1095.080779	135.130769
1097.199073	138.644755
1099.318772	140.102098
1101.436052	141.567832
1103.552826	139.674126
1105.669093	149.327972
1107.782944	145.678322
1109.898200	137.631469
1112.009132	137.920979
1114.123377	139.390909
1116.233301	145.347552
1118.344629	143.242657
1120.455452	135.998601
1122.561959	141.650350
1124.671776	147.776224
1126.777278	151.094406
1128.884183	143.220979
1130.984873	144.316084
1133.090775	138.090909
1135.192368	143.172028
1137.295364	138.423077
1139.397859	139.120280
1141.494147	135.774825
1143.595643	124.009790
1145.692835	113.157343
1147.789530	114.014685
1149.885726	105.847552
1151.981425	100.660839
1154.076625	96.381818
1156.169429	91.941958
1158.263636	93.805594
1160.351651	94.244056
1162.444864	99.756643
1164.531889	105.560839
1166.622213	110.093007
1168.708250	114.045455
1170.797584	115.649650
1172.880737	115.908392
1174.965292	105.620979
1177.051249	112.054545
1179.132924	109.200699
1181.216001	103.735664
1183.296692	101.743357
1185.376891	97.195804
1187.456599	105.117483
1189.535816	106.820280
1191.612651	116.248252
1193.687105	118.673427
1195.764850	115.335664
1197.838326	114.020979
1199.913202	108.849650
1201.983811	114.733566
1204.055821	114.557343
1206.125456	113.534965
1208.196491	108.670629
1210.267038	107.577622
1212.333324	103.558042
1214.401011	104.686014
1216.466326	102.358741
1218.533041	93.756643
1220.595500	91.330769
1222.661244	97.006294
1224.722734	99.972028
1226.785625	103.693706
1228.846148	109.179720
1230.906187	113.049650
1232.965744	108.369231
1235.022935	103.462937
1237.079645	97.832867
1239.133991	97.553147
1241.191619	89.741958
1243.246884	86.046853
1245.297908	83.967832
1247.350332	82.758741
1249.402276	86.828671
1251.451862	89.643357
1253.500969	92.958042
1255.549598	98.645455
1257.597748	93.456643
1259.645419	91.605594
1261.688860	98.357343
1263.735577	102.500699
1265.779940	100.668531
1267.823827	98.855944
1269.865362	95.362238
1271.904548	92.736364
1273.947007	96.337063
1275.985243	100.676224
1278.024878	97.506294
1280.064038	101.926573
1282.098979	96.591608
1284.135319	94.709790
1286.169315	96.874825
1288.204708	94.827972
1290.235889	94.125175
1292.268467	93.688112
1294.300574	95.397203
1296.330340	95.707692
1298.361504	98.790909
1300.388460	105.510490
1302.416814	106.176923
1304.440963	112.562238
1306.468378	112.960839
1308.491590	111.425874
1310.516200	111.773427
1312.538476	109.481818
1314.562149	106.050350
1316.583489	102.220280
1318.604361	100.275524
1320.624766	96.593706
1322.640978	93.006294
1324.658587	91.196503
1326.673868	89.954545
1328.692408	91.845455
1330.706759	94.506294
1332.718784	96.465734
1334.734066	98.001399
1336.745163	91.803497
1338.757657	87.427972
1340.765968	89.069231
1342.777534	92.248252
1344.783062	90.730070
1346.791845	88.736364
1348.796450	88.729371
1350.804309	93.794406
1352.811706	92.292308
1354.813072	95.728671
1356.815834	96.964336
1358.818137	96.076224
1360.819980	92.479021
1362.821363	88.765734
1364.820433	92.925175
1366.819044	93.269930
1368.817197	86.623077
1370.814891	86.166434
1372.808423	86.509091
1374.803351	87.160140
1376.797821	84.968531
1378.791835	87.004895
1380.783542	88.932168
1382.774794	92.370629
1384.763740	94.676224
1386.754081	91.520280
1388.743967	92.717483
1390.731549	90.937063
1392.718678	88.109091
1394.703505	86.725874
1396.689727	82.336364
1398.673649	79.402098
1400.657118	75.527972
1402.640134	75.214685
1404.620853	76.111189
1406.602966	75.769231
1408.582783	76.489510
1410.562148	78.393706
1412.537375	84.006993
1414.515840	86.782517
1416.492012	87.030769
1418.467735	84.784615
1420.443008	85.355944
1422.415990	81.513986
1424.388524	84.696503
1426.360610	91.079021
1428.332249	90.212587
1430.299759	90.520979
1432.272343	91.132867
1434.237122	95.270629
1436.206972	95.387413
1438.172699	88.584615
1440.139818	88.361538
1442.104654	88.913986
1444.065370	88.975524
1446.031154	90.244755
1447.990983	98.791608
1449.952206	99.220280
1451.914821	95.788112
1453.873321	95.756643
1455.831378	91.271329
1457.788994	88.723776
1459.746167	83.318182
1461.701065	79.183217
1463.657356	84.275524
1465.611372	85.416084
1467.564947	85.117483
1469.516250	87.626573
1471.468946	90.479021
1473.419369	87.526573
1475.369354	91.444056
1477.318900	99.300000
1479.266177	97.276224
1481.211186	96.373427
1483.157588	93.334266
1485.103552	89.522378
1487.049079	92.490210
1488.992340	90.203497
1490.935166	88.711189
1492.875728	89.365035
1494.817681	91.452448
1496.757372	92.262937
1498.696629	92.911189
1500.635450	94.476923
1502.572012	90.911189
1504.509965	92.920280
1506.445659	91.504196
1508.380920	92.165035
1510.313925	93.453147
1512.246497	91.648951
1514.178637	89.914685
1516.110345	90.986713
1518.039799	90.976923
1519.970644	90.615385
1521.901057	85.096503
1523.827398	86.079021
1525.755130	86.397902
1527.680611	91.697902
1529.605663	91.183916
1531.530286	87.953147
1533.454480	86.737063
1535.376426	83.953147
1537.299763	87.000000
1539.220853	89.490210
1541.139700	92.881818
1543.059935	91.003497
1544.977928	89.680420
1546.895494	91.694406
1548.810818	93.695804
1550.727532	96.578322
1552.640191	89.516084
1554.556054	86.722378
1556.469677	93.559441
1558.381062	87.809091
1560.293837	91.530769
1562.202562	90.071329
1564.112676	88.522378
1566.022367	83.258741
1567.931635	83.279021
1569.838669	87.237762
1571.743470	88.334266
1573.649660	87.145455
1575.553618	80.763636
1577.457155	88.008392
1579.360272	86.789510
1581.261159	86.340559
1583.163435	91.471329
1585.063483	94.479021
1586.964918	100.001399
1588.862320	101.193007
1590.759303	98.139860
1592.655868	97.731469
1594.553821	92.266434
1596.445939	84.081119
1598.341250	77.090210
1600.236144	79.672028
1602.128816	72.851748
1604.021071	70.718881
1605.911107	70.317483
1607.800727	73.045455
1609.689932	87.381119
1611.578722	92.920979
1613.465294	97.299301
1615.353254	102.944755
1617.237197	108.608392
1619.122527	115.753846
1621.007444	123.231469
1622.890147	125.400699
1624.774237	121.365035
1626.654315	111.054545
1628.535781	111.399301
1630.415036	106.633566
1632.295677	105.586713
1634.170514	97.346853
1636.050332	90.978322
1637.926146	86.395804
1639.801549	93.360140
1641.678338	92.393007
1643.549331	92.201399
1645.423505	89.504196
1647.293680	96.150350
1649.167037	100.599301
1651.038190	107.313986
1652.907141	104.764336
1654.777477	107.593706
1656.643821	105.492308
1658.511550	99.007692
1660.377080	103.669930
1662.243996	100.787413
1664.106923	91.916783
1665.971235	90.748252
1667.833351	84.934965
1669.695062	88.696503
1671.558159	96.118881
1673.419060	100.383916
1675.277769	95.940559
1677.136074	100.441259
1678.995764	93.809091
1680.849686	90.445455
1682.706782	95.888811
1684.563475	90.900699
1686.416191	98.565035
1688.272079	101.995105
1690.123993	97.856643
1691.975506	109.454545
1693.826618	117.060140
1695.677330	112.243357
1697.527641	111.045455
1699.375767	105.913287
1701.225278	98.084615
1703.069040	102.544056
1704.917751	103.141259
1706.760716	106.128671
1708.606848	110.968531
1710.449017	113.291608
1712.294352	112.841958
1714.133946	115.618182
1715.974924	110.922378
1717.817285	110.920979
1719.655690	118.254545
1721.495478	111.658741
1723.333091	113.055944
1725.170308	111.141958
1727.005352	104.880420
1728.841779	104.963636
1730.676034	106.262238
1732.509894	103.046154
1734.343360	106.232867
1736.172881	102.059441
1738.005560	108.719580
1739.834295	111.067133
1741.666187	106.631469
1743.494137	105.779720
1745.321696	102.563636
1747.148862	94.860839
1748.975637	96.399301
1750.802020	103.224476
1752.624467	113.374825
1754.450069	112.639860
1756.271736	124.349650
1758.094785	121.803497
1759.915672	125.411189
1761.736171	115.192308
1763.558051	111.244056
1765.374231	120.129371
1767.193563	122.989510
1769.008968	121.258741
1770.827523	113.198601
1772.642153	119.017483
1774.456396	112.940559
1776.270253	106.626573
1778.083723	109.313986
1779.895040	110.340559
1781.707737	108.141259
1783.520049	103.296503
1785.328443	105.731469
1787.138217	117.724476
1788.944077	123.156643
1790.753082	118.188112
1792.558174	109.856643
1794.364647	111.503497
1796.170736	111.279021
1797.972914	116.162937
1799.778237	121.480420
1801.579651	125.809091
1803.382445	124.104895
1805.181333	120.439860
1806.981602	119.482517
1808.781489	122.069231
1810.579234	111.785315
1812.376599	98.387413
1814.173584	94.835664
1815.970188	88.353846
1817.764653	80.727273
1819.560497	70.427972
1821.350686	63.072727
1823.145772	70.113986
1824.935206	78.460839
1826.727776	86.208392
1828.518211	98.448951
1830.306512	108.255245
1832.097948	107.431469
1833.883738	114.090909
1835.670908	124.558042
1837.455946	122.427972
1839.244118	115.523776
1841.028404	108.001399
1842.810560	100.976923
1844.594096	99.149650
1846.375503	93.912587
1848.158289	92.388112
1849.937194	94.447552
1851.717479	96.152448
1853.495637	93.837762
1855.275174	103.694406
1857.052586	113.658741
1858.827874	116.839860
1860.604540	120.061538
1862.379084	117.711189
1864.155006	110.481818
1865.925307	96.055944
1867.698736	86.841259
1869.470045	86.113287
1871.240983	88.641259
1873.013299	89.965035
1874.780001	97.971329
1876.549829	105.754545
1878.315793	111.855245
1880.084880	110.064336
1881.850106	115.988112
1883.614964	113.835664
1885.381199	104.058042
1887.143575	94.793007
1888.905584	91.888112
1890.667225	93.347552
1892.428500	94.768531
1894.189407	93.609091
1895.949948	96.237762
1897.708379	92.378322
1899.466444	94.904196
1901.222402	89.733566
1902.979736	88.993007
1904.736705	89.786014
1906.491567	90.095105
1908.244325	94.304196
1909.996718	94.866434
1911.750488	93.241259
1913.502154	95.708392
1915.251718	93.636364
1917.002657	87.025874
1918.753234	90.052448
1920.499971	91.534266
1922.248085	86.601399
1923.994099	84.495804
1925.741488	84.234266
1927.486780	89.353147
1929.229974	94.874126
1930.974543	90.569930
1932.717017	93.467832
1934.459130	97.964336
1936.200883	98.517133
1937.942276	96.558042
1939.681576	98.563986
1941.420517	96.192308
1943.159099	91.331818
1944.895590	82.332168
1946.631723	76.024126
1948.369230	75.137762
1950.102915	74.920629
1951.837975	68.552448
1953.570946	73.625524
1955.303561	75.555245
1957.035820	84.180070
1958.767722	89.506294
1960.497538	93.428671
1962.225269	101.749650
1963.954375	99.003497
1965.683126	96.327972
1967.409793	93.425874
1969.136106	94.128671
1970.863792	98.016783
1972.585942	93.309790
1974.311193	91.720979
1976.032637	84.723776
1977.757182	88.737063
1979.479646	85.060839
1981.198308	86.023077
1982.920068	89.647552
1984.638026	87.130070
1986.357357	85.892308
1988.072889	87.497902
1989.793241	85.681818
1991.509795	90.897902
1993.222552	90.031469
1994.938405	85.495105
1996.652186	83.189510
1998.365617	84.230070
2000.076977	83.006993
2001.789709	85.939161
2003.498651	92.107692
2005.210685	90.334965
2006.917211	88.246853
2008.626828	88.715385
2010.334379	82.609790
2012.041581	88.604895
2013.746718	87.825874
2015.451509	87.120979
2017.157671	85.293706
2018.860051	84.911888
2020.563802	81.742657
2022.265491	82.930769
2023.966835	88.488811
2025.667833	84.082517
2027.366770	84.442657
2029.067079	82.625175
2030.763613	76.354545
2032.461518	71.494406
2034.157364	65.547552
2035.856296	60.941259
2037.549742	62.293706
2039.244559	64.980420
2040.939034	65.120979
2042.629740	73.544755
2044.323530	85.162238
2046.013553	85.427273
2047.704947	92.162937
2049.394288	91.383217
2051.084999	91.460140
2052.771947	88.705594
2054.458556	86.674825
2056.146534	91.908392
2057.830753	97.706993
2059.516343	96.982517
2061.201593	93.148951
2062.884794	93.794406
2064.569366	97.513287
2066.248475	93.632867
2067.932369	92.505594
2069.610802	88.373427
2071.292313	88.104196
2072.970072	88.761538
2074.647495	84.376923
2076.326287	86.741958
2078.003037	80.881818
2079.677745	78.796503
2081.353822	77.202797
2083.027859	79.888112
2084.701560	85.274126
2086.374926	84.593007
2088.046253	85.030070
2089.717246	87.969231
2091.387905	86.883217
2093.058230	87.872028
2094.728221	86.808392
2096.396176	90.055944
2098.063798	86.823776
2099.729385	88.146154
2101.396341	88.540559
2103.061264	90.548252
2104.725855	88.881818
2106.388414	89.697902
2108.052341	87.860140
2109.714237	89.023776
2111.375803	88.460839
2113.037037	90.338462
2114.696243	91.801399
2116.355118	90.475524
2118.013664	91.823077
2119.671880	89.251049
2121.326372	90.171329
2122.983929	88.760839
2124.641157	84.372727
2126.294663	90.577622
2127.949537	91.576923
2129.600692	96.267133
2131.254910	97.193007
2132.905411	93.628671
2134.557278	85.193706
2136.203737	87.444056
2137.854951	88.495804
2139.502451	80.109091
2141.151318	80.226573
2142.798166	78.497203
2144.444689	82.405594
2146.090886	89.459441
2147.733375	92.589510
2149.378922	92.744056
2151.020762	98.620979
2152.665659	96.916783
2154.306850	94.427273
2155.947719	98.641259
2157.588263	91.711189
2159.226795	90.769930
2160.866693	90.089510
2162.502891	90.358741
2164.140455	86.017483
2165.777697	85.302797
2167.412929	86.426573
2169.047840	91.634965
2170.682428	97.677622
2172.316696	94.161538
2173.947270	92.889510
2175.580896	95.746154
2177.210830	91.789510
2178.842129	96.296503
2180.471423	88.314685
2182.100398	86.691608
2183.729053	82.499301
2185.357389	86.398601
2186.983723	91.232867
2188.609738	95.496503
2190.233751	93.469231
2191.859130	99.646853
2193.482508	102.051748
2195.107251	103.047552
2196.728313	97.151748
2198.349058	97.344056
2199.971168	93.011189
2201.591280	86.901399
2203.209395	83.967133
2204.827195	84.627273
2206.444680	81.640559
2208.061849	77.610490
2209.678703	77.342657
2211.295241	80.760839
2212.909787	80.341259
2214.522340	82.089510
2216.136257	90.477622
2217.748183	97.707692
2219.361472	99.825175
2220.972771	92.057343
2222.582080	94.279720
2224.192753	95.976224
2225.801437	92.066434
2227.409808	90.634965
2229.016193	84.671329
2230.623941	85.086014
2232.229702	82.855944
2233.835152	90.542657
2235.438617	95.513287
2237.043445	96.588811
2238.646289	97.681818
2240.247150	96.486014
2241.849374	100.793706
2243.449616	104.997203
2245.051220	100.974126
2246.649171	97.889510
2248.248485	89.681818
2249.845819	93.523077
2251.442845	88.722378
2253.041233	88.955245
2254.635972	80.613986
2256.228734	81.508392
2257.822859	76.562238
2259.418345	77.858741
2261.010186	83.084615
2262.601721	87.188811
2264.194618	88.413986
2265.782205	98.528671
2267.374488	104.641958
2268.961465	110.467133
2270.551469	113.265035
2272.136169	111.320280
2273.725563	107.698601
2275.309655	102.520979
2276.895107	89.886014
2278.478591	85.018881
2280.065100	79.664336
2281.647976	77.519580
2283.230549	77.557692
2284.812818	79.217483
2286.391457	74.043007
2287.973121	71.230070
2289.551156	74.039510
2291.132214	81.088112
2292.709645	83.723427
2294.285113	83.223776
2295.863603	91.105245
2297.438469	101.190210
2299.013034	104.661888
2300.587299	113.838462
2302.161263	111.965385
2303.734926	109.510490
2305.308290	106.609091
2306.878035	103.349650
2308.447481	104.147552
2310.019945	108.841958
2311.587135	105.140559
2313.157343	101.555245
2314.723936	104.431469
2316.291889	98.062937
2317.857886	85.039161
2319.423586	82.700000
2320.988988	80.288112
2322.552437	78.699301
2324.117245	81.807692
2325.678445	87.375524
2327.242659	95.140559
2328.801611	100.699301
2330.363578	99.447552
2331.923593	91.637762
2333.483314	84.953846
2335.041085	75.981119
2336.598561	70.503497
2338.155743	70.191608
2339.710977	74.503497
2341.265918	73.311888
2342.820564	78.940559
2344.374917	90.645455
2345.928977	97.430070
2347.482742	97.927972
2349.034564	101.286014
2350.584442	96.781119
2352.137328	94.556643
2353.684972	91.420979
2355.235623	91.490909
2356.782683	82.450350
2358.331101	76.812587
2359.879228	76.687413
2361.423766	75.238462
2362.969662	82.635664
2364.513620	87.816084
2366.058935	88.021678
2367.600665	95.393007
2369.143752	98.911189
2370.684903	97.857343
2372.225765	96.735664
2373.766338	96.093007
2375.306622	93.725874
2376.846617	103.448252
2378.383034	112.737762
2379.922452	116.093007
2381.458293	119.317483
2382.995490	117.654545
2384.529112	108.355245
2386.065734	105.683217
2387.600426	102.839860
2389.133188	82.849650
2390.665663	80.830769
2392.196210	73.551049
2393.729755	73.883217
2395.258089	75.270629
2396.787780	81.693007
2398.317184	85.737063
2399.846304	86.674126
2401.375139	93.323776
2402.898768	92.365035
2404.427033	99.726573
2405.950096	105.963636
2407.477792	105.786014
2408.998649	111.510490
2410.524139	106.253846
2412.046068	98.229371
2413.569353	89.411888
2415.090716	96.355944
2416.610160	84.344755
2418.130959	80.076224
2419.649840	78.448252
2421.168438	84.775524
2422.685119	93.523776
2424.203154	101.539161
2425.720908	111.125175
2427.235111	115.763636
2428.749033	118.339161
2430.262675	121.031469
2431.777672	125.044056
2433.289120	121.396503
2434.801923	105.907692
2436.312812	105.379021
2437.823423	89.246853
2439.332122	100.972727
2440.843807	94.106294
2442.351949	96.824476
2443.859813	93.660839
2445.367399	92.009790
2446.871444	94.290210
2448.378474	101.993007
2449.883597	104.776923
2451.388441	99.229371
2452.891379	97.700699
2454.394041	93.118881
2455.896426	86.527273
2457.396906	97.376224
2458.898739	94.551049
2460.398667	83.693007
2461.898320	69.398601
2463.397698	69.033566
2464.895173	70.344755
2466.390746	71.885315
2467.889299	76.964336
2469.384324	82.430070
2470.880701	81.727273
2472.373552	87.681818
2473.867756	92.465734
2475.361686	110.300699
2476.852092	109.580420
2478.345476	94.878322
2479.836962	104.061538
2481.326551	107.277622
2482.815868	106.060839
2484.303289	107.334965
2485.793686	110.406993
2487.280565	107.246853
2488.768795	102.299301
2490.253508	107.040559
2491.737952	102.040559
2493.223746	105.740559
2494.707649	85.405594
2496.192902	83.332867
2497.673022	85.285315
2499.156115	76.415385
2500.637317	70.831469
2502.118250	75.868531
2503.597294	81.499301
2505.076069	83.074126
2506.554576	92.362937
2508.032815	103.813986
2509.510785	106.537762
2510.985250	105.800000
2512.462685	92.074126
2513.936616	83.694406
2515.411897	79.779720
2516.886911	74.372727
2518.358425	79.336364
2519.831288	87.478322
2521.302269	83.962937
2522.774600	85.988811
2524.241817	91.624476
2525.712001	93.371329
2527.180304	102.330070
2528.648342	98.643357
2530.116115	88.182517
2531.583623	85.135664
2533.050866	96.291608
2534.514617	99.486713
2535.979718	105.471329
2537.442942	100.244056
2538.907516	90.259441
2540.368600	81.639161
2541.831034	74.725175
2543.293205	75.747552
2544.751890	82.292308
2546.215147	77.753846
2547.673307	85.820280
2549.132816	89.852448
2550.587231	101.681119
2552.046217	111.192308
2553.503331	113.338462
2554.958574	108.641259
2556.413555	102.066434
2557.866668	88.601399
2559.321129	84.006993
2560.773720	81.842657
2562.226052	74.279720
2563.676517	66.384615
2565.129937	64.877622
2566.578275	59.519580
2568.029569	61.482517
2569.478996	63.647552
2570.924951	71.411888
2572.373861	78.595804
2573.819301	85.953846
2575.266088	89.285315
2576.711013	91.370629
2578.155679	96.376923
2579.601693	95.020979
2581.044241	92.104196
2582.488136	91.899301
2583.928566	86.910490
2585.370343	84.479021
2586.810261	85.764336
2588.251526	87.942657
2589.689329	90.724476
2591.130082	97.357343
2592.565773	96.102098
2594.004413	93.935664
2595.441195	98.072727
2596.876122	92.316084
2598.313996	93.432867
2599.746813	95.921678
2601.180977	92.748951
2602.613287	92.229371
2604.046943	94.606993
2605.478746	89.640559
2606.910295	97.790909
2608.341592	105.980420
2609.771036	100.999301
2611.200228	97.577622
2612.627570	95.232867
2614.056257	84.890210
2615.484693	78.465734
2616.909681	76.117483
2618.336016	63.631469
2619.760502	65.015385
2621.186334	64.157343
2622.608722	64.215385
2624.032456	74.532867
2625.454343	76.892308
2626.875981	79.790909
2628.295773	86.104895
2629.716911	86.865035
2631.137799	87.320280
2632.555249	92.639860
2633.975638	96.595105
2635.392590	98.906294
2636.809293	100.339161
2638.225748	93.613287
2639.641955	84.255944
2641.057914	85.305594
2642.472032	82.232867
2643.885902	81.884615
2645.297934	79.022378
2646.711309	79.434965
2648.121255	81.357343
2649.534137	89.356643
2650.943590	90.370629
2652.352797	93.837063
2653.760168	92.313986
2655.170473	90.483916
2656.578943	88.182517
2657.985577	92.859441
2659.391966	89.339860
2660.796521	94.235664
2662.202420	93.372727
2663.606486	92.479021
2665.010307	82.229371
2666.413884	77.952448
2667.815630	73.753846
2669.218719	70.135664
2670.618390	76.893706
2672.019405	76.478322
2673.417004	76.506294
2674.817533	77.690210
2676.214646	88.986713
2677.613103	104.926573
2679.009733	101.862937
2680.406120	97.384615
2681.802265	95.784615
2683.196585	86.654545
2684.592246	81.920979
2685.984499	80.829371
2687.378094	78.549650
2688.769865	79.367832
2690.162979	77.829371
2691.554269	78.759441
2692.943736	83.476923
2694.332963	85.336364
2695.721951	78.867832
2697.112280	77.139161
2698.497626	69.758741
2699.885895	64.303497
2701.272344	61.647552
2702.658554	64.626573
2704.044525	57.304895
2705.427098	59.855245
2706.811013	56.516783
2708.194690	54.442657
2709.578128	58.810490
2710.958172	66.361538
2712.339556	69.716783
2713.719126	75.690909
2715.100036	74.884615
2716.479132	83.758042
2717.856414	79.097902
2719.235037	82.129371
2720.611847	75.938462
2721.988420	76.044755
2723.364758	70.830769
2724.739285	67.951748
2726.115152	73.646853
2727.487632	76.037063
2728.863028	75.064336
2730.233464	76.420280
2731.605241	78.637063
2732.976783	76.862238
2734.346517	80.069930
2735.717592	88.663636
2737.086858	90.227273
2738.455891	95.093007
2739.823118	97.559441
2741.190112	99.552448
2742.556872	99.353846
2743.923401	89.971329
2745.288124	81.254545
2746.652615	82.449650
2748.016875	79.864336
2749.380902	74.911888
2750.744698	79.591608
2752.105120	75.237762
2753.468452	69.960140
2754.826842	68.628671
2756.188142	72.248252
2757.546072	64.172727
2758.906910	58.058042
2760.265949	52.338462
2761.621619	48.944056
2762.980197	54.109790
2764.335408	55.393706
2765.690390	70.191608
2767.043576	75.176224
2768.399668	77.687413
2769.752395	88.679021
2771.104895	91.346154
2772.457166	90.196503
2773.810776	86.951748
2775.161024	78.910490
2776.509478	72.308392
2777.860838	66.248252
2779.208838	58.260140
2780.558176	54.069231
2781.905722	58.296503
2783.253042	54.873427
2784.600135	60.785315
2785.945437	68.894406
2787.290512	62.605594
2788.635362	62.552448
2789.979986	65.909790
2791.321258	57.695804
2792.663868	68.179021
2794.006252	71.294406
2795.348411	64.281119
2796.687221	61.988112
2798.028931	64.365035
2799.367293	67.858042
2800.706991	64.989510
2802.044905	72.465734
2803.381034	70.874126
2804.716939	73.399301
2806.054182	72.700699
2807.389641	69.906294
2808.724877	79.664336
2810.058330	75.552448
2811.393120	74.827273
2812.724570	75.413287
2814.058915	79.177622
2815.388362	81.234266
2816.719146	84.537762
2818.049708	93.562937
2819.378491	93.805594
2820.708610	92.562937
2822.036951	87.299301
2823.365071	84.892308
2824.691413	85.118182
2826.019092	86.241259
2827.343437	88.540559
2828.669119	87.803497
2829.993025	88.716084
2831.316712	90.751049
2832.641734	89.800699
2833.963426	84.504895
2835.284900	82.160839
2836.606155	77.274126
2837.927191	74.853846
2839.246454	77.082517
2840.567053	77.079021
2841.885881	88.673427
2843.204490	92.100699
2844.521328	92.598601
2845.837949	95.875524
2847.154353	93.962937
2848.468987	92.018881
2849.784957	84.420979
2851.097606	72.164336
2852.411590	62.544056
2853.725358	54.044755
2855.038909	50.209091
2856.350694	50.137762
2857.660712	59.952448
2858.972065	64.063636
2860.280103	63.849650
2861.589475	67.748252
2862.898633	65.889510
2864.207575	75.916084
2865.514753	74.951748
2866.820169	78.760140
2868.126919	79.601399
2869.431906	78.357343
2870.736680	75.071329
2872.039692	81.282517
2873.345585	78.304196
2874.646624	78.452448
2875.948997	75.403497
2877.249610	72.158741
2878.551557	66.745455
2879.853290	73.202797
2881.151720	75.041259
2882.451483	79.525874
2883.749489	76.047552
2885.047283	73.508392
2886.343321	75.503497
2887.640692	75.972028
2888.936307	71.790210
2890.231711	74.278322
2891.526904	73.940559
2892.818800	78.458042
2894.113572	73.753147
2895.405047	74.185315
2896.697855	65.636364
2897.990453	56.145455
2899.279757	54.126573
2900.570393	55.261538
2901.859278	58.587413
2903.149495	56.923776
2904.436421	51.532168
2905.724679	57.674126
2907.011188	57.543357
2908.297489	64.586713
2909.583581	61.068531
2910.867925	64.332867
2912.155140	62.758042
2913.437529	63.579021
2914.721250	69.022378
2916.003225	74.250350
2917.284992	77.481818
2918.565015	85.893706
2919.847907	87.624476
2921.129054	94.042657
2922.406919	82.458042
2923.687653	82.406993
2924.965106	80.031469
2926.242353	82.866434
2927.517858	80.044755
2928.796231	81.995804
2930.069790	76.179021
2931.346216	67.889510
2932.620901	71.734965
2933.893845	75.492308
2935.168121	71.427972
2936.440657	66.811189
2937.712988	71.805594
2938.982047	72.486014
2940.253971	77.295804
2941.524157	78.811189
2942.794139	75.366434
2944.063918	76.830769
2945.331961	68.628671
2946.598267	62.770629
2947.864372	64.494406
2949.131806	60.253147
2950.397506	57.683217
2951.663003	61.141958
2952.928298	66.201399
2954.190328	57.777622
2955.453688	65.401399
2956.716847	66.883217
2957.978274	71.642657
2959.241030	75.716084
2960.502054	77.516783
2961.761348	79.812587
2963.020442	77.281119
2964.279335	75.595105
2965.538028	74.598601
2966.796521	63.648252
2968.053285	61.164336
2969.309849	55.124476
2970.564686	55.369930
2971.820851	56.155944
2973.073762	62.251049
2974.328002	64.036364
2975.582043	68.274825
2976.834358	72.432867
2978.086474	74.383916
2979.336866	74.909091
2980.590113	73.765035
2981.838583	67.630070
2983.089908	78.701399
2984.337983	79.003497
2985.585862	79.220280
2986.833543	77.520280
2988.081027	81.489510
2989.326790	87.332168
2990.572357	85.860140
2991.819251	81.174825
2993.062901	74.966434
2994.307879	64.111189
2995.549613	54.309091
2996.794199	48.296503
2998.037066	49.243357
2999.276692	48.927273
3000.519168	49.083217
3001.758404	46.536364
3002.998968	57.626573
3004.237816	59.130070
3005.476468	57.950350
3006.713406	59.039860
3007.951670	55.523776
3009.188219	56.032168
3010.424575	56.691608
3011.660737	56.253846
3012.895185	60.753846
3014.129441	60.978322
3015.363503	58.218881
3016.595853	56.149650
3017.826491	61.335664
3019.059975	62.759441
3020.291747	64.288811
3021.521809	65.165734
3022.751679	62.938462
3023.979839	66.137063
3025.209325	62.602098
3026.437102	64.051748
3027.664688	63.119580
3028.893601	60.347552
3030.117771	62.875524
3031.344784	68.428671
3032.568573	76.544056
3033.793689	85.919580
3035.017098	82.576923
3036.240317	91.858042
3037.461831	85.798601
3038.686186	81.739860
3039.905806	73.004196
3041.126752	69.127273
3042.347509	62.503497
3043.566562	55.625175
3044.786940	52.562937
3046.004102	43.305594
3047.222590	45.132168
3048.439375	50.430070
3049.655973	56.794406
3050.872382	69.487413
3052.085579	69.686713
3053.301613	72.991608
3054.514435	76.982517
3055.730094	82.609790
3056.941030	84.594406
3058.153291	69.888112
3059.365366	66.803497
3060.577253	53.506993
3061.787444	52.165035
3062.997448	49.903497
3064.207266	50.244056
3065.415388	49.402797
3066.623325	47.501399
3067.829566	49.069231
3069.037132	58.910490
3070.243003	66.237063
3071.448690	69.105594
3072.654191	66.380420
3073.857999	70.097203
3075.063131	63.362937
3076.266570	58.660839
3077.468318	53.234266
3078.669881	53.009091
3079.871261	56.623776
3081.072457	57.951049
3082.271963	60.186014
3083.471286	66.713287
3084.671932	68.028671
3085.870888	68.487413
3087.066650	69.520979
3088.265241	61.917483
3089.460638	59.994406
3090.657358	53.269930
3091.850886	54.432867
3093.047242	60.688112
3094.241912	64.466434
3095.433391	64.141958
3096.629201	69.604895
3097.820318	76.877622
3099.012757	74.872028
3100.202009	75.929371
3101.394086	75.431469
3102.584480	67.025175
3103.771688	66.495804
3104.960219	58.431469
3106.150071	53.927972
3107.336740	46.862937
3108.523228	40.326573
3109.709538	39.411189
3110.897169	41.176923
3112.081618	38.014685
3113.264388	37.690210
3114.449980	48.027273
3115.633893	55.590909
3116.816127	61.069231
3117.998182	66.877622
3119.180059	71.047552
3120.361758	71.396503
3121.541780	71.200000
3122.720125	70.795105
3123.901290	71.839161
3125.079280	64.295105
3126.257094	57.704895
3127.434730	56.830769
3128.610691	62.360140
3129.786475	63.563636
3130.963581	60.279720
3132.139012	56.926573
3133.312770	54.023077
3134.484855	45.331469
3135.658262	43.041259
3136.831492	42.183916
3138.003051	42.247552
3139.175930	42.367133
3140.345642	49.334266
3141.516675	55.177622
3142.686038	60.959441
3143.853730	67.644755
3145.024238	70.916783
3146.190088	69.865734
3147.360246	63.978322
3148.525748	56.925175
3149.691075	58.162937
3150.856229	57.868531
3152.021210	53.404895
3153.187510	53.594406
3154.349158	49.486014
3155.512125	47.434965
3156.674920	44.938462
3157.837542	53.103497
3158.998499	49.862238
3160.159283	52.713287
3161.319895	51.244755
3162.478843	53.377622
3163.637620	55.967832
3164.796225	62.618182
3165.954657	62.073427
3167.112919	63.465734
3168.269518	54.086014
3169.424456	50.640559
3170.580713	45.753147
3171.735309	49.297902
3172.889735	45.455245
3174.042501	51.391608
3175.195096	45.639860
3176.347522	45.961538
3177.499778	45.206993
3178.651863	51.649650
3179.800803	51.684615
3180.952549	53.432867
3182.102637	51.275524
3183.251069	53.000699
3184.399331	51.918182
3185.547425	59.906294
3186.695350	55.574825
3187.841619	57.265035
3188.987720	54.261538
3190.132167	54.872727
3191.276446	55.157343
3192.420557	56.779021
3193.565985	52.221678
3194.708275	52.679021
3195.850398	53.663636
3196.992353	51.178322
3198.134141	45.876224
3199.275762	48.039860
3200.414248	41.127972
3201.554051	42.681119
3202.695172	43.692308
3203.833158	42.850350
3204.969495	42.956643
3206.105666	43.853846
3207.243154	43.775524
3208.378994	46.212587
3209.516151	48.455944
3210.648695	44.200000
3211.785521	41.470629
3212.917735	39.050350
3214.051266	37.963636
3215.184633	34.476923
3216.314872	34.420979
3217.447909	31.913287
3218.577820	33.774126
3219.709047	35.945455
3220.837150	39.841259
3221.968049	43.118881
3223.097304	47.213986
3224.224916	46.226573
3225.349405	45.846154
3226.478170	44.006294
3227.603813	46.527972
3228.729294	44.582517
3229.853133	45.664336
3230.979766	46.311189
3232.101802	51.098601
3233.225154	49.780420
3234.348344	48.246853
3235.471372	45.123776
3236.592760	48.722378
3237.713986	49.506294
3238.833575	45.981818
3239.953002	48.776923
3241.070791	49.937063
3242.191372	47.299301
3243.308840	52.487413
3244.426147	54.395804
3245.543294	54.539161
3246.658805	48.814685
3247.775630	45.932867
3248.889346	41.541958
3250.005851	46.040559
3251.120722	47.306993
3252.232484	47.757343
3253.344086	50.764336
3254.457004	54.888811
3255.569762	59.244755
3256.679414	58.302098
3257.790381	57.427972
3258.901189	61.953846
3260.010365	58.330070
3261.117911	55.480420
3262.226770	48.340559
3263.335472	50.220280
3264.441071	43.527273
3265.547984	36.454545
3266.653268	33.089510
3267.759866	41.612587
3268.863364	38.187413
3269.968177	34.371329
3271.072832	46.411189
3272.174388	55.475524
3273.275788	54.075524
3274.378502	56.641259
3275.481060	56.687413
3276.580521	55.194406
3277.682766	56.354545
3278.781915	51.141259
3279.879440	53.501399
3280.976809	53.638462
3282.076960	39.420280
3283.174019	35.023776
3284.270922	31.457343
3285.367670	29.769930
3286.459860	29.225874
3287.556298	31.306993
3288.651114	34.879021
3289.745776	40.368531
3290.838816	53.755944
3291.931701	49.587413
3293.022967	50.630769
3294.115544	52.625874
3295.206502	50.854545
3296.295840	53.892308
3297.385025	54.383916
3298.475523	56.851049
3299.562936	60.842657
3300.650196	63.706294
3301.738769	60.359441
3302.827190	54.624476
3303.911063	47.320979
3304.999178	36.208392
3306.084211	24.782517
3307.167629	21.693007
3308.252359	19.046853
3309.335473	14.363636
3310.419900	14.231469
3311.501248	12.897203
3312.583908	24.033566
3313.664954	30.339860
3314.745849	29.167832
3315.825130	31.934965
3316.904261	36.386713
3317.984704	38.706294
3319.062072	41.759441
3320.140752	42.984615
3321.217820	47.279720
3322.294739	46.790909
3323.370046	48.575524
3324.445204	45.769930
3325.521673	52.472028
3326.595072	53.755245
3327.668322	48.655245
3328.742882	46.800000
3329.815834	46.588811
3330.887177	45.387413
3331.959831	45.035664
3333.029419	46.639860
3334.100317	48.855944
3335.169608	50.625175
3336.240210	50.074126
3337.309205	50.376923
3338.376594	53.883217
3339.442378	52.388112
3340.512388	44.853846
3341.579335	43.753846
3342.643220	42.684615
3343.709873	38.016084
3344.774921	34.981818
3345.838366	41.049650
3346.901665	41.858042
3347.964817	48.007692
3349.027823	49.549650
3350.090683	49.362937
3351.151941	51.795804
3352.210142	48.754545
3353.272563	43.890909
3354.331929	41.758741
3355.391149	35.430070
3356.451679	29.853846
3357.507699	29.546853
3358.566483	35.831469
3359.620760	40.722378
3360.677801	45.238462
3361.733243	50.595105
3362.789995	49.144755
3363.845148	56.500699
3364.898704	58.821678
3365.950664	57.489510
3367.005385	51.039161
3368.057057	51.232168
3369.108586	46.874126
3370.161423	47.678322
3371.211213	48.943357
3372.262312	52.665035
3373.310365	51.737063
3374.361177	55.266434
3375.408945	54.779720
3376.456570	53.483217
3377.504052	55.610490
3378.549942	46.325874
3379.597140	40.067832
3380.641296	42.017483
3381.688210	34.076923
3382.733532	35.876923
3383.775813	35.294406
3384.817954	39.530070
3385.861402	49.170629
3386.904709	56.879021
3387.946427	63.942657
3388.988003	60.774126
3390.029438	61.692308
3391.069285	51.578322
3392.107543	46.711888
3393.147109	47.000000
3394.186535	39.065035
3395.224373	37.383916
3396.260624	35.166434
3397.296736	35.248951
3398.334155	45.788811
3399.368541	42.602098
3400.404234	50.258741
3401.439788	55.232867
3402.472311	58.502098
3403.507587	63.206993
3404.539832	59.857343
3405.571939	60.202098
3406.602462	52.886713
3407.634292	49.710490
3408.665984	48.574825
3409.694648	46.981818
3410.723175	45.857343
3411.753008	35.853846
3412.782704	42.270629
3413.809374	40.312587
3414.837351	43.119580
3415.862303	44.454545
3416.890005	38.676923
3417.914684	34.981119
3418.940669	32.916084
3419.965074	33.473427
3420.989343	36.259441
3422.012033	29.628671
3423.034587	28.041958
3424.058447	25.701399
3425.079287	33.100000
3426.099991	38.345055
3427.122002	43.410989
3428.140994	47.505495
3429.159850	49.836264
3430.180013	49.610989
3431.197159	46.037363
