-118.059454	-9.381868
-115.389854	1.545055
-112.723189	8.696503
-110.057276	12.664436
-107.394295	14.040809
-104.729885	13.417582
-102.068405	11.386713
-99.405496	9.971329
-96.747693	6.472727
-94.088461	3.069930
-91.429977	2.437063
-88.774417	-0.371329
-86.117429	0.330769
-83.465539	-0.250350
-80.812218	1.700000
-78.161818	4.281818
-75.509988	4.097902
-72.863249	1.998601
-70.215081	1.688811
-67.567655	2.341259
-64.923143	1.079021
-62.277203	-2.796503
-59.636344	-2.056643
-56.994056	-0.989510
-54.354677	1.790210
-51.713868	5.140559
-49.073800	6.380420
-46.438804	5.936364
-43.802380	6.738462
-41.168858	7.999301
-38.533908	8.749650
-35.904023	10.436364
-33.270546	10.946853
-30.642131	7.316084
-28.014450	9.196503
-25.385340	9.001399
-22.761287	-7.504895
-20.133645	-83.674825
-17.511056	-214.218182
-14.889199	-314.583217
-12.268072	164.158042
-9.647675	1053.409091
-7.030167	1795.536364
-4.411230	2320.059441
-1.795178	2621.631469
0.820145	2697.267832
3.434741	2550.730769
6.046454	2178.389510
8.659596	1593.088811
11.267704	835.802797
13.879394	70.044056
16.486053	-422.193007
19.094140	-285.603497
21.701503	-27.569930
24.303841	1.111189
26.909757	-0.231469
29.510651	0.810490
32.112973	3.023077
34.710278	3.808392
37.311158	8.132168
39.907023	8.862937
42.504317	11.547552
45.100891	5.024476
47.692456	1.581818
50.285449	1.460839
52.875581	-0.395804
55.467141	-0.935664
58.055841	1.270629
60.645968	4.653147
63.231096	4.961538
65.817652	5.867133
68.403494	8.932867
70.986482	5.320280
73.570896	3.390210
76.148182	-3.055245
78.729034	-5.144755
81.307037	-5.052448
83.884330	-1.716783
86.463049	-1.979021
89.036786	-0.470629
91.611951	-1.571329
94.184272	-5.182517
96.755885	-4.228671
99.324658	-0.328671
101.894858	0.997203
104.462220	0.388112
107.031007	0.257343
109.596958	1.069930
112.160074	2.597203
114.726746	7.209091
117.284197	6.478322
119.847333	7.285315
122.405509	9.086014
124.967240	11.049650
127.524014	18.362937
130.082215	30.906993
132.635462	43.593706
135.188012	59.711888
137.744112	78.588112
140.295264	99.196503
142.845719	121.744755
145.395476	140.834266
147.942414	154.314685
150.488657	165.369231
153.036325	169.767832
155.583297	168.818182
158.125334	165.683217
160.666677	162.727972
163.207327	159.247552
165.749403	158.042657
168.288667	157.402098
170.825123	157.208392
173.360887	157.444755
175.898077	158.809091
178.434576	160.767832
180.968269	164.432168
183.499158	166.877622
186.029360	165.348951
188.560986	163.504895
191.089811	161.686713
193.615837	159.190210
196.141177	158.776923
198.667942	157.252448
201.191911	154.842657
203.715195	153.183916
206.237794	157.899301
208.757600	162.004895
211.276723	165.909790
213.795163	167.848252
216.315027	170.520280
218.827890	174.816783
221.344284	178.799301
223.859996	180.490909
226.370818	181.493007
228.883065	183.427273
231.392530	186.076224
233.901316	188.643357
236.409423	189.874825
238.918955	188.994406
241.423606	188.029371
243.927581	188.076923
246.432980	192.685315
248.933504	195.821678
251.437552	197.461538
253.934628	199.516783
256.435228	200.309091
258.933056	204.521678
261.430211	206.904895
263.926693	210.886713
266.418312	211.322378
268.913451	212.954545
271.405823	215.367832
273.897525	216.568531
276.386464	217.665035
278.876827	218.530070
281.364427	220.958042
283.849268	221.379021
286.337624	222.841958
288.819040	226.920979
291.303970	231.799301
293.784055	238.709790
296.267652	246.076224
298.746406	252.490210
301.226584	255.182517
303.704009	253.547552
306.180771	251.834266
308.656870	251.039860
311.130220	251.137063
313.602908	248.286713
316.074935	250.827972
318.546301	252.088112
321.014922	250.716084
323.482885	246.637063
325.952269	244.378322
328.416831	239.885315
330.884897	230.413287
333.348143	223.523077
335.810731	218.374825
338.272663	215.218881
340.733938	211.972727
343.192479	209.014685
345.652442	208.511888
348.109672	207.797902
350.566248	205.059441
353.022170	201.004196
355.475362	200.526573
357.929977	200.293706
360.379790	200.487413
362.833099	204.186014
365.281610	205.027972
367.729469	203.930769
370.178751	201.956643
372.623239	198.576224
375.069149	196.434266
377.514409	195.041259
379.956951	193.037762
382.398845	188.587413
384.840092	188.094406
387.278623	187.610490
389.718576	186.472028
392.155815	185.331469
394.590342	186.057343
397.028357	183.656643
399.461595	182.904895
401.896254	180.537063
404.326141	181.168531
406.759513	182.730070
409.188115	181.631469
411.616075	180.723776
414.045457	183.097902
416.470073	183.045455
418.896111	183.830070
421.321508	185.416783
423.746265	188.687413
426.166264	189.309091
428.587684	192.713986
431.006407	194.996503
433.426551	196.350350
435.844000	194.884615
438.262869	190.150350
440.679045	185.846853
443.090473	181.213986
445.505379	176.227273
447.917594	171.674126
450.329175	165.408392
452.740122	163.295804
455.148383	163.593007
457.556011	163.620280
459.963007	162.482517
462.369372	162.752448
464.773054	163.653147
467.176106	165.252448
469.578528	169.219580
471.980320	174.381119
474.379435	178.569231
476.779969	181.818881
479.179874	185.455245
481.575056	191.716084
483.973705	195.735664
486.367634	199.450350
488.760937	205.815385
491.153614	211.934965
493.545666	217.304895
495.939136	219.504895
498.327894	216.006993
500.713986	184.295105
503.101498	121.387413
505.488387	159.060839
507.872612	603.083916
510.258255	1564.553846
512.641237	2764.716783
515.021558	3838.782517
517.403298	4608.681818
519.782379	5007.690909
522.162879	5019.226573
524.540721	4636.892308
526.915908	3890.466434
529.290477	2845.685315
531.666464	1680.128671
534.039799	714.288811
536.414551	246.999301
538.784618	212.292308
541.154069	289.893706
543.524938	304.590210
545.891127	284.153846
548.258734	260.221678
550.623695	240.274825
552.988043	221.362937
555.351778	208.608392
557.716931	197.082517
560.077412	189.148252
562.439311	183.572727
564.798569	177.440559
567.155190	174.402797
569.515255	171.340559
571.868629	166.128671
574.225448	159.339161
576.579632	152.204196
578.933208	146.295804
581.286175	140.981119
583.636510	135.977622
585.988263	133.962937
588.333339	131.284615
590.683879	132.120979
593.027745	132.060839
595.377073	134.404196
597.721752	135.693706
600.063807	138.993007
602.407279	141.084615
604.748128	142.264336
607.088375	142.555944
609.426001	141.114685
611.767062	140.325175
614.103485	142.299301
616.441325	138.822378
618.776548	136.558741
621.109155	132.697902
623.443178	130.877622
625.774587	129.253846
628.105398	130.953846
630.435612	129.765734
632.765227	128.210490
635.090220	126.404196
637.420653	125.865035
639.746466	123.952448
642.069671	123.355245
644.394293	118.703497
646.716309	115.344056
649.037731	115.115385
651.356551	116.145455
653.676786	118.853846
655.996428	120.905594
658.313469	122.487413
660.629918	123.330070
662.943769	125.024476
665.259036	125.671329
667.571706	124.681119
669.885791	123.894406
672.195276	119.359441
674.506177	116.444755
676.814485	117.419580
679.122205	116.066434
681.431339	113.573427
683.735881	112.934965
686.039837	111.551049
688.343207	110.883217
690.647991	108.930769
692.948189	108.979720
695.249801	108.395105
697.550829	105.251049
699.847274	103.465035
702.145135	103.677622
704.442412	102.501399
706.739106	99.543357
709.031224	97.293007
711.326753	98.041958
713.617708	98.127273
715.910078	98.693706
718.199873	98.458741
720.489087	97.430070
722.777722	99.583217
725.063784	101.046853
727.351261	101.119580
729.636166	102.532867
731.920494	102.692308
734.202253	100.746853
736.485426	100.018881
738.768022	97.739860
741.046062	94.995804
743.325517	93.795804
745.604395	91.516084
747.882699	90.686014
750.156453	91.763636
752.431620	93.031469
754.706214	92.657343
756.978249	95.315385
759.251697	97.532867
761.522587	95.756643
763.790921	99.161538
766.060668	98.096503
768.327861	100.219580
770.594483	105.506294
772.860535	107.342657
775.124036	107.567832
777.388950	105.727273
779.653294	106.108392
781.913109	104.430070
784.174336	100.836364
786.434996	99.755944
788.693110	98.939161
790.948679	101.251748
793.207639	101.731469
795.460100	107.320280
797.717927	115.325874
799.971236	114.872727
802.222005	113.962238
804.474186	116.849650
806.723828	118.116084
808.974883	118.178322
811.221426	116.828671
813.469381	118.822378
815.714802	119.298601
817.961634	115.848951
820.207905	111.290909
822.449671	113.111888
824.694821	113.192308
826.933498	105.232168
829.175557	104.265734
831.413118	106.400699
833.652091	106.479021
835.888537	108.188811
838.126394	111.609091
840.361726	111.551049
842.594535	110.106294
844.828755	108.077622
847.060452	110.340559
849.291595	115.928671
851.522183	115.125175
853.752217	111.946154
855.981697	114.730769
858.206695	116.508392
860.435068	116.800699
862.658961	115.939860
864.884266	115.937762
867.105095	110.420280
869.329296	109.582517
871.549024	110.469231
873.770162	112.104895
875.990750	110.141259
878.208829	106.280420
880.428317	105.991608
882.643339	105.781818
884.857814	108.318881
887.071740	108.567133
889.285120	107.239860
891.497952	109.620280
893.710238	112.555245
895.920021	112.211189
898.129259	116.798601
900.337952	116.979720
902.544146	118.966434
904.751749	118.288112
906.956854	120.104895
909.161416	115.150350
911.363483	111.262238
913.566959	107.623077
915.767941	106.146853
917.968381	107.285315
920.170230	113.187413
922.365688	120.240559
924.564505	137.209091
926.758883	150.498601
928.956619	170.928671
931.149919	193.788112
933.344628	218.427273
935.536851	234.730070
937.728535	253.374126
939.919682	273.166434
942.108346	287.762937
944.296474	294.124476
946.482121	299.155944
948.671120	299.198601
950.855696	292.170629
953.039737	284.193706
955.227128	277.726573
957.406215	275.244755
959.588653	274.175524
961.770557	269.448951
963.949986	276.074825
966.126943	283.460140
968.305308	285.042657
970.485080	287.197902
972.658503	295.290210
974.835272	302.012587
977.007634	304.430769
979.181404	309.550350
981.350770	308.307692
983.523480	304.161538
985.693725	294.864336
987.863441	278.693706
990.032628	262.912587
992.197418	238.588811
994.365549	211.325175
996.529286	194.735664
998.694429	179.517483
1000.857113	168.880420
1003.019272	157.065035
1005.178974	157.502797
1007.338151	159.675524
1009.498735	163.337063
1011.656865	161.874825
1013.814470	159.860140
1015.971552	154.983916
1018.128110	149.286014
1020.280289	147.665035
1022.433875	141.524476
1024.586939	147.343357
1026.737554	150.051049
1028.889576	145.935664
1031.037224	144.608392
1033.188204	147.480420
1035.334813	139.828671
1037.480903	143.702098
1039.626475	139.221678
1041.773452	131.389510
1043.914140	130.700699
1046.058158	135.026573
1048.199735	136.463636
1050.340796	158.169930
1052.483261	156.509091
1054.619447	149.720979
1056.758958	147.780420
1058.894115	147.453147
1061.032596	138.251049
1063.166723	141.677622
1065.300337	134.927972
1067.435356	126.667832
1069.566025	126.882517
1071.698099	127.681119
1073.827744	125.572727
1075.956877	137.902098
1078.085498	138.132867
1080.213608	141.834965
1082.339292	146.158042
1084.464466	140.411189
1086.591044	141.430070
1088.713284	136.793007
1090.836929	136.659441
1092.956239	131.379720
1095.080779	124.943357
1097.199073	116.607692
1099.318772	109.041259
1101.436052	109.551049
1103.552826	108.018182
1105.669093	104.173427
1107.782944	101.509790
1109.898200	97.300000
1112.009132	107.310490
1114.123377	107.769231
1116.233301	106.977622
1118.344629	108.541958
1120.455452	104.823077
1122.561959	109.151049
1124.671776	107.472028
1126.777278	107.009091
1128.884183	107.286014
1130.984873	108.850350
1133.090775	109.332867
1135.192368	111.103497
1137.295364	114.883916
1139.397859	112.967832
1141.494147	110.194406
1143.595643	111.563636
1145.692835	110.481818
1147.789530	109.171329
1149.885726	103.309091
1151.981425	100.662238
1154.076625	99.400000
1156.169429	97.540559
1158.263636	94.031469
1160.351651	92.319580
1162.444864	87.518881
1164.531889	89.648252
1166.622213	91.388811
1168.708250	86.611189
1170.797584	85.273427
1172.880737	80.469930
1174.965292	82.283916
1177.051249	82.214685
1179.132924	87.179021
1181.216001	83.023077
1183.296692	82.083217
1185.376891	76.678322
1187.456599	75.431469
1189.535816	81.786014
1191.612651	80.927273
1193.687105	83.989510
1195.764850	88.915385
1197.838326	88.331469
1199.913202	89.706294
1201.983811	88.774126
1204.055821	90.378322
1206.125456	90.618881
1208.196491	86.787413
1210.267038	81.759441
1212.333324	81.362238
1214.401011	87.096503
1216.466326	84.376923
1218.533041	87.632168
1220.595500	86.491608
1222.661244	81.230769
1224.722734	80.985315
1226.785625	79.597902
1228.846148	81.276224
1230.906187	85.683916
1232.965744	84.231469
1235.022935	86.023077
1237.079645	88.397902
1239.133991	90.952448
1241.191619	89.661538
1243.246884	88.783217
1245.297908	88.679720
1247.350332	84.083916
1249.402276	83.979021
1251.451862	84.290210
1253.500969	84.987413
1255.549598	89.884615
1257.597748	89.732867
1259.645419	88.813986
1261.688860	84.662937
1263.735577	82.062937
1265.779940	82.637762
1267.823827	81.463636
1269.865362	78.218182
1271.904548	76.648951
1273.947007	71.527273
1275.985243	78.038462
1278.024878	79.312587
1280.064038	82.559441
1282.098979	82.297902
1284.135319	86.055245
1286.169315	87.202797
1288.204708	89.806294
1290.235889	97.224476
1292.268467	97.586014
1294.300574	94.975524
1296.330340	93.315385
1298.361504	89.981119
1300.388460	92.607692
1302.416814	88.121678
1304.440963	82.302098
1306.468378	80.159441
1308.491590	76.525874
1310.516200	75.597902
1312.538476	73.353147
1314.562149	79.179720
1316.583489	76.393007
1318.604361	76.836364
1320.624766	78.518182
1322.640978	80.090909
1324.658587	80.535664
1326.673868	78.984615
1328.692408	75.218182
1330.706759	76.017483
1332.718784	72.848252
1334.734066	75.455245
1336.745163	76.341259
1338.757657	80.062238
1340.765968	76.794406
1342.777534	76.869930
1344.783062	75.167832
1346.791845	73.651748
1348.796450	75.023077
1350.804309	75.295105
1352.811706	75.762238
1354.813072	75.748252
1356.815834	71.498601
1358.818137	70.433566
1360.819980	72.120979
1362.821363	74.412587
1364.820433	72.517483
1366.819044	74.354545
1368.817197	75.520280
1370.814891	79.465734
1372.808423	82.580420
1374.803351	86.032168
1376.797821	84.448252
1378.791835	83.970629
1380.783542	85.691608
1382.774794	82.771329
1384.763740	84.877622
1386.754081	87.288811
1388.743967	85.969930
1390.731549	84.361538
1392.718678	81.527972
1394.703505	78.993706
1396.689727	77.104895
1398.673649	74.116084
1400.657118	70.318182
1402.640134	71.025874
1404.620853	73.116783
1406.602966	69.953846
1408.582783	74.939860
1410.562148	76.881818
1412.537375	78.615385
1414.515840	73.797902
1416.492012	74.541958
1418.467735	72.526573
1420.443008	72.098601
1422.415990	71.171329
1424.388524	70.199301
1426.360610	73.141958
1428.332249	71.504196
1430.299759	76.058042
1432.272343	79.841958
1434.237122	83.781119
1436.206972	86.537063
1438.172699	87.775524
1440.139818	91.407692
1442.104654	89.713287
1444.065370	86.050350
1446.031154	83.411189
1447.990983	82.546154
1449.952206	84.454545
1451.914821	78.203497
1453.873321	81.172727
1455.831378	81.618182
1457.788994	81.805594
1459.746167	79.324476
1461.701065	81.095105
1463.657356	74.404196
1465.611372	69.697203
1467.564947	65.257343
1469.516250	69.820280
1471.468946	74.372028
1473.419369	77.916783
1475.369354	77.048252
1477.318900	81.007692
1479.266177	80.817483
1481.211186	79.530070
1483.157588	78.198601
1485.103552	80.704196
1487.049079	76.382517
1488.992340	76.267133
1490.935166	74.088811
1492.875728	77.575524
1494.817681	77.846853
1496.757372	81.730769
1498.696629	83.644755
1500.635450	82.338462
1502.572012	81.637063
1504.509965	82.123776
1506.445659	83.248951
1508.380920	85.809790
1510.313925	83.689510
1512.246497	78.637762
1514.178637	75.544755
1516.110345	74.037762
1518.039799	71.404196
1519.970644	73.163636
1521.901057	76.914685
1523.827398	77.271329
1525.755130	82.430070
1527.680611	83.925175
1529.605663	83.701399
1531.530286	83.059441
1533.454480	84.053147
1535.376426	83.319580
1537.299763	86.255245
1539.220853	83.389510
1541.139700	79.985315
1543.059935	76.990210
1544.977928	81.667133
1546.895494	79.956643
1548.810818	85.162238
1550.727532	85.783217
1552.640191	82.417483
1554.556054	82.358741
1556.469677	87.676224
1558.381062	88.732168
1560.293837	89.872727
1562.202562	88.293706
1564.112676	83.380420
1566.022367	81.143357
1567.931635	85.842657
1569.838669	85.488112
1571.743470	90.757343
1573.649660	86.776923
1575.553618	86.086014
1577.457155	87.027273
1579.360272	86.558042
1581.261159	83.619580
1583.163435	82.330070
1585.063483	80.331469
1586.964918	77.947552
1588.862320	81.169231
1590.759303	84.190210
1592.655868	83.010490
1594.553821	81.404895
1596.445939	77.293706
1598.341250	74.880420
1600.236144	72.423077
1602.128816	66.301399
1604.021071	65.367832
1605.911107	66.044056
1607.800727	63.139860
1609.689932	66.718182
1611.578722	69.337762
1613.465294	72.365035
1615.353254	79.459441
1617.237197	81.339161
1619.122527	82.304196
1621.007444	83.403497
1622.890147	87.139860
1624.774237	90.034266
1626.654315	93.562937
1628.535781	94.753147
1630.415036	92.913986
1632.295677	94.149650
1634.170514	89.344755
1636.050332	96.252448
1637.926146	100.473427
1639.801549	97.264336
1641.678338	94.093007
1643.549331	94.589510
1645.423505	85.850350
1647.293680	78.548252
1649.167037	77.994406
1651.038190	73.569930
1652.907141	70.227273
1654.777477	66.541259
1656.643821	63.624476
1658.511550	65.802797
1660.377080	64.517483
1662.243996	66.190210
1664.106923	69.244755
1665.971235	72.436364
1667.833351	73.590909
1669.695062	80.182517
1671.558159	94.100000
1673.419060	105.736364
1675.277769	114.736364
1677.136074	113.241958
1678.995764	113.061538
1680.849686	111.649650
1682.706782	104.583916
1684.563475	100.372028
1686.416191	101.183916
1688.272079	94.339161
1690.123993	93.791608
1691.975506	86.108392
1693.826618	94.135664
1695.677330	103.689510
1697.527641	95.459441
1699.375767	99.844056
1701.225278	109.557343
1703.069040	107.988112
1704.917751	102.523776
1706.760716	102.239161
1708.606848	98.871329
1710.449017	85.893007
1712.294352	83.910490
1714.133946	73.934266
1715.974924	76.158741
1717.817285	73.204895
1719.655690	74.777622
1721.495478	86.539860
1723.333091	84.212587
1725.170308	86.202797
1727.005352	91.687413
1728.841779	100.149650
1730.676034	101.179720
1732.509894	98.899301
1734.343360	106.102098
1736.172881	101.451748
1738.005560	97.157343
1739.834295	102.137762
1741.666187	110.465734
1743.494137	102.967832
1745.321696	102.171329
1747.148862	107.411888
1748.975637	102.825175
1750.802020	95.408392
1752.624467	93.760140
1754.450069	90.296503
1756.271736	94.066434
1758.094785	92.588112
1759.915672	94.623077
1761.736171	106.569930
1763.558051	118.090909
1765.374231	114.418182
1767.193563	121.966434
1769.008968	117.541259
1770.827523	108.289510
1772.642153	99.067832
1774.456396	104.313986
1776.270253	96.795105
1778.083723	94.475524
1779.895040	98.004895
1781.707737	96.158741
1783.520049	92.940559
1785.328443	94.441259
1787.138217	82.244056
1788.944077	93.020280
1790.753082	94.437063
1792.558174	92.435664
1794.364647	90.002797
1796.170736	88.060140
1797.972914	86.525874
1799.778237	84.879720
1801.579651	92.832168
1803.382445	84.928671
1805.181333	81.320979
1806.981602	85.927273
1808.781489	77.093706
1810.579234	84.174126
1812.376599	82.346154
1814.173584	78.132867
1815.970188	82.115385
1817.764653	82.290909
1819.560497	85.365035
1821.350686	89.727972
1823.145772	92.695804
1824.935206	95.606294
1826.727776	101.230769
1828.518211	99.695804
1830.306512	93.672727
1832.097948	90.796503
1833.883738	87.574126
1835.670908	84.044755
1837.455946	79.382517
1839.244118	71.950350
1841.028404	68.749650
1842.810560	69.065035
1844.594096	62.065035
1846.375503	72.306993
1848.158289	75.145455
1849.937194	78.354545
1851.717479	86.017483
1853.495637	84.955944
1855.275174	86.881119
1857.052586	83.616783
1858.827874	81.931469
1860.604540	79.844056
1862.379084	74.470629
1864.155006	70.195804
1865.925307	68.711189
1867.698736	73.055245
1869.470045	77.396503
1871.240983	84.346853
1873.013299	87.872727
1874.780001	91.386713
1876.549829	100.170629
1878.315793	101.304196
1880.084880	105.139860
1881.850106	102.217483
1883.614964	97.275524
1885.381199	93.837762
1887.143575	83.593706
1888.905584	76.755944
1890.667225	70.090909
1892.428500	68.135664
1894.189407	63.999301
1895.949948	73.620979
1897.708379	85.479021
1899.466444	87.216783
1901.222402	92.318182
1902.979736	93.199301
1904.736705	92.841958
1906.491567	87.534965
1908.244325	76.811888
1909.996718	67.335664
1911.750488	58.242657
1913.502154	56.353147
1915.251718	52.531469
1917.002657	68.356643
1918.753234	72.288811
1920.499971	70.874126
1922.248085	68.575524
1923.994099	71.810490
1925.741488	70.127273
1927.486780	67.341259
1929.229974	64.640559
1930.974543	62.493706
1932.717017	62.304895
1934.459130	61.014685
1936.200883	65.183217
1937.942276	77.411189
1939.681576	77.744056
1941.420517	78.534965
1943.159099	81.221678
1944.895590	87.143357
1946.631723	83.193706
1948.369230	86.360140
1950.102915	83.990909
1951.837975	80.272028
1953.570946	70.687413
1955.303561	65.648951
1957.035820	60.755944
1958.767722	63.330769
1960.497538	65.286014
1962.225269	67.230070
1963.954375	68.033566
1965.683126	70.972028
1967.409793	75.929371
1969.136106	82.844056
1970.863792	82.499301
1972.585942	79.290909
1974.311193	74.621678
1976.032637	71.244056
1977.757182	69.647552
1979.479646	71.663636
1981.198308	70.847552
1982.920068	69.302797
1984.638026	67.350350
1986.357357	76.876923
1988.072889	80.765734
1989.793241	85.036364
1991.509795	87.932168
1993.222552	87.090210
1994.938405	84.435664
1996.652186	82.839161
1998.365617	84.711189
2000.076977	81.636364
2001.789709	81.183916
2003.498651	76.871329
2005.210685	77.244755
2006.917211	79.027972
2008.626828	75.026573
2010.334379	77.793007
2012.041581	76.755245
2013.746718	73.335664
2015.451509	66.006993
2017.157671	68.607692
2018.860051	74.733566
2020.563802	80.427972
2022.265491	83.264336
2023.966835	83.079021
2025.667833	86.355245
2027.366770	85.593007
2029.067079	83.757343
2030.763613	86.009091
2032.461518	83.915385
2034.157364	75.608392
2035.856296	67.662937
2037.549742	66.485315
2039.244559	66.925175
2040.939034	66.334266
2042.629740	64.465734
2044.323530	62.707692
2046.013553	64.941259
2047.704947	66.529371
2049.394288	67.299301
2051.084999	72.466434
2052.771947	75.234965
2054.458556	72.027972
2056.146534	71.628671
2057.830753	72.269231
2059.516343	74.300000
2061.201593	76.409091
2062.884794	75.475524
2064.569366	73.824476
2066.248475	76.728671
2067.932369	78.374825
2069.610802	78.818881
2071.292313	83.433566
2072.970072	82.079021
2074.647495	79.801399
2076.326287	84.504196
2078.003037	91.119580
2079.677745	92.959441
2081.353822	92.450350
2083.027859	88.158042
2084.701560	81.429371
2086.374926	78.370629
2088.046253	76.672727
2089.717246	74.399301
2091.387905	71.726573
2093.058230	68.300699
2094.728221	66.714685
2096.396176	70.246853
2098.063798	70.455245
2099.729385	72.494406
2101.396341	68.522378
2103.061264	68.712587
2104.725855	71.003497
2106.388414	76.634965
2108.052341	79.593706
2109.714237	81.329371
2111.375803	82.209790
2113.037037	80.867832
2114.696243	77.311189
2116.355118	77.208392
2118.013664	79.103497
2119.671880	82.140559
2121.326372	73.895804
2122.983929	72.465734
2124.641157	74.249650
2126.294663	69.298601
2127.949537	63.323077
2129.600692	64.657343
2131.254910	61.744056
2132.905411	61.541259
2134.557278	64.714685
2136.203737	71.446853
2137.854951	79.743357
2139.502451	81.156643
2141.151318	77.872028
2142.798166	76.719580
2144.444689	79.144755
2146.090886	69.216783
2147.733375	64.855245
2149.378922	64.116084
2151.020762	59.494406
2152.665659	62.013986
2154.306850	61.813986
2155.947719	69.299301
2157.588263	70.433566
2159.226795	75.955245
2160.866693	80.908392
2162.502891	85.233566
2164.140455	92.018881
2165.777697	87.458042
2167.412929	85.314685
2169.047840	79.563636
2170.682428	80.979720
2172.316696	77.067832
2173.947270	77.735664
2175.580896	78.088112
2177.210830	74.551748
2178.842129	76.730070
2180.471423	75.931469
2182.100398	80.502797
2183.729053	84.881818
2185.357389	78.027273
2186.983723	77.939860
2188.609738	77.038462
2190.233751	78.908392
2191.859130	76.388112
2193.482508	85.216084
2195.107251	84.952448
2196.728313	85.002797
2198.349058	80.535664
2199.971168	80.071329
2201.591280	81.363636
2203.209395	78.992308
2204.827195	75.652448
2206.444680	74.354545
2208.061849	71.017483
2209.678703	71.270629
2211.295241	73.560140
2212.909787	79.519580
2214.522340	77.780420
2216.136257	73.188112
2217.748183	69.970629
2219.361472	71.057343
2220.972771	74.259441
2222.582080	75.530070
2224.192753	73.633566
2225.801437	74.525175
2227.409808	76.663636
2229.016193	72.302797
2230.623941	69.241259
2232.229702	68.328671
2233.835152	63.367133
2235.438617	59.757343
2237.043445	61.165035
2238.646289	70.987413
2240.247150	73.869231
2241.849374	75.233566
2243.449616	73.984615
2245.051220	79.838462
2246.649171	78.476923
2248.248485	71.979720
2249.845819	73.231469
2251.442845	73.182517
2253.041233	68.369930
2254.635972	68.402098
2256.228734	66.068531
2257.822859	67.351748
2259.418345	59.386014
2261.010186	58.253846
2262.601721	52.434266
2264.194618	57.260140
2265.782205	60.380420
2267.374488	67.735664
2268.961465	69.565035
2270.551469	74.386713
2272.136169	72.338462
2273.725563	74.636364
2275.309655	71.113287
2276.895107	71.028671
2278.478591	69.862937
2280.065100	67.971329
2281.647976	76.415385
2283.230549	84.958741
2284.812818	85.681119
2286.391457	87.467832
2287.973121	82.011189
2289.551156	82.380420
2291.132214	77.628671
2292.709645	72.448951
2294.285113	68.927972
2295.863603	65.529371
2297.438469	64.917483
2299.013034	69.160839
2300.587299	77.982517
2302.161263	71.495804
2303.734926	64.825175
2305.308290	61.495105
2306.878035	60.580420
2308.447481	61.663636
2310.019945	61.972727
2311.587135	60.930070
2313.157343	62.827972
2314.723936	62.057343
2316.291889	63.081818
2317.857886	69.136364
2319.423586	64.817483
2320.988988	56.576923
2322.552437	63.467133
2324.117245	72.377622
2325.678445	75.902797
2327.242659	84.697902
2328.801611	94.229371
2330.363578	101.141259
2331.923593	100.648252
2333.483314	97.431469
2335.041085	95.298601
2336.598561	96.309790
2338.155743	89.088811
2339.710977	91.462937
2341.265918	99.121678
2342.820564	92.372028
2344.374917	78.465035
2345.928977	74.726573
2347.482742	70.792308
2349.034564	65.934266
2350.584442	59.716783
2352.137328	70.215385
2353.684972	80.933566
2355.235623	84.527972
2356.782683	95.680420
2358.331101	106.451748
2359.879228	104.556643
2361.423766	97.909790
2362.969662	87.640559
2364.513620	81.243357
2366.058935	74.825874
2367.600665	71.415385
2369.143752	67.511189
2370.684903	79.670629
2372.225765	75.960839
2373.766338	77.949650
2375.306622	85.651049
2376.846617	86.250350
2378.383034	78.393706
2379.922452	82.896503
2381.458293	82.417483
2382.995490	78.679720
2384.529112	79.895105
2386.065734	82.928671
2387.600426	81.505594
2389.133188	93.579720
2390.665663	91.246853
2392.196210	93.447552
2393.729755	87.855245
2395.258089	86.421678
2396.787780	77.524476
2398.317184	78.576923
2399.846304	72.959441
2401.375139	73.669231
2402.898768	73.769930
2404.427033	74.095804
2405.950096	77.984615
2407.477792	93.327273
2408.998649	86.802797
2410.524139	91.153147
2412.046068	87.667832
2413.569353	93.830769
2415.090716	91.586713
2416.610160	90.681119
2418.130959	89.006993
2419.649840	83.426573
2421.168438	70.020280
2422.685119	69.072727
2424.203154	74.569930
2425.720908	77.081119
2427.235111	66.713287
2428.749033	71.820280
2430.262675	78.379021
2431.777672	88.610490
2433.289120	87.762937
2434.801923	85.808392
2436.312812	81.637762
2437.823423	78.177622
2439.332122	81.056643
2440.843807	78.709091
2442.351949	75.097203
2443.859813	70.441958
2445.367399	69.105594
2446.871444	72.845455
2448.378474	81.709091
2449.883597	82.411189
2451.388441	81.851748
2452.891379	84.658741
2454.394041	85.613287
2455.896426	93.497203
2457.396906	100.849650
2458.898739	99.229371
2460.398667	100.418182
2461.898320	103.592308
2463.397698	98.788811
2464.895173	92.088112
2466.390746	89.212587
2467.889299	84.234266
2469.384324	78.109790
2470.880701	75.183217
2472.373552	68.779720
2473.867756	73.095804
2475.361686	85.217483
2476.852092	89.647552
2478.345476	88.795105
2479.836962	93.334965
2481.326551	90.976224
2482.815868	94.479720
2484.303289	93.467832
2485.793686	90.768531
2487.280565	84.922378
2488.768795	87.683916
2490.253508	85.687413
2491.737952	85.945455
2493.223746	87.441259
2494.707649	79.659441
2496.192902	75.766434
2497.673022	74.281818
2499.156115	68.649650
2500.637317	72.215385
2502.118250	67.512587
2503.597294	73.596503
2505.076069	74.581818
2506.554576	78.693007
2508.032815	83.536364
2509.510785	83.232168
2510.985250	83.868531
2512.462685	81.239860
2513.936616	86.234965
2515.411897	82.925874
2516.886911	81.474126
2518.358425	83.741259
2519.831288	83.743357
2521.302269	83.714685
2522.774600	80.279720
2524.241817	79.258741
2525.712001	81.912587
2527.180304	81.582517
2528.648342	81.658741
2530.116115	86.339161
2531.583623	92.525874
2533.050866	84.116783
2534.514617	82.111888
2535.979718	73.691608
2537.442942	66.450350
2538.907516	57.353147
2540.368600	62.808392
2541.831034	66.568531
2543.293205	71.665035
2544.751890	77.031469
2546.215147	80.488112
2547.673307	88.204895
2549.132816	85.932168
2550.587231	85.684615
2552.046217	93.230070
2553.503331	90.081818
2554.958574	84.981818
2556.413555	79.095105
2557.866668	84.957343
2559.321129	81.258741
2560.773720	83.945455
2562.226052	84.827273
2563.676517	85.695804
2565.129937	83.587413
2566.578275	81.642657
2568.029569	83.141259
2569.478996	80.786713
2570.924951	67.742657
2572.373861	58.630070
2573.819301	46.787413
2575.266088	44.837762
2576.711013	47.510490
2578.155679	54.604895
2579.601693	61.497203
2581.044241	62.591608
2582.488136	66.379021
2583.928566	71.805594
2585.370343	69.537762
2586.810261	69.326573
2588.251526	62.976224
2589.689329	66.798601
2591.130082	63.346154
2592.565773	60.448951
2594.004413	65.418881
2595.441195	60.625874
2596.876122	64.414685
2598.313996	65.552448
2599.746813	67.602797
2601.180977	69.006294
2602.613287	63.342657
2604.046943	64.712587
2605.478746	59.474126
2606.910295	59.395804
2608.341592	64.062937
2609.771036	53.529371
2611.200228	56.503497
2612.627570	57.169231
2614.056257	64.141259
2615.484693	67.126573
2616.909681	65.418182
2618.336016	58.983916
2619.760502	58.830070
2621.186334	60.516783
2622.608722	56.846853
2624.032456	59.730070
2625.454343	65.144056
2626.875981	58.289510
2628.295773	64.972028
2629.716911	60.825874
2631.137799	60.850350
2632.555249	61.549650
2633.975638	61.509790
2635.392590	58.723776
2636.809293	67.205594
2638.225748	65.570629
2639.641955	71.068531
2641.057914	72.272028
2642.472032	75.470629
2643.885902	73.110490
2645.297934	69.400000
2646.711309	69.968531
2648.121255	61.667832
2649.534137	62.196503
2650.943590	64.439860
2652.352797	67.851049
2653.760168	68.530769
2655.170473	64.139161
2656.578943	67.829371
2657.985577	63.333566
2659.391966	65.504196
2660.796521	61.788112
2662.202420	68.111189
2663.606486	73.704895
2665.010307	62.837063
2666.413884	74.603497
2667.815630	76.244056
2669.218719	71.072028
2670.618390	65.727273
2672.019405	61.332168
2673.417004	66.109091
2674.817533	67.853147
2676.214646	71.004196
2677.613103	74.293706
2679.009733	81.787413
2680.406120	79.972727
2681.802265	78.396503
2683.196585	86.341259
2684.592246	82.529371
2685.984499	72.689510
2687.378094	74.090909
2688.769865	67.346853
2690.162979	63.937762
2691.554269	53.234266
2692.943736	48.688811
2694.332963	45.493007
2695.721951	50.035664
2697.112280	52.993007
2698.497626	56.893706
2699.885895	61.735664
2701.272344	67.165035
2702.658554	70.595804
2704.044525	72.602797
2705.427098	68.169231
2706.811013	65.281119
2708.194690	61.125874
2709.578128	62.465035
2710.958172	65.084615
2712.339556	66.282517
2713.719126	61.548252
2715.100036	53.273427
2716.479132	46.000699
2717.856414	43.694406
2719.235037	43.804895
2720.611847	38.394406
2721.988420	40.686014
2723.364758	42.925874
2724.739285	48.034965
2726.115152	58.631469
2727.487632	69.086014
2728.863028	76.630769
2730.233464	83.411888
2731.605241	84.223077
2732.976783	85.212587
2734.346517	85.122378
2735.717592	83.587413
2737.086858	76.074825
2738.455891	72.058741
2739.823118	64.187413
2741.190112	59.529371
2742.556872	62.245455
2743.923401	60.852448
2745.288124	58.318182
2746.652615	60.160140
2748.016875	59.001399
2749.380902	58.657343
2750.744698	58.911888
2752.105120	49.518881
2753.468452	45.103497
2754.826842	44.655944
2756.188142	37.941958
2757.546072	41.091608
2758.906910	47.203497
2760.265949	47.433566
2761.621619	49.192308
2762.980197	61.041958
2764.335408	67.017483
2765.690390	73.224476
2767.043576	76.647552
2768.399668	65.466434
2769.752395	66.392308
2771.104895	67.841958
2772.457166	64.809790
2773.810776	69.599301
2775.161024	73.435664
2776.509478	67.758042
2777.860838	68.875524
2779.208838	67.649650
2780.558176	66.285315
2781.905722	67.272727
2783.253042	66.032867
2784.600135	59.121678
2785.945437	65.634965
2787.290512	65.540559
2788.635362	68.121678
2789.979986	71.616084
2791.321258	78.789510
2792.663868	78.209091
2794.006252	77.802797
2795.348411	74.981818
2796.687221	80.806294
2798.028931	81.373427
2799.367293	79.276224
2800.706991	70.864336
2802.044905	76.019580
2803.381034	74.432168
2804.716939	75.234965
2806.054182	75.815385
2807.389641	80.311888
2808.724877	74.724476
2810.058330	69.248252
2811.393120	70.703497
2812.724570	75.329371
2814.058915	74.118881
2815.388362	71.951748
2816.719146	68.588811
2818.049708	78.479021
2819.378491	77.060839
2820.708610	68.722378
2822.036951	62.792308
2823.365071	58.981818
2824.691413	47.326573
2826.019092	45.274825
2827.343437	45.990210
2828.669119	47.051748
2829.993025	52.294406
2831.316712	55.969930
2832.641734	62.498601
2833.963426	71.680420
2835.284900	70.055944
2836.606155	68.644056
2837.927191	66.979021
2839.246454	70.700699
2840.567053	64.762238
2841.885881	67.001399
2843.204490	66.472028
2844.521328	66.847552
2845.837949	62.631469
2847.154353	56.618182
2848.468987	57.511888
2849.784957	53.749650
2851.097606	49.644755
2852.411590	47.302098
2853.725358	45.786014
2855.038909	46.397902
2856.350694	45.026573
2857.660712	55.718881
2858.972065	63.297902
2860.280103	68.314685
2861.589475	69.147552
2862.898633	73.551748
2864.207575	77.224476
2865.514753	77.232867
2866.820169	77.058042
2868.126919	74.326573
2869.431906	76.814685
2870.736680	71.390909
2872.039692	73.126573
2873.345585	79.090210
2874.646624	78.479021
2875.948997	73.605594
2877.249610	73.123077
2878.551557	66.623776
2879.853290	58.299301
2881.151720	51.407692
2882.451483	46.682517
2883.749489	47.437762
2885.047283	46.254545
2886.343321	48.730769
2887.640692	55.716783
2888.936307	62.316783
2890.231711	70.034266
2891.526904	73.676923
2892.818800	75.458042
2894.113572	69.595105
2895.405047	64.706294
2896.697855	59.497203
2897.990453	58.453147
2899.279757	59.505594
2900.570393	52.781818
2901.859278	61.803497
2903.149495	67.447552
2904.436421	64.941259
2905.724679	65.483217
2907.011188	65.130070
2908.297489	69.271329
2909.583581	66.279720
2910.867925	64.544056
2912.155140	65.175524
2913.437529	66.768531
2914.721250	68.598601
2916.003225	73.178322
2917.284992	82.220979
2918.565015	81.865734
2919.847907	74.579021
2921.129054	65.351049
2922.406919	64.688811
2923.687653	61.881119
2924.965106	50.414685
2926.242353	45.000699
2927.517858	42.945455
2928.796231	41.393706
2930.069790	42.532867
2931.346216	49.372727
2932.620901	54.364336
2933.893845	61.188811
2935.168121	62.242657
2936.440657	64.229371
2937.712988	67.279720
2938.982047	64.706294
2940.253971	66.227972
2941.524157	68.225874
2942.794139	70.616084
2944.063918	64.167832
2945.331961	61.289510
2946.598267	56.727273
2947.864372	54.580420
2949.131806	54.190210
2950.397506	46.451748
2951.663003	45.825175
2952.928298	37.173427
2954.190328	34.706294
2955.453688	37.413287
2956.716847	37.581818
2957.978274	35.464336
2959.241030	30.146154
2960.502054	28.260839
2961.761348	32.001399
2963.020442	39.469231
2964.279335	44.133566
2965.538028	53.084615
2966.796521	59.576923
2968.053285	68.918182
2969.309849	68.016084
2970.564686	71.699301
2971.820851	67.109091
2973.073762	60.225175
2974.328002	55.336364
2975.582043	52.125175
2976.834358	51.669930
2978.086474	49.955944
2979.336866	47.860140
2980.590113	49.719580
2981.838583	49.481119
2983.089908	56.832168
2984.337983	52.960839
2985.585862	56.458042
2986.833543	51.366434
2988.081027	50.184615
2989.326790	50.335664
2990.572357	54.700000
2991.819251	50.960839
2993.062901	48.930070
2994.307879	46.179021
2995.549613	44.334965
2996.794199	47.142657
2998.037066	52.896503
2999.276692	57.098601
3000.519168	61.844755
3001.758404	64.706993
3002.998968	68.202797
3004.237816	72.279720
3005.476468	68.978322
3006.713406	68.372727
3007.951670	62.047552
3009.188219	61.438462
3010.424575	59.428671
3011.660737	58.646853
3012.895185	53.370629
3014.129441	51.412587
3015.363503	53.374126
3016.595853	53.333566
3017.826491	55.086713
3019.059975	54.100699
3020.291747	48.455245
3021.521809	52.248252
3022.751679	49.134266
3023.979839	54.818182
3025.209325	55.902797
3026.437102	57.022378
3027.664688	57.164336
3028.893601	62.277622
3030.117771	64.018182
3031.344784	64.447552
3032.568573	67.547552
3033.793689	63.705594
3035.017098	58.053846
3036.240317	55.338462
3037.461831	51.649650
3038.686186	50.860839
3039.905806	42.050350
3041.126752	41.937762
3042.347509	40.968531
3043.566562	41.916783
3044.786940	39.302797
3046.004102	41.244056
3047.222590	43.252448
3048.439375	43.527972
3049.655973	43.353147
3050.872382	43.176923
3052.085579	40.140559
3053.301613	39.139860
3054.514435	34.253147
3055.730094	41.833566
3056.941030	40.088811
3058.153291	42.630070
3059.365366	39.203497
3060.577253	43.508392
3061.787444	42.276923
3062.997448	43.851748
3064.207266	43.821678
3065.415388	43.595105
3066.623325	46.476224
3067.829566	50.409091
3069.037132	48.767133
3070.243003	53.910490
3071.448690	51.063636
3072.654191	50.323776
3073.857999	44.701399
3075.063131	47.900000
3076.266570	42.392308
3077.468318	40.693007
3078.669881	47.564336
3079.871261	51.367133
3081.072457	56.806993
3082.271963	55.599301
3083.471286	53.127273
3084.671932	53.083217
3085.870888	52.386014
3087.066650	51.089510
3088.265241	48.662937
3089.460638	55.539860
3090.657358	51.462238
3091.850886	53.606993
3093.047242	56.999301
3094.241912	52.532168
3095.433391	50.553846
3096.629201	45.779021
3097.820318	45.346853
3099.012757	43.350350
3100.202009	49.417483
3101.394086	52.641259
3102.584480	57.337063
3103.771688	61.571329
3104.960219	58.454545
3106.150071	62.998601
3107.336740	61.334965
3108.523228	58.058741
3109.709538	60.110490
3110.897169	60.512587
3112.081618	57.269930
3113.264388	60.149650
3114.449980	56.756643
3115.633893	55.395804
3116.816127	47.723077
3117.998182	37.608392
3119.180059	35.471329
3120.361758	36.527273
3121.541780	37.936364
3122.720125	37.221678
3123.901290	40.166434
3125.079280	37.751748
3126.257094	37.380420
3127.434730	43.455245
3128.610691	43.731469
3129.786475	49.671329
3130.963581	48.976224
3132.139012	47.696503
3133.312770	51.852448
3134.484855	52.144056
3135.658262	55.803497
3136.831492	51.338462
3138.003051	52.312587
3139.175930	49.216783
3140.345642	48.183217
3141.516675	45.622378
3142.686038	46.279021
3143.853730	45.360839
3145.024238	46.432867
3146.190088	44.269930
3147.360246	37.244755
3148.525748	34.799301
3149.691075	32.235664
3150.856229	32.041958
3152.021210	37.641958
3153.187510	37.315385
3154.349158	38.781818
3155.512125	43.541259
3156.674920	49.902098
3157.837542	59.366434
3158.998499	60.779021
3160.159283	57.767832
3161.319895	51.496503
3162.478843	49.042657
3163.637620	41.934266
3164.796225	39.294406
3165.954657	35.360140
3167.112919	33.562937
3168.269518	30.904895
3169.424456	36.969231
3170.580713	46.107692
3171.735309	49.568531
3172.889735	53.025874
3174.042501	55.692308
3175.195096	56.453147
3176.347522	56.504895
3177.499778	61.602797
3178.651863	58.345455
3179.800803	52.127972
3180.952549	50.662937
3182.102637	46.286713
3183.251069	46.500699
3184.399331	42.351748
3185.547425	36.833566
3186.695350	40.866434
3187.841619	36.176923
3188.987720	36.129371
3190.132167	40.789510
3191.276446	49.034266
3192.420557	49.193706
3193.565985	48.475524
3194.708275	51.588112
3195.850398	52.341259
3196.992353	51.327972
3198.134141	50.391608
3199.275762	53.725874
3200.414248	55.938462
3201.554051	52.666434
3202.695172	49.488811
3203.833158	49.149650
3204.969495	49.475524
3206.105666	45.899301
3207.243154	44.153147
3208.378994	40.628671
3209.516151	40.959441
3210.648695	39.489510
3211.785521	41.004196
3212.917735	41.227972
3214.051266	43.756643
3215.184633	43.879720
3216.314872	43.939161
3217.447909	40.413986
3218.577820	44.727273
3219.709047	45.261538
3220.837150	43.527273
3221.968049	43.079021
3223.097304	42.165035
3224.224916	39.381818
3225.349405	43.738462
3226.478170	48.827273
3227.603813	53.899301
3228.729294	59.555245
3229.853133	61.310490
3230.979766	53.543357
3232.101802	55.930070
3233.225154	55.154545
3234.348344	49.154545
3235.471372	48.795105
3236.592760	43.902098
3237.713986	36.641958
3238.833575	39.181119
3239.953002	37.853147
3241.070791	37.655944
3242.191372	40.051748
3243.308840	42.567133
3244.426147	41.926573
3245.543294	45.965734
3246.658805	50.631469
3247.775630	52.453846
3248.889346	56.949650
3250.005851	57.434965
3251.120722	52.004895
3252.232484	51.853846
3253.344086	48.829371
3254.457004	47.527273
3255.569762	44.722378
3256.679414	40.785315
3257.790381	40.025874
3258.901189	43.369930
3260.010365	46.023077
3261.117911	48.440559
3262.226770	51.806294
3263.335472	52.220280
3264.441071	52.311888
3265.547984	53.705594
3266.653268	56.851049
3267.759866	51.839161
3268.863364	43.716783
3269.968177	38.539860
3271.072832	43.188811
3272.174388	49.851049
3273.275788	50.974126
3274.378502	49.397203
3275.481060	55.823776
3276.580521	56.334266
3277.682766	54.881119
3278.781915	51.552448
3279.879440	45.949650
3280.976809	38.509091
3282.076960	35.726573
3283.174019	35.383916
3284.270922	41.577622
3285.367670	39.844755
3286.459860	39.146853
3287.556298	39.431469
3288.651114	43.755245
3289.745776	40.898601
3290.838816	38.220979
3291.931701	40.968531
3293.022967	40.903497
3294.115544	48.083916
3295.206502	52.074126
3296.295840	48.888811
3297.385025	50.610490
3298.475523	42.134965
3299.562936	39.484615
3300.650196	39.865734
3301.738769	37.679720
3302.827190	35.200699
3303.911063	35.864336
3304.999178	38.673427
3306.084211	35.596503
3307.167629	43.293706
3308.252359	42.632168
3309.335473	40.405594
3310.419900	44.293007
3311.501248	43.588811
3312.583908	46.476923
3313.664954	51.632168
3314.745849	51.897203
3315.825130	54.699301
3316.904261	52.734965
3317.984704	54.343357
3319.062072	48.702797
3320.140752	47.910490
3321.217820	38.588112
3322.294739	36.969231
3323.370046	33.890909
3324.445204	33.697902
3325.521673	36.866434
3326.595072	40.486014
3327.668322	48.362238
3328.742882	50.344056
3329.815834	51.646154
3330.887177	47.009091
3331.959831	36.769930
3333.029419	30.104895
3334.100317	25.575524
3335.169608	25.720979
3336.240210	22.451748
3337.309205	27.598601
3338.376594	30.434266
3339.442378	32.087413
3340.512388	36.178322
3341.579335	34.088811
3342.643220	33.954545
3343.709873	27.304895
3344.774921	29.331469
3345.838366	31.696503
3346.901665	37.942657
3347.964817	35.191608
3349.027823	36.262238
3350.090683	34.103497
3351.151941	37.363636
3352.210142	36.009790
3353.272563	41.162937
3354.331929	40.569231
3355.391149	36.653846
3356.451679	34.348951
3357.507699	36.460140
3358.566483	38.484615
3359.620760	42.050350
3360.677801	36.781818
3361.733243	35.289510
3362.789995	36.611189
3363.845148	40.120979
3364.898704	36.539161
3365.950664	37.211189
3367.005385	35.911888
3368.057057	36.893007
3369.108586	37.974825
3370.161423	43.096503
3371.211213	47.202098
3372.262312	48.448252
3373.310365	48.500000
3374.361177	41.945455
3375.408945	39.674126
3376.456570	34.302797
3377.504052	32.869231
3378.549942	31.927972
3379.597140	34.382517
3380.641296	38.844755
3381.688210	36.002098
3382.733532	38.806294
3383.775813	40.462238
3384.817954	42.028671
3385.861402	42.088811
3386.904709	36.154545
3387.946427	37.019580
3388.988003	42.945455
3390.029438	44.886713
3391.069285	43.057343
3392.107543	41.210490
3393.147109	38.506294
3394.186535	35.962937
3395.224373	35.327972
3396.260624	31.622378
3397.296736	32.702797
3398.334155	33.834965
3399.368541	33.895105
3400.404234	35.939860
3401.439788	40.701399
3402.472311	46.757343
3403.507587	46.216084
3404.539832	43.277622
3405.571939	40.434965
3406.602462	44.085315
3407.634292	37.650350
3408.665984	32.811888
3409.694648	37.083916
3410.723175	40.959441
3411.753008	38.746154
3412.782704	38.646154
3413.809374	42.134266
3414.837351	42.977622
3415.862303	39.460140
3416.890005	37.015385
3417.914684	33.313287
3418.940669	35.999301
3419.965074	31.103497
3420.989343	30.504895
3422.012033	32.223776
3423.034587	31.025175
3424.058447	28.900000
3425.079287	29.918881
3426.099991	30.293806
3427.122002	30.843531
3428.140994	31.475225
3429.159850	32.096054
3430.180013	32.613187
3431.197159	32.933791
