-118.059454	18.078022
-115.389854	8.974725
-112.723189	2.782418
-110.057276	-1.003796
-107.394295	-2.888811
-104.729885	-3.377522
-102.068405	-2.974825
-99.405496	-1.496503
-96.747693	-3.573427
-94.088461	-2.478322
-91.429977	-4.723776
-88.774417	-5.275524
-86.117429	-6.560140
-83.465539	-2.416783
-80.812218	-0.760140
-78.161818	2.920979
-75.509988	2.441958
-72.863249	4.376224
-70.215081	3.548252
-67.567655	3.487413
-64.923143	1.905594
-62.277203	0.389510
-59.636344	-2.151748
-56.994056	-2.306294
-54.354677	-2.807692
-51.713868	-0.263636
-49.073800	1.092308
-46.438804	4.093007
-43.802380	5.388811
-41.168858	9.041958
-38.533908	10.782517
-35.904023	10.902797
-33.270546	11.502098
-30.642131	12.269231
-28.014450	12.934266
-25.385340	7.822378
-22.761287	-20.359441
-20.133645	-133.648252
-17.511056	-440.458042
-14.889199	-666.786014
-12.268072	188.212587
-9.647675	1998.437762
-7.030167	3526.658741
-4.411230	4612.600000
-1.795178	5248.993706
0.820145	5432.339860
3.434741	5165.146154
6.046454	4447.590909
8.659596	3299.632867
11.267704	1790.530769
13.879394	179.363636
16.486053	-843.418881
19.094140	-645.788112
21.701503	-62.039161
24.303841	9.230070
26.909757	14.846853
29.510651	13.135664
32.112973	15.134965
34.710278	13.934266
37.311158	11.938462
39.907023	7.427972
42.504317	6.634266
45.100891	2.401399
47.692456	0.770629
50.285449	-3.590909
52.875581	-5.546154
55.467141	-7.022378
58.055841	-6.709790
60.645968	-8.124476
63.231096	-4.734965
65.817652	-4.900699
68.403494	-2.474825
70.986482	-1.735664
73.570896	3.179720
76.148182	2.060839
78.729034	3.000699
81.307037	4.781119
83.884330	5.118182
86.463049	2.600699
89.036786	2.004895
91.611951	2.339860
94.184272	0.793706
96.755885	-3.727273
99.324658	-4.832168
101.894858	-4.781119
104.462220	-4.641259
107.031007	-3.874825
109.596958	-1.644755
112.160074	1.527972
114.726746	5.144755
117.284197	5.132867
119.847333	9.246154
122.405509	15.130070
124.967240	24.158042
127.524014	38.997203
130.082215	62.497902
132.635462	92.109790
135.188012	129.833566
137.744112	174.842657
140.295264	222.480420
142.845719	266.769930
145.395476	309.688811
147.942414	338.510490
150.488657	360.842657
153.036325	374.172028
155.583297	381.421678
158.125334	381.367133
160.666677	376.606993
163.207327	368.636364
165.749403	364.711888
168.288667	359.880420
170.825123	358.729371
173.360887	354.947552
175.898077	353.914685
178.434576	347.896503
180.968269	344.081818
183.499158	342.270629
186.029360	344.316783
188.560986	340.051748
191.089811	336.873427
193.615837	333.741259
196.141177	334.481818
198.667942	335.160839
201.191911	339.390909
203.715195	337.869930
206.237794	340.172727
208.757600	343.179021
211.276723	347.089510
213.795163	354.281818
216.315027	359.336364
218.827890	361.356643
221.344284	369.232168
223.859996	376.682517
226.370818	386.598601
228.883065	398.439161
231.392530	408.068531
233.901316	413.278322
236.409423	420.814685
238.918955	424.062937
241.423606	425.461538
243.927581	423.836364
246.432980	422.365734
248.933504	421.751049
251.437552	421.044755
253.934628	419.111888
256.435228	420.506294
258.933056	425.695105
261.430211	430.462937
263.926693	436.548252
266.418312	440.641259
268.913451	443.961538
271.405823	451.858741
273.897525	454.681818
276.386464	461.855944
278.876827	465.683916
281.364427	468.557343
283.849268	472.761538
286.337624	479.667832
288.819040	490.060839
291.303970	507.372028
293.784055	522.076224
296.267652	534.999301
298.746406	546.076923
301.226584	553.018182
303.704009	550.523776
306.180771	550.077622
308.656870	543.869930
311.130220	542.034266
313.602908	541.313986
316.074935	539.562937
318.546301	539.686014
321.014922	540.921678
323.482885	535.430769
325.952269	530.241259
328.416831	518.740559
330.884897	503.173427
333.348143	487.020280
335.810731	473.459441
338.272663	464.791608
340.733938	459.763636
343.192479	456.284615
345.652442	452.418182
348.109672	447.715385
350.566248	442.688811
353.022170	440.425874
355.475362	436.942657
357.929977	432.968531
360.379790	430.577622
362.833099	430.741958
365.281610	429.056643
367.729469	431.102797
370.178751	425.809790
372.623239	423.112587
375.069149	419.188811
377.514409	413.914685
379.956951	410.937762
382.398845	407.020979
384.840092	402.176923
387.278623	397.452448
389.718576	399.164336
392.155815	399.823077
394.590342	401.806993
397.028357	404.785315
399.461595	404.936364
401.896254	406.279720
404.326141	404.897203
406.759513	405.851748
409.188115	404.683916
411.616075	401.146154
414.045457	395.303497
416.470073	390.511888
418.896111	391.169930
421.321508	388.800000
423.746265	393.222378
426.166264	397.855245
428.587684	401.516084
431.006407	403.021678
433.426551	403.982517
435.844000	406.116783
438.262869	401.594406
440.679045	396.460839
443.090473	388.048951
445.505379	382.039860
447.917594	374.808392
450.329175	364.354545
452.740122	358.716783
455.148383	352.859441
457.556011	349.143357
459.963007	344.328671
462.369372	346.922378
464.773054	345.740559
467.176106	343.168531
469.578528	348.413287
471.980320	356.287413
474.379435	363.418881
476.779969	375.486014
479.179874	383.262238
481.575056	399.073427
483.973705	413.644755
486.367634	431.624476
488.760937	446.990210
491.153614	466.830769
493.545666	477.246853
495.939136	484.292308
498.327894	474.674126
500.713986	409.899301
503.101498	264.826573
505.488387	343.604895
507.872612	1328.553846
510.258255	3491.743357
512.641237	6179.265734
515.021558	8572.147552
517.403298	10286.876224
519.782379	11178.739860
522.162879	11190.690210
524.540721	10332.059441
526.915908	8653.368531
529.290477	6317.086014
531.666464	3700.595105
534.039799	1535.711189
536.414551	499.158042
538.784618	438.007692
541.154069	615.967832
543.524938	653.010490
545.891127	624.140559
548.258734	578.775524
550.623695	532.841259
552.988043	494.972028
555.351778	460.639860
557.716931	432.167832
560.077412	409.665035
562.439311	389.281119
564.798569	374.239161
567.155190	361.544056
569.515255	352.007692
571.868629	342.635664
574.225448	335.334965
576.579632	329.712587
578.933208	320.012587
581.286175	312.049650
583.636510	307.014685
585.988263	300.739161
588.333339	295.793007
590.683879	291.062238
593.027745	288.563636
595.377073	288.885315
597.721752	287.645455
600.063807	284.011189
602.407279	284.816084
604.748128	290.454545
607.088375	290.562937
609.426001	294.577622
611.767062	298.067133
614.103485	296.348252
616.441325	295.581119
618.776548	293.248951
621.109155	289.518881
623.443178	285.730070
625.774587	280.054545
628.105398	270.176923
630.435612	264.751049
632.765227	262.474825
635.090220	258.740559
637.420653	257.426573
639.746466	254.022378
642.069671	252.715385
644.394293	250.304895
646.716309	250.743357
649.037731	253.874825
651.356551	253.708392
653.676786	251.032168
655.996428	246.507692
658.313469	248.179021
660.629918	253.500699
662.943769	254.656643
665.259036	253.193007
667.571706	250.688112
669.885791	250.251049
672.195276	245.940559
674.506177	246.177622
676.814485	246.249650
679.122205	243.878322
681.431339	236.845455
683.735881	235.485315
686.039837	234.361538
688.343207	233.888811
690.647991	228.355245
692.948189	220.774126
695.249801	213.652448
697.550829	209.928671
699.847274	201.926573
702.145135	197.637762
704.442412	196.100699
706.739106	194.055944
709.031224	192.092308
711.326753	194.769930
713.617708	196.117483
715.910078	200.379720
718.199873	199.167133
720.489087	200.860839
722.777722	201.987413
725.063784	201.983916
727.351261	197.502797
729.636166	198.359441
731.920494	199.532867
734.202253	198.310490
736.485426	196.278322
738.768022	195.644056
741.046062	194.140559
743.325517	193.727972
745.604395	194.106993
747.882699	196.844056
750.156453	198.108392
752.431620	198.373427
754.706214	200.434266
756.978249	203.984615
759.251697	202.362937
761.522587	199.988811
763.790921	198.550350
766.060668	198.127273
768.327861	194.736364
770.594483	196.170629
772.860535	199.412587
775.124036	201.313986
777.388950	202.937762
779.653294	207.716783
781.913109	212.471329
784.174336	221.552448
786.434996	222.718182
788.693110	227.051748
790.948679	229.274126
793.207639	228.804196
795.460100	227.688811
797.717927	227.353147
799.971236	228.937762
802.222005	228.572028
804.474186	227.905594
806.723828	229.766434
808.974883	229.544056
811.221426	233.370629
813.469381	227.944056
815.714802	226.655944
817.961634	222.054545
820.207905	220.155245
822.449671	216.837063
824.694821	216.788112
826.933498	220.553846
829.175557	224.054545
831.413118	229.434965
833.652091	233.909091
835.888537	236.179720
838.126394	238.495804
840.361726	239.305594
842.594535	243.823776
844.828755	237.583217
847.060452	235.616783
849.291595	229.834965
851.522183	226.170629
853.752217	220.295804
855.981697	218.218182
858.206695	218.968531
860.435068	218.250350
862.658961	216.760140
864.884266	210.726573
867.105095	212.327972
869.329296	215.101399
871.549024	212.179021
873.770162	219.467133
875.990750	220.644056
878.208829	217.829371
880.428317	214.074126
882.643339	215.515385
884.857814	220.909091
887.071740	221.948252
889.285120	220.358042
891.497952	212.890909
893.710238	217.391608
895.920021	219.208392
898.129259	227.522378
900.337952	229.962937
902.544146	227.816783
904.751749	226.939161
906.956854	223.369231
909.161416	226.970629
911.363483	230.441958
913.566959	235.003497
915.767941	236.841958
917.968381	238.476224
920.170230	250.121678
922.365688	266.995804
924.564505	288.479021
926.758883	315.112587
928.956619	352.404895
931.149919	400.316783
933.344628	444.042657
935.536851	495.967133
937.728535	537.198601
939.919682	583.042657
942.108346	607.572727
944.296474	624.832867
946.482121	637.413986
948.671120	644.264336
950.855696	628.147552
953.039737	628.581119
955.227128	624.640559
957.406215	617.472028
959.588653	616.850350
961.770557	616.211189
963.949986	615.046853
966.126943	632.826573
968.305308	645.616783
970.485080	659.969930
972.658503	667.638462
974.835272	676.030769
977.007634	682.524476
979.181404	682.578322
981.350770	680.109790
983.523480	666.195105
985.693725	643.857343
987.863441	606.761538
990.032628	572.327972
992.197418	539.626573
994.365549	495.469930
996.529286	448.020979
998.694429	414.978322
1000.857113	402.890909
1003.019272	390.460839
1005.178974	370.625874
1007.338151	367.170629
1009.498735	372.639860
1011.656865	372.886014
1013.814470	362.839860
1015.971552	362.034266
1018.128110	351.014685
1020.280289	342.928671
1022.433875	335.658042
1024.586939	337.562238
1026.737554	331.320979
1028.889576	321.160839
1031.037224	322.165035
1033.188204	316.640559
1035.334813	311.976923
1037.480903	300.441259
1039.626475	300.456643
1041.773452	309.065734
1043.914140	296.054545
1046.058158	298.618182
1048.199735	290.996503
1050.340796	299.944056
1052.483261	307.967133
1054.619447	312.258042
1056.758958	305.706993
1058.894115	302.996503
1061.032596	295.995804
1063.166723	298.992308
1065.300337	306.957343
1067.435356	296.082517
1069.566025	279.239860
1071.698099	266.097902
1073.827744	259.198601
1075.956877	262.412587
1078.085498	254.195105
1080.213608	244.139860
1082.339292	239.057343
1084.464466	248.367832
1086.591044	252.493706
1088.713284	255.942657
1090.836929	263.577622
1092.956239	264.433566
1095.080779	262.914685
1097.199073	257.578322
1099.318772	258.653147
1101.436052	252.825874
1103.552826	239.272727
1105.669093	232.153147
1107.782944	227.271329
1109.898200	214.666434
1112.009132	215.481818
1114.123377	218.597902
1116.233301	216.609091
1118.344629	210.923077
1120.455452	210.369930
1122.561959	216.339860
1124.671776	223.383217
1126.777278	221.613287
1128.884183	213.693007
1130.984873	203.793007
1133.090775	195.439860
1135.192368	191.530769
1137.295364	191.323776
1139.397859	184.154545
1141.494147	178.558741
1143.595643	183.620979
1145.692835	185.823077
1147.789530	192.702098
1149.885726	198.090909
1151.981425	196.583217
1154.076625	197.611189
1156.169429	194.008392
1158.263636	191.648252
1160.351651	195.170629
1162.444864	198.771329
1164.531889	195.777622
1166.622213	206.094406
1168.708250	203.937063
1170.797584	197.655245
1172.880737	195.045455
1174.965292	184.857343
1177.051249	182.164336
1179.132924	180.341958
1181.216001	173.767133
1183.296692	175.332867
1185.376891	176.069231
1187.456599	182.409091
1189.535816	179.881119
1191.612651	186.379720
1193.687105	181.030769
1195.764850	183.691608
1197.838326	185.179021
1199.913202	185.267832
1201.983811	184.658042
1204.055821	182.531469
1206.125456	177.783916
1208.196491	180.111888
1210.267038	173.883916
1212.333324	176.110490
1214.401011	173.657343
1216.466326	170.027972
1218.533041	168.872028
1220.595500	163.982517
1222.661244	165.383916
1224.722734	165.744755
1226.785625	165.092308
1228.846148	169.739860
1230.906187	175.677622
1232.965744	177.831469
1235.022935	176.362937
1237.079645	182.579720
1239.133991	178.801399
1241.191619	174.131469
1243.246884	174.676923
1245.297908	166.481119
1247.350332	163.941958
1249.402276	158.824476
1251.451862	162.823077
1253.500969	167.040559
1255.549598	165.788112
1257.597748	162.724476
1259.645419	160.666434
1261.688860	160.628671
1263.735577	155.737063
1265.779940	155.351049
1267.823827	161.046154
1269.865362	167.926573
1271.904548	170.967832
1273.947007	177.016783
1275.985243	185.898601
1278.024878	191.373427
1280.064038	192.855944
1282.098979	197.934965
1284.135319	195.316084
1286.169315	188.327273
1288.204708	185.991608
1290.235889	188.389510
1292.268467	185.665734
1294.300574	182.426573
1296.330340	176.825175
1298.361504	171.588811
1300.388460	171.143357
1302.416814	173.320280
1304.440963	180.945455
1306.468378	182.859441
1308.491590	183.256643
1310.516200	181.713287
1312.538476	189.204196
1314.562149	184.658741
1316.583489	173.202098
1318.604361	167.602098
1320.624766	165.795105
1322.640978	161.551748
1324.658587	159.686014
1326.673868	163.411888
1328.692408	166.318182
1330.706759	167.508392
1332.718784	172.107692
1334.734066	170.220979
1336.745163	171.993706
1338.757657	162.325175
1340.765968	159.815385
1342.777534	158.413287
1344.783062	152.507692
1346.791845	146.322378
1348.796450	146.646853
1350.804309	147.706993
1352.811706	149.093706
1354.813072	155.011888
1356.815834	154.019580
1358.818137	148.960839
1360.819980	146.320280
1362.821363	142.888112
1364.820433	141.872727
1366.819044	139.218881
1368.817197	133.736364
1370.814891	134.713986
1372.808423	142.016084
1374.803351	144.232867
1376.797821	146.447552
1378.791835	148.960839
1380.783542	145.263636
1382.774794	144.297902
1384.763740	145.674825
1386.754081	144.976923
1388.743967	142.655944
1390.731549	141.148252
1392.718678	139.266434
1394.703505	146.074126
1396.689727	151.176224
1398.673649	154.683217
1400.657118	152.923077
1402.640134	151.000699
1404.620853	149.151049
1406.602966	152.736364
1408.582783	158.719580
1410.562148	157.213986
1412.537375	154.675524
1414.515840	152.752448
1416.492012	154.760140
1418.467735	160.200699
1420.443008	155.332867
1422.415990	147.243357
1424.388524	139.838462
1426.360610	132.227273
1428.332249	135.004196
1430.299759	138.757343
1432.272343	142.569930
1434.237122	140.295105
1436.206972	140.060839
1438.172699	140.729371
1440.139818	145.118182
1442.104654	148.880420
1444.065370	148.765734
1446.031154	148.646154
1447.990983	150.790210
1449.952206	152.054545
1451.914821	157.504196
1453.873321	151.227273
1455.831378	149.570629
1457.788994	146.615385
1459.746167	146.658741
1461.701065	148.404196
1463.657356	149.473427
1465.611372	154.690909
1467.564947	162.202098
1469.516250	164.020979
1471.468946	161.196503
1473.419369	160.362937
1475.369354	152.597902
1477.318900	140.476224
1479.266177	142.344755
1481.211186	144.606294
1483.157588	144.134266
1485.103552	151.028671
1487.049079	155.304196
1488.992340	163.191608
1490.935166	161.717483
1492.875728	158.019580
1494.817681	159.030769
1496.757372	157.374825
1498.696629	150.073427
1500.635450	146.511888
1502.572012	151.148252
1504.509965	153.925175
1506.445659	153.551049
1508.380920	158.954545
1510.313925	157.695105
1512.246497	154.811189
1514.178637	149.444755
1516.110345	150.607692
1518.039799	152.787413
1519.970644	154.943357
1521.901057	151.346154
1523.827398	156.333566
1525.755130	162.918881
1527.680611	167.513986
1529.605663	164.294406
1531.530286	165.288811
1533.454480	163.377622
1535.376426	164.323077
1537.299763	166.940559
1539.220853	166.400699
1541.139700	153.335664
1543.059935	154.539161
1544.977928	152.371329
1546.895494	158.332168
1548.810818	163.101399
1550.727532	160.202797
1552.640191	154.504895
1554.556054	156.280420
1556.469677	152.390210
1558.381062	157.447552
1560.293837	161.470629
1562.202562	155.106294
1564.112676	149.430070
1566.022367	156.920280
1567.931635	159.988811
1569.838669	161.746154
1571.743470	168.490210
1573.649660	164.804196
1575.553618	169.419580
1577.457155	175.461538
1579.360272	175.929371
1581.261159	188.464336
1583.163435	185.571329
1585.063483	184.343357
1586.964918	188.628671
1588.862320	184.475524
1590.759303	176.859441
1592.655868	175.047552
1594.553821	174.545455
1596.445939	171.730769
1598.341250	175.378322
1600.236144	164.395105
1602.128816	155.090210
1604.021071	151.860839
1605.911107	145.482517
1607.800727	151.374825
1609.689932	154.967133
1611.578722	160.679021
1613.465294	159.383217
1615.353254	160.606294
1617.237197	157.900699
1619.122527	162.654545
1621.007444	164.808392
1622.890147	161.676224
1624.774237	170.138462
1626.654315	166.610490
1628.535781	165.613986
1630.415036	162.727273
1632.295677	163.851049
1634.170514	169.850350
1636.050332	168.498601
1637.926146	162.476224
1639.801549	154.525874
1641.678338	157.837762
1643.549331	162.360140
1645.423505	166.139161
1647.293680	170.358042
1649.167037	167.408392
1651.038190	161.590909
1652.907141	162.544056
1654.777477	159.751748
1656.643821	154.541958
1658.511550	155.023776
1660.377080	143.835664
1662.243996	131.920280
1664.106923	133.237762
1665.971235	138.360140
1667.833351	128.541259
1669.695062	140.104895
1671.558159	149.789510
1673.419060	155.004895
1675.277769	151.869231
1677.136074	156.906294
1678.995764	147.350350
1680.849686	150.992308
1682.706782	140.158042
1684.563475	143.750350
1686.416191	145.657343
1688.272079	145.504196
1690.123993	137.605594
1691.975506	150.132168
1693.826618	152.537762
1695.677330	162.869930
1697.527641	157.221678
1699.375767	177.414685
1701.225278	183.417483
1703.069040	197.116084
1704.917751	192.851049
1706.760716	202.620280
1708.606848	205.186713
1710.449017	206.807692
1712.294352	219.158741
1714.133946	221.338462
1715.974924	218.718881
1717.817285	217.590210
1719.655690	203.757343
1721.495478	211.865035
1723.333091	220.160140
1725.170308	220.739161
1727.005352	222.867133
1728.841779	220.699301
1730.676034	222.594406
1732.509894	234.756643
1734.343360	242.410490
1736.172881	235.371329
1738.005560	232.993706
1739.834295	218.137762
1741.666187	203.089510
1743.494137	193.865734
1745.321696	190.621678
1747.148862	182.796503
1748.975637	184.489510
1750.802020	177.147552
1752.624467	197.287413
1754.450069	209.120280
1756.271736	220.155245
1758.094785	236.844755
1759.915672	243.339860
1761.736171	227.977622
1763.558051	228.195804
1765.374231	213.067832
1767.193563	211.225175
1769.008968	191.005594
1770.827523	180.899301
1772.642153	177.673427
1774.456396	182.913287
1776.270253	176.054545
1778.083723	192.867133
1779.895040	198.344755
1781.707737	203.847552
1783.520049	194.530070
1785.328443	212.719580
1787.138217	193.779021
1788.944077	192.740559
1790.753082	169.536364
1792.558174	167.554545
1794.364647	156.495804
1796.170736	163.047552
1797.972914	168.138462
1799.778237	182.948951
1801.579651	177.470629
1803.382445	175.972727
1805.181333	169.123077
1806.981602	180.453846
1808.781489	159.976923
1810.579234	155.497902
1812.376599	147.488112
1814.173584	152.518182
1815.970188	150.100000
1817.764653	161.097902
1819.560497	165.376224
1821.350686	174.379720
1823.145772	173.148951
1824.935206	173.886014
1826.727776	178.561538
1828.518211	181.858741
1830.306512	189.070629
1832.097948	191.359441
1833.883738	186.337762
1835.670908	182.055944
1837.455946	169.759441
1839.244118	155.863636
1841.028404	148.973427
1842.810560	147.808392
1844.594096	149.906294
1846.375503	154.058042
1848.158289	157.472028
1849.937194	161.053846
1851.717479	168.518881
1853.495637	169.569930
1855.275174	158.469930
1857.052586	154.660839
1858.827874	145.910490
1860.604540	141.420280
1862.379084	137.200000
1864.155006	147.216783
1865.925307	158.463636
1867.698736	169.744056
1869.470045	173.213287
1871.240983	175.667133
1873.013299	172.697902
1874.780001	178.994406
1876.549829	171.530769
1878.315793	163.597902
1880.084880	159.940559
1881.850106	154.659441
1883.614964	150.179021
1885.381199	157.454545
1887.143575	155.406993
1888.905584	157.984615
1890.667225	157.479720
1892.428500	164.828671
1894.189407	157.086713
1895.949948	164.082517
1897.708379	162.103497
1899.466444	157.847552
1901.222402	164.816783
1902.979736	161.881818
1904.736705	159.667832
1906.491567	157.004895
1908.244325	153.674126
1909.996718	154.355245
1911.750488	150.669231
1913.502154	157.201399
1915.251718	150.095105
1917.002657	156.367832
1918.753234	157.320280
1920.499971	160.262238
1922.248085	163.734266
1923.994099	154.732867
1925.741488	156.346853
1927.486780	155.430070
1929.229974	154.778322
1930.974543	155.472727
1932.717017	159.993706
1934.459130	158.334965
1936.200883	153.482867
1937.942276	153.136364
1939.681576	150.297552
1941.420517	152.709091
1943.159099	152.540210
1944.895590	149.809790
1946.631723	164.956993
1948.369230	167.626573
1950.102915	172.164685
1951.837975	177.274825
1953.570946	169.627622
1955.303561	158.149650
1957.035820	151.194056
1958.767722	146.032168
1960.497538	145.452448
1962.225269	147.747552
1963.954375	147.240559
1965.683126	150.202797
1967.409793	161.146853
1969.136106	158.497203
1970.863792	166.365734
1972.585942	163.906993
1974.311193	162.706993
1976.032637	170.006294
1977.757182	172.533566
1979.479646	177.753147
1981.198308	179.114685
1982.920068	170.862937
1984.638026	163.951748
1986.357357	157.614685
1988.072889	147.476923
1989.793241	141.370629
1991.509795	138.965035
1993.222552	137.865734
1994.938405	138.286014
1996.652186	142.488112
1998.365617	142.930070
2000.076977	146.137762
2001.789709	142.272028
2003.498651	142.903497
2005.210685	140.883916
2006.917211	149.751049
2008.626828	152.524476
2010.334379	166.114685
2012.041581	161.421678
2013.746718	163.274825
2015.451509	150.925175
2017.157671	152.211888
2018.860051	143.739860
2020.563802	144.843357
2022.265491	139.554545
2023.966835	139.404196
2025.667833	138.553147
2027.366770	151.093706
2029.067079	149.476923
2030.763613	150.855245
2032.461518	141.418182
2034.157364	150.550350
2035.856296	144.424476
2037.549742	145.452448
2039.244559	141.159441
2040.939034	147.790909
2042.629740	143.095105
2044.323530	141.307692
2046.013553	143.192308
2047.704947	144.060839
2049.394288	139.911888
2051.084999	144.425175
2052.771947	148.197203
2054.458556	159.430070
2056.146534	155.065734
2057.830753	153.002797
2059.516343	154.962937
2061.201593	148.051049
2062.884794	142.195804
2064.569366	137.244755
2066.248475	137.578322
2067.932369	141.013287
2069.610802	148.788112
2071.292313	154.573427
2072.970072	158.484615
2074.647495	168.337063
2076.326287	163.402797
2078.003037	161.690210
2079.677745	161.360839
2081.353822	153.220280
2083.027859	152.706993
2084.701560	156.047552
2086.374926	160.104196
2088.046253	156.854545
2089.717246	152.230769
2091.387905	147.058741
2093.058230	150.477622
2094.728221	150.056643
2096.396176	142.609091
2098.063798	146.613986
2099.729385	146.140559
2101.396341	145.478322
2103.061264	146.084615
2104.725855	147.401399
2106.388414	142.152448
2108.052341	135.173427
2109.714237	130.365734
2111.375803	135.779021
2113.037037	138.329371
2114.696243	139.670629
2116.355118	145.767133
2118.013664	151.890909
2119.671880	151.879021
2121.326372	154.281818
2122.983929	151.442657
2124.641157	148.339860
2126.294663	146.413287
2127.949537	143.581818
2129.600692	142.065734
2131.254910	145.732867
2132.905411	146.352448
2134.557278	154.086713
2136.203737	153.866434
2137.854951	155.854545
2139.502451	157.718881
2141.151318	156.297902
2142.798166	156.753147
2144.444689	151.511888
2146.090886	145.036364
2147.733375	141.853846
2149.378922	139.695105
2151.020762	142.950350
2152.665659	151.760839
2154.306850	157.495105
2155.947719	155.393706
2157.588263	152.434266
2159.226795	152.067133
2160.866693	150.860140
2162.502891	155.690210
2164.140455	147.241958
2165.777697	144.596503
2167.412929	144.517483
2169.047840	142.683217
2170.682428	143.906993
2172.316696	146.250350
2173.947270	148.134965
2175.580896	145.165734
2177.210830	147.731469
2178.842129	145.953846
2180.471423	143.347552
2182.100398	145.065035
2183.729053	146.534965
2185.357389	148.168531
2186.983723	146.443357
2188.609738	146.566434
2190.233751	143.418881
2191.859130	143.207692
2193.482508	143.314685
2195.107251	139.804895
2196.728313	150.271329
2198.349058	147.602098
2199.971168	150.127972
2201.591280	149.489510
2203.209395	154.748252
2204.827195	150.281119
2206.444680	150.969930
2208.061849	153.634266
2209.678703	155.610490
2211.295241	149.027273
2212.909787	153.354545
2214.522340	153.495105
2216.136257	162.518182
2217.748183	161.476923
2219.361472	157.538462
2220.972771	146.877622
2222.582080	148.339860
2224.192753	143.518881
2225.801437	142.859441
2227.409808	142.623776
2229.016193	143.855245
2230.623941	142.206294
2232.229702	145.641958
2233.835152	143.972028
2235.438617	142.960140
2237.043445	140.062238
2238.646289	143.629371
2240.247150	142.973427
2241.849374	148.423776
2243.449616	148.363636
2245.051220	148.854545
2246.649171	155.985315
2248.248485	158.350350
2249.845819	156.921678
2251.442845	155.950350
2253.041233	158.005594
2254.635972	156.472028
2256.228734	151.062238
2257.822859	149.999301
2259.418345	137.920979
2261.010186	143.467832
2262.601721	145.946154
2264.194618	145.791608
2265.782205	149.995105
2267.374488	148.329371
2268.961465	150.479720
2270.551469	147.336364
2272.136169	143.162238
2273.725563	142.034266
2275.309655	137.804196
2276.895107	142.752448
2278.478591	145.242657
2280.065100	156.706993
2281.647976	152.475524
2283.230549	145.619930
2284.812818	142.673427
2286.391457	141.205245
2287.973121	134.637762
2289.551156	125.018531
2291.132214	122.470629
2292.709645	123.189161
2294.285113	118.754545
2295.863603	128.658392
2297.438469	127.265035
2299.013034	131.544406
2300.587299	135.653846
2302.161263	137.984266
2303.734926	140.006294
2305.308290	143.421678
2306.878035	144.980420
2308.447481	157.097902
2310.019945	156.626573
2311.587135	154.465035
2313.157343	142.347552
2314.723936	141.930070
2316.291889	143.002098
2317.857886	151.812587
2319.423586	158.965734
2320.988988	157.374825
2322.552437	155.884615
2324.117245	154.812587
2325.678445	164.825874
2327.242659	170.762937
2328.801611	176.850350
2330.363578	174.374126
2331.923593	164.486713
2333.483314	150.724476
2335.041085	157.146154
2336.598561	157.467832
2338.155743	163.606993
2339.710977	166.382517
2341.265918	167.218182
2342.820564	163.825175
2344.374917	172.615385
2345.928977	174.565035
2347.482742	178.903497
2349.034564	172.115385
2350.584442	165.010490
2352.137328	156.748252
2353.684972	165.721678
2355.235623	169.341259
2356.782683	173.897902
2358.331101	175.534266
2359.879228	171.909091
2361.423766	166.642657
2362.969662	167.530769
2364.513620	162.196503
2366.058935	144.615385
2367.600665	137.951748
2369.143752	147.214685
2370.684903	152.248951
2372.225765	158.809091
2373.766338	159.630070
2375.306622	168.342657
2376.846617	173.123776
2378.383034	181.997203
2379.922452	184.613287
2381.458293	176.845455
2382.995490	167.401399
2384.529112	150.446154
2386.065734	154.125175
2387.600426	162.497902
2389.133188	163.692308
2390.665663	153.116783
2392.196210	153.179720
2393.729755	163.169930
2395.258089	161.254545
2396.787780	161.995804
2398.317184	163.755245
2399.846304	165.830769
2401.375139	169.779720
2402.898768	176.691608
2404.427033	191.687413
2405.950096	184.645455
2407.477792	185.300000
2408.998649	165.958741
2410.524139	168.474825
2412.046068	166.269930
2413.569353	155.651748
2415.090716	144.044056
2416.610160	152.933566
2418.130959	146.276923
2419.649840	151.754545
2421.168438	171.102797
2422.685119	176.943357
2424.203154	172.954545
2425.720908	168.634965
2427.235111	159.937063
2428.749033	159.332867
2430.262675	162.751049
2431.777672	155.753846
2433.289120	161.442657
2434.801923	173.944056
2436.312812	169.106294
2437.823423	188.911888
2439.332122	190.888811
2440.843807	178.087413
2442.351949	171.101399
2443.859813	156.944755
2445.367399	154.047552
2446.871444	152.124476
2448.378474	155.266434
2449.883597	163.011189
2451.388441	185.758741
2452.891379	193.010490
2454.394041	195.729371
2455.896426	206.703497
2457.396906	200.079021
2458.898739	187.937063
2460.398667	179.683916
2461.898320	159.899301
2463.397698	142.797902
2464.895173	124.870629
2466.390746	109.675524
2467.889299	105.806294
2469.384324	110.799301
2470.880701	109.499301
2472.373552	115.594406
2473.867756	140.075524
2475.361686	154.518881
2476.852092	171.108392
2478.345476	177.559441
2479.836962	170.457343
2481.326551	176.590909
2482.815868	173.423077
2484.303289	175.699301
2485.793686	180.881818
2487.280565	196.742657
2488.768795	197.752448
2490.253508	196.280420
2491.737952	193.962238
2493.223746	186.441259
2494.707649	192.786014
2496.192902	182.772028
2497.673022	177.352448
2499.156115	168.298601
2500.637317	154.662238
2502.118250	146.856643
2503.597294	143.186713
2505.076069	139.925874
2506.554576	138.213986
2508.032815	142.343357
2509.510785	134.352448
2510.985250	144.832867
2512.462685	158.658042
2513.936616	157.912587
2515.411897	157.727273
2516.886911	142.904196
2518.358425	137.341958
2519.831288	127.423776
2521.302269	130.568531
2522.774600	132.912587
2524.241817	149.937762
2525.712001	156.738462
2527.180304	159.620979
2528.648342	174.814685
2530.116115	173.587413
2531.583623	168.054545
2533.050866	161.030769
2534.514617	144.381818
2535.979718	150.346154
2537.442942	151.335664
2538.907516	155.332867
2540.368600	153.757343
2541.831034	156.265035
2543.293205	143.781818
2544.751890	153.343357
2546.215147	158.661538
2547.673307	161.413986
2549.132816	161.807692
2550.587231	156.183916
2552.046217	162.469231
2553.503331	169.459441
2554.958574	179.595105
2556.413555	174.183217
2557.866668	172.050350
2559.321129	169.702098
2560.773720	153.147552
2562.226052	150.624476
2563.676517	147.327972
2565.129937	147.748252
2566.578275	139.020280
2568.029569	135.534266
2569.478996	139.720979
2570.924951	146.618881
2572.373861	157.997902
2573.819301	146.790210
2575.266088	149.874825
2576.711013	152.909790
2578.155679	150.395804
2579.601693	142.484615
2581.044241	146.895804
2582.488136	150.811189
2583.928566	143.412587
2585.370343	145.269231
2586.810261	147.111189
2588.251526	156.029371
2589.689329	146.260140
2591.130082	139.113287
2592.565773	141.706294
2594.004413	148.145455
2595.441195	150.218182
2596.876122	133.158042
2598.313996	132.364336
2599.746813	123.997203
2601.180977	125.774825
2602.613287	127.811888
2604.046943	127.815385
2605.478746	134.118881
2606.910295	135.021678
2608.341592	136.530769
2609.771036	133.839860
2611.200228	141.736364
2612.627570	147.234266
2614.056257	141.715385
2615.484693	141.955245
2616.909681	139.915385
2618.336016	144.516084
2619.760502	142.877622
2621.186334	143.027972
2622.608722	144.485315
2624.032456	143.737762
2625.454343	140.838462
2626.875981	144.367133
2628.295773	156.704196
2629.716911	157.679720
2631.137799	162.520979
2632.555249	159.127972
2633.975638	150.988112
2635.392590	138.997902
2636.809293	141.962937
2638.225748	136.425874
2639.641955	133.580420
2641.057914	126.044755
2642.472032	125.369930
2643.885902	130.755944
2645.297934	130.508392
2646.711309	130.977622
2648.121255	136.493007
2649.534137	133.502098
2650.943590	134.511888
2652.352797	139.316084
2653.760168	148.162937
2655.170473	149.659441
2656.578943	153.455944
2657.985577	143.923077
2659.391966	142.084615
2660.796521	142.093706
2662.202420	146.343357
2663.606486	147.877622
2665.010307	149.205594
2666.413884	139.849650
2667.815630	144.203497
2669.218719	144.027273
2670.618390	141.251748
2672.019405	139.809790
2673.417004	136.790909
2674.817533	124.075524
2676.214646	121.909091
2677.613103	122.876923
2679.009733	125.169930
2680.406120	130.900699
2681.802265	126.706993
2683.196585	117.243357
2684.592246	125.847552
2685.984499	125.460140
2687.378094	127.666434
2688.769865	132.868531
2690.162979	131.462238
2691.554269	130.881818
2692.943736	133.820979
2694.332963	130.530769
2695.721951	132.267832
2697.112280	127.308392
2698.497626	113.932168
2699.885895	110.920280
2701.272344	110.777622
2702.658554	104.735664
2704.044525	109.562937
2705.427098	115.087413
2706.811013	115.585315
2708.194690	117.015385
2709.578128	121.888112
2710.958172	121.066434
2712.339556	125.345455
2713.719126	118.339860
2715.100036	127.835664
2716.479132	126.351049
2717.856414	129.177622
2719.235037	128.965734
2720.611847	125.641958
2721.988420	121.074825
2723.364758	112.023077
2724.739285	105.069231
2726.115152	110.392308
2727.487632	105.935664
2728.863028	115.385315
2730.233464	118.461538
2731.605241	132.406993
2732.976783	135.502098
2734.346517	141.079720
2735.717592	140.875524
2737.086858	138.797203
2738.455891	141.055944
2739.823118	144.230769
2741.190112	150.842657
2742.556872	144.283217
2743.923401	136.441259
2745.288124	136.906993
2746.652615	127.911189
2748.016875	136.672028
2749.380902	134.231469
2750.744698	119.551748
2752.105120	119.853147
2753.468452	117.253846
2754.826842	120.951049
2756.188142	127.336364
2757.546072	126.640559
2758.906910	113.846853
2760.265949	100.565035
2761.621619	92.803497
2762.980197	103.127273
2764.335408	123.386713
2765.690390	133.604895
2767.043576	135.065035
2768.399668	145.516783
2769.752395	142.645455
2771.104895	148.641958
2772.457166	146.297902
2773.810776	135.986014
2775.161024	131.666434
2776.509478	114.361538
2777.860838	109.761538
2779.208838	113.839860
2780.558176	118.884615
2781.905722	118.871329
2783.253042	122.221678
2784.600135	121.868531
2785.945437	122.602797
2787.290512	126.836364
2788.635362	128.051748
2789.979986	131.969231
2791.321258	140.551049
2792.663868	136.993007
2794.006252	140.758042
2795.348411	141.495804
2796.687221	139.082517
2798.028931	138.073427
2799.367293	145.985315
2800.706991	140.555245
2802.044905	144.672727
2803.381034	140.085315
2804.716939	137.488112
2806.054182	132.327273
2807.389641	126.458741
2808.724877	114.048252
2810.058330	114.133566
2811.393120	108.918881
2812.724570	109.996503
2814.058915	120.019580
2815.388362	122.185315
2816.719146	125.786014
2818.049708	137.083217
2819.378491	137.262238
2820.708610	140.585315
2822.036951	136.764336
2823.365071	140.592308
2824.691413	127.285315
2826.019092	137.539161
2827.343437	142.011189
2828.669119	142.695804
2829.993025	144.265035
2831.316712	137.069930
2832.641734	135.418182
2833.963426	132.086014
2835.284900	121.136364
2836.606155	120.174126
2837.927191	111.162238
2839.246454	114.495105
2840.567053	107.539161
2841.885881	118.835664
2843.204490	112.054545
2844.521328	107.746853
2845.837949	115.057343
2847.154353	114.903497
2848.468987	125.838462
2849.784957	129.657343
2851.097606	130.547552
2852.411590	137.659441
2853.725358	131.397203
2855.038909	133.585315
2856.350694	128.945455
2857.660712	128.931469
2858.972065	110.927972
2860.280103	111.421678
2861.589475	111.788811
2862.898633	105.371329
2864.207575	102.801399
2865.514753	108.627972
2866.820169	98.657343
2868.126919	99.941259
2869.431906	92.569930
2870.736680	90.818182
2872.039692	90.687413
2873.345585	95.668531
2874.646624	91.854545
2875.948997	110.269231
2877.249610	120.611189
2878.551557	122.248252
2879.853290	126.883916
2881.151720	145.504196
2882.451483	135.596503
2883.749489	139.767133
2885.047283	128.917483
2886.343321	121.596503
2887.640692	116.063636
2888.936307	110.016783
2890.231711	102.834266
2891.526904	106.512587
2892.818800	102.208392
2894.113572	98.554545
2895.405047	104.443357
2896.697855	107.976923
2897.990453	110.341259
2899.279757	119.430070
2900.570393	119.267133
2901.859278	124.538462
2903.149495	122.251049
2904.436421	119.614685
2905.724679	114.532168
2907.011188	119.283916
2908.297489	108.812587
2909.583581	107.076923
2910.867925	107.277622
2912.155140	105.348252
2913.437529	104.434965
2914.721250	106.576923
2916.003225	106.729371
2917.284992	110.526573
2918.565015	108.832867
2919.847907	117.603497
2921.129054	125.353147
2922.406919	135.919580
2923.687653	125.453147
2924.965106	127.857343
2926.242353	122.267133
2927.517858	114.865734
2928.796231	105.815385
2930.069790	108.558741
2931.346216	107.493007
2932.620901	111.097902
2933.893845	114.555245
2935.168121	126.872727
2936.440657	129.548252
2937.712988	139.181818
2938.982047	138.282517
2940.253971	135.762937
2941.524157	130.030070
2942.794139	124.934965
2944.063918	128.920280
2945.331961	127.076923
2946.598267	123.058042
2947.864372	125.316783
2949.131806	121.148951
2950.397506	130.713986
2951.663003	126.496503
2952.928298	132.071329
2954.190328	125.166434
2955.453688	114.860839
2956.716847	115.329371
2957.978274	115.699301
2959.241030	115.886713
2960.502054	104.544755
2961.761348	111.258741
2963.020442	120.546853
2964.279335	127.016084
2965.538028	126.960140
2966.796521	112.870629
2968.053285	109.527273
2969.309849	106.208392
2970.564686	102.535664
2971.820851	100.847552
2973.073762	97.486713
2974.328002	95.560140
2975.582043	89.774825
2976.834358	102.405594
2978.086474	107.306993
2979.336866	103.640559
2980.590113	102.381818
2981.838583	110.144056
2983.089908	132.738462
2984.337983	146.718881
2985.585862	149.872028
2986.833543	146.608392
2988.081027	149.718182
2989.326790	143.961538
2990.572357	133.066434
2991.819251	119.287413
2993.062901	106.521678
2994.307879	98.979021
2995.549613	103.991608
2996.794199	103.479720
2998.037066	101.446154
2999.276692	95.319580
3000.519168	90.056643
3001.758404	89.711888
3002.998968	99.555944
3004.237816	99.414685
3005.476468	102.831469
3006.713406	94.915385
3007.951670	104.789510
3009.188219	109.432168
3010.424575	105.853846
3011.660737	102.188112
3012.895185	100.144056
3014.129441	102.944755
3015.363503	104.265734
3016.595853	110.381119
3017.826491	115.191608
3019.059975	112.522378
3020.291747	118.363636
3021.521809	107.977622
3022.751679	106.495105
3023.979839	100.951748
3025.209325	102.814685
3026.437102	112.780420
3027.664688	120.504895
3028.893601	118.813287
3030.117771	116.824476
3031.344784	111.453846
3032.568573	101.630769
3033.793689	94.044056
3035.017098	101.174126
3036.240317	84.944056
3037.461831	88.509790
3038.686186	100.462238
3039.905806	120.644056
3041.126752	129.831469
3042.347509	129.848951
3043.566562	127.825175
3044.786940	120.255944
3046.004102	111.125874
3047.222590	115.447552
3048.439375	112.425874
3049.655973	114.174825
3050.872382	104.137063
3052.085579	105.213986
3053.301613	105.996503
3054.514435	102.179021
3055.730094	88.715385
3056.941030	79.440559
3058.153291	75.398601
3059.365366	72.448951
3060.577253	80.948951
3061.787444	95.901399
3062.997448	96.612238
3064.207266	99.858042
3065.415388	101.630420
3066.623325	107.728671
3067.829566	99.483566
3069.037132	93.309091
3070.243003	89.267483
3071.448690	88.979021
3072.654191	88.429021
3073.857999	94.420280
3075.063131	104.067483
3076.266570	105.695804
3077.468318	105.581469
3078.669881	105.913287
3079.871261	108.667133
3081.072457	109.940559
3082.271963	93.184615
3083.471286	97.366434
3084.671932	99.660839
3085.870888	103.166434
3087.066650	110.177622
3088.265241	108.062937
3089.460638	106.854545
3090.657358	106.648252
3091.850886	113.486014
3093.047242	113.854545
3094.241912	113.814685
3095.433391	111.433566
3096.629201	104.490210
3097.820318	109.005594
3099.012757	96.208392
3100.202009	90.706294
3101.394086	88.606294
3102.584480	83.811888
3103.771688	85.768531
3104.960219	96.339161
3106.150071	103.602797
3107.336740	111.368531
3108.523228	114.723776
3109.709538	121.788112
3110.897169	120.220280
3112.081618	118.572727
3113.264388	102.151748
3114.449980	96.858741
3115.633893	99.649650
3116.816127	99.285315
3117.998182	99.472727
3119.180059	95.638462
3120.361758	99.708392
3121.541780	106.486713
3122.720125	107.843357
3123.901290	117.222378
3125.079280	106.231469
3126.257094	105.241958
3127.434730	94.367832
3128.610691	94.499301
3129.786475	104.669930
3130.963581	102.106993
3132.139012	96.626573
3133.312770	91.516783
3134.484855	92.094406
3135.658262	98.255944
3136.831492	100.172727
3138.003051	101.431469
3139.175930	93.102797
3140.345642	99.086713
3141.516675	98.835664
3142.686038	109.229371
3143.853730	113.522378
3145.024238	109.522378
3146.190088	101.180420
3147.360246	99.537762
3148.525748	88.974825
3149.691075	93.026573
3150.856229	86.660140
3152.021210	87.761538
3153.187510	83.816084
3154.349158	76.469930
3155.512125	73.814685
3156.674920	75.758042
3157.837542	77.090210
3158.998499	85.181818
3160.159283	85.172727
3161.319895	87.901399
3162.478843	88.207692
3163.637620	94.004895
3164.796225	89.113287
3165.954657	90.111888
3167.112919	81.325175
3168.269518	73.039161
3169.424456	73.551049
3170.580713	77.245455
3171.735309	77.590909
3172.889735	79.500000
3174.042501	75.930070
3175.195096	81.704196
3176.347522	83.825175
3177.499778	87.412587
3178.651863	88.739860
3179.800803	89.887413
3180.952549	88.831469
3182.102637	90.358042
3183.251069	89.137063
3184.399331	95.886713
3185.547425	94.650350
3186.695350	90.004895
3187.841619	84.844755
3188.987720	86.172727
3190.132167	82.751049
3191.276446	79.773427
3192.420557	75.098601
3193.565985	66.730769
3194.708275	66.221678
3195.850398	66.360140
3196.992353	72.937063
3198.134141	83.857343
3199.275762	91.556643
3200.414248	96.830070
3201.554051	104.046154
3202.695172	107.712587
3203.833158	101.029371
3204.969495	104.902098
3206.105666	105.346853
3207.243154	99.631469
3208.378994	96.067133
3209.516151	91.125874
3210.648695	98.140559
3211.785521	95.697902
3212.917735	102.038462
3214.051266	103.777622
3215.184633	101.987413
3216.314872	93.652448
3217.447909	91.534965
3218.577820	107.918881
3219.709047	106.846154
3220.837150	100.330769
3221.968049	90.991608
3223.097304	86.226573
3224.224916	84.374825
3225.349405	79.875524
3226.478170	78.722378
3227.603813	77.144056
3228.729294	76.707692
3229.853133	76.982517
3230.979766	82.735664
3232.101802	83.427972
3233.225154	79.697203
3234.348344	74.981119
3235.471372	72.339161
3236.592760	62.743357
3237.713986	62.469930
3238.833575	67.820979
3239.953002	73.939161
3241.070791	83.965734
3242.191372	84.416783
3243.308840	87.297203
3244.426147	84.054545
3245.543294	74.965734
3246.658805	71.927972
3247.775630	70.925175
3248.889346	72.325874
3250.005851	70.779720
3251.120722	78.584615
3252.232484	80.021678
3253.344086	83.743357
3254.457004	90.311189
3255.569762	83.484615
3256.679414	87.385315
3257.790381	80.548951
3258.901189	72.100699
3260.010365	67.132867
3261.117911	69.988112
3262.226770	74.141259
3263.335472	73.282517
3264.441071	71.102797
3265.547984	71.619580
3266.653268	79.189510
3267.759866	87.851049
3268.863364	85.352448
3269.968177	90.665734
3271.072832	87.567133
3272.174388	82.125874
3273.275788	78.318881
3274.378502	84.997902
3275.481060	86.039161
3276.580521	87.355245
3277.682766	92.625874
3278.781915	97.953846
3279.879440	96.867832
3280.976809	95.548951
3282.076960	94.403497
3283.174019	92.216783
3284.270922	84.278322
3285.367670	80.641259
3286.459860	73.526573
3287.556298	77.171329
3288.651114	80.421678
3289.745776	78.769930
3290.838816	78.331469
3291.931701	76.487413
3293.022967	80.056643
3294.115544	78.321678
3295.206502	71.947552
3296.295840	73.169930
3297.385025	73.858042
3298.475523	79.214685
3299.562936	74.182517
3300.650196	77.480420
3301.738769	79.939161
3302.827190	71.193706
3303.911063	65.756643
3304.999178	65.046853
3306.084211	66.232168
3307.167629	63.759441
3308.252359	65.275524
3309.335473	75.290210
3310.419900	78.446154
3311.501248	90.513287
3312.583908	100.224476
3313.664954	113.042657
3314.745849	120.205594
3315.825130	119.849650
3316.904261	112.652448
3317.984704	105.771329
3319.062072	96.181119
3320.140752	95.876224
3321.217820	83.358042
3322.294739	79.230070
3323.370046	77.030070
3324.445204	80.164336
3325.521673	79.824476
3326.595072	75.603497
3327.668322	78.443357
3328.742882	75.520979
3329.815834	72.404196
3330.887177	68.109790
3331.959831	67.986014
3333.029419	69.925874
3334.100317	71.781119
3335.169608	80.112587
3336.240210	81.920979
3337.309205	85.358042
3338.376594	84.021678
3339.442378	82.581119
3340.512388	91.189510
3341.579335	92.311888
3342.643220	94.653846
3343.709873	90.038462
3344.774921	86.048951
3345.838366	83.459441
3346.901665	74.547552
3347.964817	61.991608
3349.027823	48.326573
3350.090683	52.052448
3351.151941	52.815385
3352.210142	52.623077
3353.272563	64.274126
3354.331929	82.944056
3355.391149	95.053147
3356.451679	107.582517
3357.507699	115.828671
3358.566483	123.850350
3359.620760	116.022378
3360.677801	104.040559
3361.733243	94.270629
3362.789995	93.097203
3363.845148	87.281119
3364.898704	76.556643
3365.950664	75.038462
3367.005385	79.109790
3368.057057	78.428671
3369.108586	80.797902
3370.161423	78.034266
3371.211213	79.277622
3372.262312	74.320979
3373.310365	67.867832
3374.361177	64.828671
3375.408945	66.905594
3376.456570	71.269930
3377.504052	69.322378
3378.549942	61.443357
3379.597140	62.311888
3380.641296	71.434965
3381.688210	71.423077
3382.733532	72.779021
3383.775813	72.313287
3384.817954	73.180420
3385.861402	70.993007
3386.904709	69.301399
3387.946427	75.337063
3388.988003	77.765734
3390.029438	75.574825
3391.069285	72.871329
3392.107543	80.381119
3393.147109	86.378322
3394.186535	86.234266
3395.224373	87.294406
3396.260624	85.381119
3397.296736	83.234266
3398.334155	85.480420
3399.368541	83.973427
3400.404234	88.795105
3401.439788	88.739860
3402.472311	89.547552
3403.507587	89.788811
3404.539832	95.804196
3405.571939	95.817483
3406.602462	98.355944
3407.634292	100.572028
3408.665984	103.701399
3409.694648	100.857343
3410.723175	101.725175
3411.753008	93.836364
3412.782704	92.467133
3413.809374	90.574126
3414.837351	84.578322
3415.862303	77.641958
3416.890005	77.159441
3417.914684	76.389510
3418.940669	76.943357
3419.965074	75.590909
3420.989343	78.162937
3422.012033	78.051748
3423.034587	71.519580
3424.058447	65.542657
3425.079287	69.088112
3426.099991	68.179121
3427.122002	68.193931
3428.140994	69.510689
3429.159850	72.507542
3430.180013	77.562637
3431.197159	85.054121
