-118.059454	-8.548626
-115.389854	-4.521978
-112.723189	-1.379670
-110.057276	0.953646
-107.394295	2.553322
-104.729885	3.494705
-102.068405	3.853147
-99.405496	2.258741
-96.747693	1.622378
-94.088461	3.696503
-91.429977	2.104895
-88.774417	3.320280
-86.117429	3.340559
-83.465539	2.237063
-80.812218	3.170629
-78.161818	3.709790
-75.509988	5.087413
-72.863249	3.673427
-70.215081	3.611189
-67.567655	4.588811
-64.923143	2.008392
-62.277203	1.013986
-59.636344	1.990210
-56.994056	2.530769
-54.354677	1.372727
-51.713868	-2.069231
-49.073800	-3.298601
-46.438804	-3.858741
-43.802380	-3.186713
-41.168858	-3.579720
-38.533908	-3.031469
-35.904023	-0.592308
-33.270546	-1.343357
-30.642131	0.178322
-28.014450	2.489510
-25.385340	1.205594
-22.761287	-3.354545
-20.133645	-24.734965
-17.511056	-49.253846
-14.889199	-96.597203
-12.268072	15.590210
-9.647675	272.444755
-7.030167	490.019580
-4.411230	645.067832
-1.795178	737.730769
0.820145	763.425175
3.434741	726.972028
6.046454	626.945455
8.659596	464.606294
11.267704	254.868531
13.879394	39.946154
16.486053	-124.934965
19.094140	-94.106294
21.701503	-6.543357
24.303841	5.445455
26.909757	7.000699
29.510651	9.394406
32.112973	7.643357
34.710278	6.986713
37.311158	5.903497
39.907023	5.969231
42.504317	5.106294
45.100891	2.190210
47.692456	2.324476
50.285449	-0.792308
52.875581	-4.313287
55.467141	-5.752448
58.055841	-6.814685
60.645968	-8.351049
63.231096	-8.620979
65.817652	-6.904895
68.403494	-1.708392
70.986482	0.495105
73.570896	-0.908392
76.148182	-0.164336
78.729034	-0.176923
81.307037	-3.016084
83.884330	-2.963636
86.463049	-2.906294
89.036786	-1.966434
91.611951	-2.872028
94.184272	-0.722378
96.755885	3.020280
99.324658	5.504895
101.894858	3.764336
104.462220	3.872028
107.031007	2.797203
109.596958	1.165734
112.160074	0.432867
114.726746	0.628671
117.284197	0.245455
119.847333	0.413287
122.405509	-1.620979
124.967240	-0.144056
127.524014	1.411888
130.082215	3.917483
132.635462	5.893007
135.188012	11.794406
137.744112	15.909790
140.295264	22.598601
142.845719	29.118881
145.395476	36.148252
147.942414	38.980420
150.488657	42.365035
153.036325	42.542657
155.583297	41.345455
158.125334	38.424476
160.666677	38.862238
163.207327	38.810490
165.749403	39.988112
168.288667	37.381119
170.825123	37.517483
173.360887	40.548951
175.898077	43.003497
178.434576	40.451748
180.968269	40.567832
183.499158	40.562937
186.029360	43.076224
188.560986	43.591608
191.089811	46.605594
193.615837	45.809790
196.141177	45.204196
198.667942	41.634266
201.191911	40.446154
203.715195	39.814685
206.237794	36.746154
208.757600	33.985315
211.276723	35.104196
213.795163	38.121678
216.315027	39.930070
218.827890	43.563636
221.344284	45.211888
223.859996	43.771329
226.370818	45.570629
228.883065	45.172727
231.392530	48.586713
233.901316	50.797902
236.409423	52.395804
238.918955	54.513986
241.423606	55.511888
243.927581	55.968531
246.432980	53.538462
248.933504	54.888112
251.437552	51.210490
253.934628	45.874126
256.435228	45.105594
258.933056	46.123077
261.430211	49.515385
263.926693	50.499301
266.418312	52.231469
268.913451	53.629371
271.405823	54.088112
273.897525	55.765035
276.386464	55.967832
278.876827	57.874126
281.364427	56.894406
283.849268	59.132168
286.337624	59.902797
288.819040	62.458741
291.303970	63.735664
293.784055	65.006294
296.267652	66.465734
298.746406	67.158042
301.226584	65.739860
303.704009	64.918182
306.180771	65.860839
308.656870	65.783916
311.130220	64.748252
313.602908	67.890909
316.074935	65.057343
318.546301	64.151049
321.014922	63.689510
323.482885	61.521678
325.952269	58.458042
328.416831	56.507692
330.884897	54.334965
333.348143	50.251049
335.810731	49.180420
338.272663	47.965035
340.733938	52.625175
343.192479	54.622378
345.652442	56.524476
348.109672	55.102797
350.566248	55.416084
353.022170	54.137762
355.475362	53.159441
357.929977	52.678322
360.379790	48.251748
362.833099	43.657343
365.281610	44.152448
367.729469	43.462937
370.178751	44.627972
372.623239	45.070629
375.069149	46.744755
377.514409	45.537762
379.956951	43.436364
382.398845	44.473427
384.840092	43.923077
387.278623	44.908392
389.718576	43.153147
392.155815	45.534266
394.590342	47.255944
397.028357	44.816084
399.461595	44.490210
401.896254	47.907692
404.326141	48.275524
406.759513	47.640559
409.188115	44.327273
411.616075	46.893706
414.045457	47.281119
416.470073	48.459441
418.896111	48.541958
421.321508	49.982517
423.746265	48.093007
426.166264	44.772028
428.587684	43.433566
431.006407	44.481119
433.426551	43.651748
435.844000	44.062238
438.262869	43.622378
440.679045	44.013986
443.090473	45.409091
445.505379	45.060839
447.917594	45.323077
450.329175	44.776923
452.740122	42.998601
455.148383	40.323776
457.556011	40.770629
459.963007	41.033566
462.369372	41.730769
464.773054	44.312587
467.176106	46.872028
469.578528	47.380420
471.980320	48.155245
474.379435	48.331469
476.779969	48.242657
479.179874	47.627972
481.575056	48.472727
483.973705	46.910490
486.367634	48.023077
488.760937	48.222378
491.153614	50.600699
493.545666	52.308392
495.939136	55.209091
498.327894	53.166434
500.713986	44.828671
503.101498	29.816084
505.488387	38.183217
507.872612	148.573427
510.258255	389.657343
512.641237	689.937762
515.021558	959.360140
517.403298	1152.341259
519.782379	1254.709091
522.162879	1256.723077
524.540721	1162.637762
526.915908	977.837762
529.290477	718.598601
531.666464	427.406294
534.039799	183.160140
536.414551	66.117483
538.784618	58.555245
541.154069	78.855245
543.524938	83.620979
545.891127	76.832867
548.258734	70.144056
550.623695	62.654545
552.988043	57.294406
555.351778	55.134965
557.716931	51.677622
560.077412	49.530070
562.439311	44.075524
564.798569	43.710490
567.155190	42.043357
569.515255	39.539161
571.868629	37.240559
574.225448	35.976224
576.579632	35.846853
578.933208	36.618881
581.286175	37.283217
583.636510	39.588811
585.988263	40.686713
588.333339	41.806294
590.683879	41.205594
593.027745	40.182517
595.377073	36.639860
597.721752	34.205594
600.063807	29.502098
602.407279	27.379720
604.748128	27.136364
607.088375	27.562238
609.426001	28.727273
611.767062	30.711888
614.103485	32.416783
616.441325	34.770629
618.776548	36.368531
621.109155	35.636364
623.443178	37.981119
625.774587	37.425874
628.105398	33.830070
630.435612	33.711888
632.765227	36.760839
635.090220	35.257343
637.420653	35.360839
639.746466	33.851049
642.069671	32.245455
644.394293	30.776224
646.716309	30.211888
649.037731	28.751748
651.356551	29.489510
653.676786	26.825874
655.996428	26.083916
658.313469	28.016084
660.629918	29.857343
662.943769	28.695105
665.259036	29.817483
667.571706	30.136364
669.885791	30.622378
672.195276	32.782517
674.506177	32.686713
676.814485	30.781119
679.122205	29.202797
681.431339	27.325874
683.735881	25.567832
686.039837	24.586014
688.343207	22.981119
690.647991	21.461538
692.948189	23.006993
695.249801	22.775524
697.550829	22.322378
699.847274	22.055245
702.145135	20.213287
704.442412	22.186713
706.739106	22.889510
709.031224	25.843357
711.326753	26.348252
713.617708	25.716783
715.910078	27.344755
718.199873	28.949650
720.489087	30.069231
722.777722	30.058042
725.063784	29.286713
727.351261	29.216783
729.636166	29.274126
731.920494	30.162937
734.202253	28.871329
736.485426	29.172727
738.768022	25.882517
741.046062	24.406294
743.325517	24.683217
745.604395	23.817483
747.882699	22.236364
750.156453	23.184615
752.431620	23.150350
754.706214	26.755944
756.978249	27.546853
759.251697	28.913287
761.522587	31.837762
763.790921	33.432168
766.060668	33.667133
768.327861	34.870629
770.594483	35.750350
772.860535	33.141958
775.124036	30.456643
777.388950	30.201399
779.653294	30.422378
781.913109	30.955245
784.174336	30.306993
786.434996	32.141259
788.693110	32.686713
790.948679	31.548252
793.207639	32.522378
795.460100	31.483916
797.717927	29.728671
799.971236	28.714685
802.222005	27.091608
804.474186	27.149650
806.723828	27.698601
808.974883	28.416783
811.221426	30.756643
813.469381	29.960140
815.714802	32.255245
817.961634	35.390210
820.207905	35.671329
822.449671	34.032168
824.694821	34.712587
826.933498	35.247552
829.175557	33.658741
831.413118	32.524476
833.652091	31.348252
835.888537	32.623077
838.126394	33.334965
840.361726	28.127273
842.594535	30.413986
844.828755	29.397902
847.060452	24.392308
849.291595	23.261538
851.522183	23.676923
853.752217	23.693007
855.981697	23.135664
858.206695	21.075524
860.435068	23.479021
862.658961	27.859441
864.884266	30.732867
867.105095	30.905594
869.329296	34.853147
871.549024	34.944056
873.770162	32.225175
875.990750	34.574126
878.208829	33.133566
880.428317	29.861538
882.643339	24.242657
884.857814	22.018182
887.071740	25.218182
889.285120	24.786713
891.497952	25.149650
893.710238	28.021678
895.920021	28.455944
898.129259	28.470629
900.337952	30.169231
902.544146	33.403497
904.751749	32.553147
906.956854	30.206294
909.161416	31.641259
911.363483	32.692308
913.566959	36.403497
915.767941	33.527972
917.968381	33.690909
920.170230	34.347552
922.365688	37.609790
924.564505	42.334266
926.758883	44.295105
928.956619	48.295804
931.149919	55.504196
933.344628	61.791608
935.536851	68.873427
937.728535	70.758741
939.919682	74.606294
942.108346	75.510490
944.296474	74.204196
946.482121	73.074126
948.671120	76.387413
950.855696	70.604196
953.039737	68.203497
955.227128	67.648951
957.406215	70.719580
959.588653	72.468531
961.770557	71.081818
963.949986	70.190909
966.126943	71.066434
968.305308	74.211888
970.485080	72.086713
972.658503	75.874825
974.835272	75.930070
977.007634	76.746853
979.181404	81.460140
981.350770	82.904196
983.523480	82.512587
985.693725	79.676224
987.863441	73.756643
990.032628	67.583217
992.197418	58.093706
994.365549	52.841958
996.529286	46.105594
998.694429	44.399301
1000.857113	38.987413
1003.019272	39.852448
1005.178974	37.345455
1007.338151	35.173427
1009.498735	30.587413
1011.656865	27.950350
1013.814470	32.903497
1015.971552	33.169930
1018.128110	34.416783
1020.280289	44.003497
1022.433875	49.432168
1024.586939	55.192308
1026.737554	55.724476
1028.889576	57.029371
1031.037224	55.955245
1033.188204	51.883916
1035.334813	45.637762
1037.480903	42.525874
1039.626475	43.608392
1041.773452	39.879021
1043.914140	39.721678
1046.058158	44.499301
1048.199735	37.693007
1050.340796	33.490210
1052.483261	32.668531
1054.619447	30.188112
1056.758958	29.366434
1058.894115	29.566434
1061.032596	26.941958
1063.166723	22.861538
1065.300337	24.068531
1067.435356	26.921678
1069.566025	29.356643
1071.698099	36.570629
1073.827744	29.641958
1075.956877	33.470629
1078.085498	37.148252
1080.213608	39.052448
1082.339292	42.035664
1084.464466	45.318182
1086.591044	41.595105
1088.713284	37.595804
1090.836929	37.423077
1092.956239	36.263636
1095.080779	36.649650
1097.199073	35.237762
1099.318772	30.825874
1101.436052	33.225874
1103.552826	34.355245
1105.669093	36.548951
1107.782944	34.923776
1109.898200	37.498601
1112.009132	33.988112
1114.123377	30.914685
1116.233301	27.536364
1118.344629	27.418881
1120.455452	28.960140
1122.561959	28.151049
1124.671776	30.343357
1126.777278	29.099301
1128.884183	28.870629
1130.984873	24.548252
1133.090775	22.705594
1135.192368	24.744056
1137.295364	20.933566
1139.397859	23.028671
1141.494147	24.832168
1143.595643	26.692308
1145.692835	30.011888
1147.789530	27.795105
1149.885726	27.772727
1151.981425	26.355944
1154.076625	24.823077
1156.169429	18.896503
1158.263636	19.548951
1160.351651	22.050350
1162.444864	19.550350
1164.531889	20.814685
1166.622213	22.444755
1168.708250	23.323077
1170.797584	22.230070
1172.880737	17.432168
1174.965292	18.647552
1177.051249	22.226573
1179.132924	22.885315
1181.216001	20.404196
1183.296692	21.514685
1185.376891	22.274825
1187.456599	19.835664
1189.535816	21.576224
1191.612651	25.666434
1193.687105	24.374825
1195.764850	23.025175
1197.838326	24.915385
1199.913202	28.407692
1201.983811	31.682517
1204.055821	27.462238
1206.125456	26.275524
1208.196491	23.983217
1210.267038	27.176923
1212.333324	25.848252
1214.401011	23.296503
1216.466326	22.445455
1218.533041	19.737762
1220.595500	19.649650
1222.661244	23.627972
1224.722734	25.894406
1226.785625	26.009091
1228.846148	21.210490
1230.906187	22.833566
1232.965744	21.377622
1235.022935	23.560140
1237.079645	20.996503
1239.133991	20.134266
1241.191619	19.813287
1243.246884	18.379720
1245.297908	19.313287
1247.350332	22.659441
1249.402276	24.880420
1251.451862	25.987413
1253.500969	25.044056
1255.549598	26.056643
1257.597748	25.725874
1259.645419	25.018881
1261.688860	21.562937
1263.735577	18.406294
1265.779940	15.626573
1267.823827	13.974825
1269.865362	15.169930
1271.904548	16.133566
1273.947007	16.321678
1275.985243	16.970629
1278.024878	18.103497
1280.064038	18.845455
1282.098979	21.808392
1284.135319	23.456643
1286.169315	21.607692
1288.204708	21.393706
1290.235889	21.649650
1292.268467	20.642657
1294.300574	20.572727
1296.330340	22.420280
1298.361504	21.484615
1300.388460	18.130769
1302.416814	18.702797
1304.440963	20.083217
1306.468378	18.975524
1308.491590	19.255944
1310.516200	16.539860
1312.538476	15.355245
1314.562149	16.834266
1316.583489	17.590210
1318.604361	20.803497
1320.624766	23.675524
1322.640978	20.889510
1324.658587	21.236364
1326.673868	21.823077
1328.692408	20.436364
1330.706759	15.430070
1332.718784	13.426573
1334.734066	10.378322
1336.745163	8.944755
1338.757657	12.120979
1340.765968	13.147552
1342.777534	15.309790
1344.783062	14.014685
1346.791845	13.803497
1348.796450	15.972727
1350.804309	14.909790
1352.811706	16.437762
1354.813072	16.117483
1356.815834	16.854545
1358.818137	16.483916
1360.819980	17.348951
1362.821363	16.309091
1364.820433	16.179021
1366.819044	11.185315
1368.817197	10.427972
1370.814891	9.426573
1372.808423	8.094406
1374.803351	10.050350
1376.797821	15.244755
1378.791835	16.490909
1380.783542	19.016084
1382.774794	18.268531
1384.763740	17.734965
1386.754081	15.680420
1388.743967	16.967133
1390.731549	13.624476
1392.718678	14.887413
1394.703505	14.021678
1396.689727	16.032168
1398.673649	16.198601
1400.657118	16.672727
1402.640134	18.365734
1404.620853	19.837762
1406.602966	17.495804
1408.582783	17.484615
1410.562148	19.607692
1412.537375	21.451049
1414.515840	22.182517
1416.492012	22.491608
1418.467735	23.346154
1420.443008	24.939161
1422.415990	20.876923
1424.388524	20.130070
1426.360610	23.016084
1428.332249	18.658741
1430.299759	13.003497
1432.272343	13.502098
1434.237122	13.613287
1436.206972	13.520979
1438.172699	16.139161
1440.139818	13.888112
1442.104654	14.725874
1444.065370	15.686713
1446.031154	15.358042
1447.990983	14.172727
1449.952206	15.302098
1451.914821	9.781119
1453.873321	10.244755
1455.831378	14.371329
1457.788994	15.323776
1459.746167	17.518182
1461.701065	17.480420
1463.657356	14.334965
1465.611372	17.717483
1467.564947	19.737063
1469.516250	22.234266
1471.468946	21.827273
1473.419369	23.813986
1475.369354	19.071329
1477.318900	17.667133
1479.266177	18.842657
1481.211186	17.255944
1483.157588	19.637762
1485.103552	18.444755
1487.049079	23.240559
1488.992340	27.122378
1490.935166	30.448951
1492.875728	33.410490
1494.817681	31.920280
1496.757372	30.812587
1498.696629	26.774825
1500.635450	21.909790
1502.572012	22.309091
1504.509965	17.357343
1506.445659	18.758741
1508.380920	17.882517
1510.313925	19.772028
1512.246497	20.595105
1514.178637	23.286713
1516.110345	25.574126
1518.039799	24.945455
1519.970644	26.481119
1521.901057	27.507692
1523.827398	29.469231
1525.755130	31.432867
1527.680611	27.416783
1529.605663	26.948951
1531.530286	23.127273
1533.454480	22.186713
1535.376426	21.681119
1537.299763	18.934266
1539.220853	16.971329
1541.139700	14.548252
1543.059935	15.016783
1544.977928	17.992308
1546.895494	23.394406
1548.810818	24.621678
1550.727532	23.992308
1552.640191	23.276923
1554.556054	23.097203
1556.469677	25.195105
1558.381062	23.397203
1560.293837	20.570629
1562.202562	16.912587
1564.112676	14.216783
1566.022367	14.260140
1567.931635	15.966434
1569.838669	19.077622
1571.743470	17.944755
1573.649660	17.644755
1575.553618	19.317483
1577.457155	20.202797
1579.360272	20.627273
1581.261159	20.371329
1583.163435	21.396503
1585.063483	16.396503
1586.964918	14.583916
1588.862320	16.687413
1590.759303	17.393007
1592.655868	20.143357
1594.553821	22.525175
1596.445939	21.673427
1598.341250	24.996503
1600.236144	25.265035
1602.128816	27.265734
1604.021071	29.305594
1605.911107	31.744755
1607.800727	27.126573
1609.689932	28.525874
1611.578722	29.053147
1613.465294	28.871329
1615.353254	28.848252
1617.237197	27.776224
1619.122527	24.037762
1621.007444	24.567832
1622.890147	21.177622
1624.774237	19.113287
1626.654315	18.340559
1628.535781	18.481818
1630.415036	18.862238
1632.295677	22.671329
1634.170514	21.518182
1636.050332	22.940559
1637.926146	23.323077
1639.801549	24.148951
1641.678338	28.680420
1643.549331	26.163636
1645.423505	25.810490
1647.293680	19.127972
1649.167037	18.591608
1651.038190	18.763636
1652.907141	19.855944
1654.777477	18.567832
1656.643821	18.351049
1658.511550	20.758741
1660.377080	20.932168
1662.243996	21.551049
1664.106923	26.972727
1665.971235	21.669231
1667.833351	21.725874
1669.695062	21.567832
1671.558159	24.367832
1673.419060	25.025175
1675.277769	21.315385
1677.136074	22.016084
1678.995764	23.343357
1680.849686	22.842657
1682.706782	20.115385
1684.563475	20.586713
1686.416191	24.725175
1688.272079	20.533566
1690.123993	26.827273
1691.975506	26.994406
1693.826618	27.595804
1695.677330	25.873427
1697.527641	20.974126
1699.375767	19.458741
1701.225278	16.356643
1703.069040	18.849650
1704.917751	15.712587
1706.760716	13.155944
1708.606848	14.270629
1710.449017	12.661538
1712.294352	17.657343
1714.133946	16.020280
1715.974924	21.331469
1717.817285	20.913287
1719.655690	19.309091
1721.495478	18.011888
1723.333091	16.072028
1725.170308	15.862238
1727.005352	8.964336
1728.841779	5.818881
1730.676034	7.680420
1732.509894	8.930070
1734.343360	16.872727
1736.172881	22.435664
1738.005560	25.604196
1739.834295	30.404895
1741.666187	28.248951
1743.494137	26.044056
1745.321696	20.086713
1747.148862	15.433566
1748.975637	14.411888
1750.802020	14.594406
1752.624467	17.636364
1754.450069	18.473427
1756.271736	25.855245
1758.094785	24.992308
1759.915672	23.061538
1761.736171	27.383217
1763.558051	23.759441
1765.374231	21.618182
1767.193563	16.706993
1769.008968	14.116783
1770.827523	16.758741
1772.642153	14.657343
1774.456396	17.260140
1776.270253	17.705594
1778.083723	20.490210
1779.895040	18.790210
1781.707737	22.352448
1783.520049	30.593007
1785.328443	33.548252
1787.138217	32.571329
1788.944077	29.077622
1790.753082	31.313986
1792.558174	29.100000
1794.364647	26.390909
1796.170736	26.806993
1797.972914	20.946853
1799.778237	19.232168
1801.579651	19.188811
1803.382445	14.356643
1805.181333	15.708392
1806.981602	14.948252
1808.781489	10.194406
1810.579234	9.281119
1812.376599	13.801399
1814.173584	14.331469
1815.970188	19.593706
1817.764653	24.808392
1819.560497	24.631469
1821.350686	27.272727
1823.145772	26.320280
1824.935206	19.217483
1826.727776	23.113287
1828.518211	17.746853
1830.306512	13.300699
1832.097948	11.368531
1833.883738	11.453846
1835.670908	8.958042
1837.455946	11.896503
1839.244118	16.822378
1841.028404	17.630070
1842.810560	18.623077
1844.594096	20.516084
1846.375503	23.841259
1848.158289	30.045455
1849.937194	24.924476
1851.717479	26.313986
1853.495637	25.270629
1855.275174	26.653147
1857.052586	20.927972
1858.827874	20.808392
1860.604540	21.454545
1862.379084	17.974126
1864.155006	14.953147
1865.925307	15.813287
1867.698736	14.530769
1869.470045	16.465734
1871.240983	11.176224
1873.013299	14.116084
1874.780001	14.016084
1876.549829	14.851748
1878.315793	13.948252
1880.084880	15.532867
1881.850106	15.851748
1883.614964	13.189510
1885.381199	14.283217
1887.143575	18.562937
1888.905584	22.322378
1890.667225	26.750350
1892.428500	23.153147
1894.189407	26.358741
1895.949948	25.704196
1897.708379	25.236364
1899.466444	28.876224
1901.222402	24.810490
1902.979736	23.218182
1904.736705	20.002797
1906.491567	19.876224
1908.244325	22.625175
1909.996718	23.072727
1911.750488	21.640559
1913.502154	16.153846
1915.251718	14.831469
1917.002657	12.554545
1918.753234	16.443357
1920.499971	16.266434
1922.248085	15.756643
1923.994099	18.372028
1925.741488	18.363636
1927.486780	19.437063
1929.229974	22.235664
1930.974543	23.151748
1932.717017	22.067832
1934.459130	18.743357
1936.200883	17.058392
1937.942276	16.881818
1939.681576	18.502448
1941.420517	17.827273
1943.159099	20.015035
1944.895590	17.555944
1946.631723	19.303846
1948.369230	17.554545
1950.102915	19.010839
1951.837975	18.105594
1953.570946	16.206643
1955.303561	17.123077
1957.035820	16.123427
1958.767722	19.548951
1960.497538	22.103497
1962.225269	22.277622
1963.954375	21.100699
1965.683126	20.423776
1967.409793	20.510490
1969.136106	17.730070
1970.863792	19.886014
1972.585942	18.479021
1974.311193	17.374825
1976.032637	19.294406
1977.757182	22.172727
1979.479646	23.565035
1981.198308	22.995804
1982.920068	20.193706
1984.638026	21.364336
1986.357357	20.342657
1988.072889	13.682517
1989.793241	12.838462
1991.509795	14.600000
1993.222552	16.519580
1994.938405	15.646853
1996.652186	18.419580
1998.365617	17.774126
2000.076977	15.768531
2001.789709	16.846154
2003.498651	16.044056
2005.210685	15.927273
2006.917211	14.227273
2008.626828	12.349650
2010.334379	14.797203
2012.041581	17.677622
2013.746718	19.793706
2015.451509	18.298601
2017.157671	17.491608
2018.860051	17.827972
2020.563802	17.788112
2022.265491	16.636364
2023.966835	18.828671
2025.667833	18.714685
2027.366770	18.192308
2029.067079	18.589510
2030.763613	15.928671
2032.461518	15.382517
2034.157364	13.220280
2035.856296	10.368531
2037.549742	8.930769
2039.244559	11.199301
2040.939034	13.922378
2042.629740	17.958042
2044.323530	22.627972
2046.013553	23.321678
2047.704947	24.097203
2049.394288	23.620280
2051.084999	21.752448
2052.771947	20.674126
2054.458556	19.971329
2056.146534	17.514685
2057.830753	14.708392
2059.516343	18.033566
2061.201593	20.432168
2062.884794	22.327273
2064.569366	22.132867
2066.248475	22.441259
2067.932369	22.727972
2069.610802	21.183916
2071.292313	18.526573
2072.970072	16.451748
2074.647495	16.989510
2076.326287	14.031469
2078.003037	11.891608
2079.677745	12.376224
2081.353822	6.372028
2083.027859	7.149650
2084.701560	9.800000
2086.374926	14.079720
2088.046253	16.901399
2089.717246	18.735664
2091.387905	18.934965
2093.058230	19.052448
2094.728221	19.710490
2096.396176	21.142657
2098.063798	22.520979
2099.729385	21.262937
2101.396341	20.248252
2103.061264	23.833566
2104.725855	24.604196
2106.388414	27.050350
2108.052341	25.397902
2109.714237	23.198601
2111.375803	20.575524
2113.037037	17.013287
2114.696243	14.539860
2116.355118	15.928671
2118.013664	15.893706
2119.671880	16.190210
2121.326372	15.725175
2122.983929	15.779720
2124.641157	17.324476
2126.294663	17.546154
2127.949537	14.395804
2129.600692	14.480420
2131.254910	12.196503
2132.905411	10.931469
2134.557278	11.414685
2136.203737	14.336364
2137.854951	16.029371
2139.502451	15.850350
2141.151318	17.452448
2142.798166	22.000000
2144.444689	23.176224
2146.090886	23.672028
2147.733375	23.721678
2149.378922	23.743357
2151.020762	22.018881
2152.665659	23.328671
2154.306850	23.804196
2155.947719	22.982517
2157.588263	21.650350
2159.226795	18.237762
2160.866693	14.943357
2162.502891	15.505594
2164.140455	11.486713
2165.777697	12.475524
2167.412929	11.360140
2169.047840	13.865035
2170.682428	16.669231
2172.316696	17.051049
2173.947270	18.955944
2175.580896	18.437762
2177.210830	18.581119
2178.842129	17.677622
2180.471423	17.442657
2182.100398	19.102797
2183.729053	13.293007
2185.357389	12.013986
2186.983723	14.479021
2188.609738	17.534965
2190.233751	17.658741
2191.859130	15.686014
2193.482508	18.859441
2195.107251	18.569930
2196.728313	18.116783
2198.349058	20.172028
2199.971168	20.551748
2201.591280	20.352448
2203.209395	15.500000
2204.827195	15.643357
2206.444680	16.604196
2208.061849	15.354545
2209.678703	11.946154
2211.295241	11.346853
2212.909787	16.354545
2214.522340	18.174126
2216.136257	18.914685
2217.748183	21.372727
2219.361472	20.018881
2220.972771	19.251748
2222.582080	17.515385
2224.192753	16.992308
2225.801437	16.392308
2227.409808	13.658042
2229.016193	13.111189
2230.623941	16.426573
2232.229702	19.534965
2233.835152	19.767832
2235.438617	18.403497
2237.043445	16.036364
2238.646289	15.296503
2240.247150	9.198601
2241.849374	10.094406
2243.449616	7.940559
2245.051220	8.672727
2246.649171	8.309790
2248.248485	7.519580
2249.845819	5.167133
2251.442845	5.037063
2253.041233	5.046853
2254.635972	6.246853
2256.228734	5.996503
2257.822859	8.004895
2259.418345	8.157343
2261.010186	13.537063
2262.601721	14.174126
2264.194618	15.720979
2265.782205	17.683916
2267.374488	15.589510
2268.961465	14.931469
2270.551469	14.604196
2272.136169	13.496503
2273.725563	13.140559
2275.309655	12.078322
2276.895107	12.008392
2278.478591	18.124476
2280.065100	18.932168
2281.647976	20.534965
2283.230549	22.180420
2284.812818	24.479720
2286.391457	22.857343
2287.973121	23.513986
2289.551156	19.893706
2291.132214	19.560140
2292.709645	18.342657
2294.285113	18.186713
2295.863603	20.056643
2297.438469	25.171329
2299.013034	26.752448
2300.587299	33.414685
2302.161263	35.483916
2303.734926	34.510490
2305.308290	32.760140
2306.878035	30.426573
2308.447481	23.742657
2310.019945	18.315385
2311.587135	13.616084
2313.157343	11.917483
2314.723936	10.232168
2316.291889	11.675524
2317.857886	10.416783
2319.423586	15.380420
2320.988988	16.374126
2322.552437	17.169930
2324.117245	22.057343
2325.678445	20.079021
2327.242659	19.434266
2328.801611	14.382517
2330.363578	15.717483
2331.923593	18.558741
2333.483314	18.200699
2335.041085	20.734266
2336.598561	14.452448
2338.155743	17.283916
2339.710977	20.638462
2341.265918	23.875524
2342.820564	25.500000
2344.374917	22.151748
2345.928977	20.012587
2347.482742	13.192308
2349.034564	13.720280
2350.584442	12.202797
2352.137328	9.922378
2353.684972	6.602098
2355.235623	6.594406
2356.782683	11.089510
2358.331101	18.648252
2359.879228	24.283217
2361.423766	22.634266
2362.969662	24.587413
2364.513620	24.346853
2366.058935	22.690210
2367.600665	23.595105
2369.143752	17.729371
2370.684903	16.824476
2372.225765	15.579021
2373.766338	16.434965
2375.306622	20.258741
2376.846617	23.212587
2378.383034	22.638462
2379.922452	16.133566
2381.458293	16.316783
2382.995490	13.072727
2384.529112	13.520979
2386.065734	15.425874
2387.600426	7.404196
2389.133188	11.934965
2390.665663	8.974825
2392.196210	9.565734
2393.729755	15.819580
2395.258089	17.622378
2396.787780	19.819580
2398.317184	19.546853
2399.846304	21.941958
2401.375139	22.881119
2402.898768	27.869930
2404.427033	28.968531
2405.950096	24.713287
2407.477792	27.373427
2408.998649	21.342657
2410.524139	18.027273
2412.046068	14.979021
2413.569353	13.493706
2415.090716	16.553846
2416.610160	15.618182
2418.130959	17.437063
2419.649840	19.695804
2421.168438	20.511189
2422.685119	20.476224
2424.203154	26.075524
2425.720908	27.906294
2427.235111	24.033566
2428.749033	19.969930
2430.262675	18.069930
2431.777672	20.944755
2433.289120	22.820979
2434.801923	20.803497
2436.312812	21.060839
2437.823423	18.919580
2439.332122	14.725175
2440.843807	15.883217
2442.351949	20.516084
2443.859813	16.138462
2445.367399	10.635664
2446.871444	9.814685
2448.378474	12.127273
2449.883597	15.150350
2451.388441	15.786014
2452.891379	21.349650
2454.394041	23.584615
2455.896426	28.845455
2457.396906	30.509091
2458.898739	32.896503
2460.398667	28.324476
2461.898320	23.941259
2463.397698	16.386713
2464.895173	14.318881
2466.390746	15.478322
2467.889299	13.060140
2469.384324	17.452448
2470.880701	22.040559
2472.373552	21.017483
2473.867756	23.518182
2475.361686	24.369231
2476.852092	22.193007
2478.345476	17.395105
2479.836962	14.668531
2481.326551	13.045455
2482.815868	15.038462
2484.303289	15.787413
2485.793686	15.410490
2487.280565	15.899301
2488.768795	16.397203
2490.253508	15.677622
2491.737952	19.176923
2493.223746	23.565035
2494.707649	19.101399
2496.192902	15.290909
2497.673022	12.929371
2499.156115	15.311189
2500.637317	12.640559
2502.118250	9.980420
2503.597294	11.095804
2505.076069	13.858741
2506.554576	17.329371
2508.032815	18.441259
2509.510785	22.030769
2510.985250	24.393706
2512.462685	24.729371
2513.936616	22.858741
2515.411897	19.765734
2516.886911	16.687413
2518.358425	14.038462
2519.831288	10.944056
2521.302269	8.818881
2522.774600	8.923776
2524.241817	8.539860
2525.712001	7.045455
2527.180304	8.067832
2528.648342	12.660140
2530.116115	15.234965
2531.583623	12.396503
2533.050866	12.824476
2534.514617	17.734266
2535.979718	16.230070
2537.442942	11.077622
2538.907516	8.476923
2540.368600	15.701399
2541.831034	19.715385
2543.293205	18.269231
2544.751890	17.708392
2546.215147	16.438462
2547.673307	15.974126
2549.132816	15.858042
2550.587231	17.166434
2552.046217	17.390210
2553.503331	12.059441
2554.958574	10.421678
2556.413555	12.386713
2557.866668	15.430070
2559.321129	15.476224
2560.773720	13.479021
2562.226052	12.620979
2563.676517	13.378322
2565.129937	14.944056
2566.578275	13.642657
2568.029569	10.414685
2569.478996	10.600699
2570.924951	10.680420
2572.373861	9.105594
2573.819301	14.588112
2575.266088	17.530070
2576.711013	23.428671
2578.155679	26.656643
2579.601693	29.038462
2581.044241	34.684615
2582.488136	32.725874
2583.928566	27.780420
2585.370343	20.820280
2586.810261	15.065734
2588.251526	11.969231
2589.689329	6.755944
2591.130082	6.844056
2592.565773	6.403497
2594.004413	13.246154
2595.441195	15.276224
2596.876122	17.500699
2598.313996	23.620979
2599.746813	25.788112
2601.180977	27.085315
2602.613287	26.199301
2604.046943	29.673427
2605.478746	34.818881
2606.910295	30.236364
2608.341592	25.904196
2609.771036	23.469231
2611.200228	21.753846
2612.627570	12.308392
2614.056257	9.489510
2615.484693	8.342657
2616.909681	7.951748
2618.336016	6.802098
2619.760502	9.042657
2621.186334	15.729371
2622.608722	20.889510
2624.032456	20.069930
2625.454343	22.236364
2626.875981	23.167133
2628.295773	25.316084
2629.716911	21.810490
2631.137799	23.372727
2632.555249	19.927972
2633.975638	14.257343
2635.392590	10.762937
2636.809293	11.303497
2638.225748	8.441958
2639.641955	6.941958
2641.057914	3.031469
2642.472032	3.586713
2643.885902	1.734965
2645.297934	4.853147
2646.711309	5.031469
2648.121255	5.565734
2649.534137	4.732867
2650.943590	6.160839
2652.352797	12.214685
2653.760168	15.176224
2655.170473	15.556643
2656.578943	19.595804
2657.985577	19.588811
2659.391966	21.397902
2660.796521	22.366434
2662.202420	22.217483
2663.606486	22.745455
2665.010307	16.786014
2666.413884	13.190909
2667.815630	11.549650
2669.218719	11.246853
2670.618390	8.196503
2672.019405	11.300699
2673.417004	10.784615
2674.817533	12.691608
2676.214646	17.208392
2677.613103	18.281818
2679.009733	18.978322
2680.406120	21.158741
2681.802265	15.994406
2683.196585	17.908392
2684.592246	19.727972
2685.984499	16.283217
2687.378094	15.247552
2688.769865	16.697203
2690.162979	15.780420
2691.554269	18.190909
2692.943736	18.970629
2694.332963	18.013986
2695.721951	19.894406
2697.112280	22.325175
2698.497626	18.771329
2699.885895	21.454545
2701.272344	19.706993
2702.658554	15.767133
2704.044525	19.060140
2705.427098	20.354545
2706.811013	18.200699
2708.194690	15.153846
2709.578128	15.381119
2710.958172	17.822378
2712.339556	15.053147
2713.719126	16.872028
2715.100036	16.781119
2716.479132	18.586014
2717.856414	17.577622
2719.235037	17.869231
2720.611847	23.040559
2721.988420	18.972028
2723.364758	16.380420
2724.739285	16.116783
2726.115152	16.013287
2727.487632	17.889510
2728.863028	13.241958
2730.233464	19.166434
2731.605241	24.599301
2732.976783	26.652448
2734.346517	27.115385
2735.717592	28.060839
2737.086858	29.286014
2738.455891	25.262238
2739.823118	24.576923
2741.190112	23.647552
2742.556872	19.126573
2743.923401	19.353147
2745.288124	16.918881
2746.652615	18.474825
2748.016875	17.523077
2749.380902	17.221678
2750.744698	18.779720
2752.105120	15.753147
2753.468452	14.608392
2754.826842	11.732867
2756.188142	8.730070
2757.546072	7.540559
2758.906910	6.500699
2760.265949	9.051748
2761.621619	10.513287
2762.980197	9.433566
2764.335408	11.489510
2765.690390	14.000699
2767.043576	15.866434
2768.399668	15.488811
2769.752395	14.505594
2771.104895	9.503497
2772.457166	7.083217
2773.810776	4.761538
2775.161024	10.748951
2776.509478	8.151748
2777.860838	8.244755
2779.208838	7.665734
2780.558176	9.918182
2781.905722	13.874126
2783.253042	14.092308
2784.600135	17.735664
2785.945437	17.784615
2787.290512	18.609790
2788.635362	17.846853
2789.979986	20.421678
2791.321258	25.123077
2792.663868	17.118182
2794.006252	16.529371
2795.348411	16.227972
2796.687221	16.351049
2798.028931	19.145455
2799.367293	16.932168
2800.706991	18.212587
2802.044905	19.274825
2803.381034	20.235664
2804.716939	17.869930
2806.054182	21.527972
2807.389641	19.260140
2808.724877	15.668531
2810.058330	17.743357
2811.393120	17.360140
2812.724570	17.253846
2814.058915	17.170629
2815.388362	12.719580
2816.719146	10.844056
2818.049708	11.829371
2819.378491	12.791608
2820.708610	12.754545
2822.036951	13.186713
2823.365071	13.034266
2824.691413	16.486014
2826.019092	14.513287
2827.343437	17.502098
2828.669119	21.212587
2829.993025	22.101399
2831.316712	19.574825
2832.641734	17.150350
2833.963426	14.852448
2835.284900	16.126573
2836.606155	14.169231
2837.927191	10.195105
2839.246454	7.035664
2840.567053	8.857343
2841.885881	4.874126
2843.204490	9.759441
2844.521328	11.842657
2845.837949	13.293007
2847.154353	16.660839
2848.468987	14.026573
2849.784957	18.242657
2851.097606	25.058741
2852.411590	23.951049
2853.725358	23.872028
2855.038909	21.801399
2856.350694	24.937063
2857.660712	22.697902
2858.972065	22.124476
2860.280103	21.641259
2861.589475	18.598601
2862.898633	13.329371
2864.207575	9.538462
2865.514753	12.523077
2866.820169	14.799301
2868.126919	13.768531
2869.431906	13.831469
2870.736680	8.917483
2872.039692	9.551049
2873.345585	7.833566
2874.646624	10.285315
2875.948997	13.353846
2877.249610	12.767832
2878.551557	9.102797
2879.853290	14.500699
2881.151720	19.083217
2882.451483	21.438462
2883.749489	22.262238
2885.047283	19.747552
2886.343321	14.899301
2887.640692	13.462238
2888.936307	11.946853
2890.231711	16.529371
2891.526904	22.611189
2892.818800	25.613986
2894.113572	25.266434
2895.405047	27.381119
2896.697855	24.679720
2897.990453	18.269930
2899.279757	11.685315
2900.570393	8.527273
2901.859278	4.181818
2903.149495	0.409091
2904.436421	-2.263636
2905.724679	1.863636
2907.011188	6.260140
2908.297489	10.969930
2909.583581	12.493706
2910.867925	13.157343
2912.155140	12.274126
2913.437529	8.761538
2914.721250	8.227972
2916.003225	11.304196
2917.284992	7.215385
2918.565015	6.955245
2919.847907	2.546853
2921.129054	6.111189
2922.406919	5.423077
2923.687653	8.839161
2924.965106	5.679021
2926.242353	9.176224
2927.517858	11.151049
2928.796231	11.185315
2930.069790	12.058042
2931.346216	10.767832
2932.620901	11.019580
2933.893845	9.700699
2935.168121	4.774825
2936.440657	7.979720
2937.712988	3.071329
2938.982047	2.255944
2940.253971	0.972028
2941.524157	8.911888
2942.794139	13.286713
2944.063918	13.167832
2945.331961	14.784615
2946.598267	14.182517
2947.864372	12.864336
2949.131806	7.387413
2950.397506	8.096503
2951.663003	5.821678
2952.928298	0.845455
2954.190328	0.320280
2955.453688	1.221678
2956.716847	5.274825
2957.978274	9.264336
2959.241030	12.989510
2960.502054	16.462937
2961.761348	15.471329
2963.020442	14.430070
2964.279335	13.798601
2965.538028	14.322378
2966.796521	12.286014
2968.053285	11.881119
2969.309849	10.182517
2970.564686	9.213287
2971.820851	10.653846
2973.073762	11.442657
2974.328002	15.253147
2975.582043	12.634266
2976.834358	11.713986
2978.086474	9.970629
2979.336866	11.486713
2980.590113	11.765035
2981.838583	12.754545
2983.089908	10.902797
2984.337983	10.411888
2985.585862	10.765734
2986.833543	12.473427
2988.081027	13.369231
2989.326790	17.913986
2990.572357	15.346154
2991.819251	16.852448
2993.062901	18.058741
2994.307879	20.690210
2995.549613	18.894406
2996.794199	18.301399
2998.037066	14.449650
2999.276692	13.367832
3000.519168	14.948951
3001.758404	14.653147
3002.998968	18.058042
3004.237816	18.618881
3005.476468	14.981119
3006.713406	16.881119
3007.951670	16.264336
3009.188219	14.867133
3010.424575	14.518881
3011.660737	17.086713
3012.895185	15.516783
3014.129441	14.796503
3015.363503	16.876923
3016.595853	13.044056
3017.826491	14.272028
3019.059975	12.902098
3020.291747	12.998601
3021.521809	14.270629
3022.751679	15.160140
3023.979839	17.598601
3025.209325	19.679021
3026.437102	20.643357
3027.664688	17.888811
3028.893601	15.629371
3030.117771	15.360839
3031.344784	12.653846
3032.568573	13.282517
3033.793689	13.476923
3035.017098	14.408392
3036.240317	18.323077
3037.461831	20.172727
3038.686186	20.529371
3039.905806	21.102098
3041.126752	18.811189
3042.347509	19.326573
3043.566562	18.176923
3044.786940	21.007692
3046.004102	20.154545
3047.222590	21.390210
3048.439375	21.637063
3049.655973	23.559441
3050.872382	27.560140
3052.085579	24.251049
3053.301613	26.373427
3054.514435	25.288112
3055.730094	22.036364
3056.941030	23.891608
3058.153291	20.494406
3059.365366	17.929371
3060.577253	14.072028
3061.787444	11.255944
3062.997448	9.909091
3064.207266	11.402797
3065.415388	13.592308
3066.623325	17.971329
3067.829566	22.701399
3069.037132	22.554545
3070.243003	24.316783
3071.448690	25.734266
3072.654191	20.367832
3073.857999	15.019580
3075.063131	13.556643
3076.266570	9.248951
3077.468318	8.284615
3078.669881	8.409091
3079.871261	9.586713
3081.072457	12.455944
3082.271963	15.402797
3083.471286	18.566434
3084.671932	19.735664
3085.870888	18.117483
3087.066650	15.827273
3088.265241	12.808392
3089.460638	15.179720
3090.657358	13.834965
3091.850886	11.171329
3093.047242	9.481818
3094.241912	11.884615
3095.433391	11.493706
3096.629201	14.093706
3097.820318	15.133566
3099.012757	14.635664
3100.202009	14.406294
3101.394086	16.723077
3102.584480	17.640559
3103.771688	19.842657
3104.960219	19.375524
3106.150071	19.025175
3107.336740	18.115385
3108.523228	20.393007
3109.709538	16.952448
3110.897169	16.562937
3112.081618	16.284615
3113.264388	14.567832
3114.449980	12.620280
3115.633893	11.490909
3116.816127	9.366434
3117.998182	8.868531
3119.180059	8.705594
3120.361758	10.286713
3121.541780	11.602797
3122.720125	15.083916
3123.901290	15.565734
3125.079280	18.758042
3126.257094	20.941259
3127.434730	20.766434
3128.610691	15.025175
3129.786475	10.476224
3130.963581	10.054545
3132.139012	11.716783
3133.312770	9.237063
3134.484855	8.176224
3135.658262	8.493007
3136.831492	9.065035
3138.003051	4.832168
3139.175930	7.569930
3140.345642	6.960140
3141.516675	6.180420
3142.686038	3.747552
3143.853730	6.744056
3145.024238	12.109091
3146.190088	16.248252
3147.360246	16.786713
3148.525748	17.172028
3149.691075	19.295105
3150.856229	21.458042
3152.021210	20.431469
3153.187510	23.297902
3154.349158	21.183916
3155.512125	20.897902
3156.674920	17.280420
3157.837542	15.598601
3158.998499	12.234266
3160.159283	8.904196
3161.319895	6.371329
3162.478843	6.490210
3163.637620	8.203497
3164.796225	10.925175
3165.954657	11.929371
3167.112919	13.190909
3168.269518	17.065035
3169.424456	15.707692
3170.580713	16.332168
3171.735309	16.522378
3172.889735	16.104895
3174.042501	18.323776
3175.195096	21.496503
3176.347522	20.771329
3177.499778	20.247552
3178.651863	16.263636
3179.800803	11.753147
3180.952549	10.117483
3182.102637	12.026573
3183.251069	10.864336
3184.399331	12.776224
3185.547425	11.937762
3186.695350	12.841958
3187.841619	14.058042
3188.987720	12.620280
3190.132167	10.168531
3191.276446	12.062238
3192.420557	12.295804
3193.565985	12.743357
3194.708275	16.187413
3195.850398	18.865035
3196.992353	20.940559
3198.134141	20.941958
3199.275762	21.748951
3200.414248	15.935664
3201.554051	14.443357
3202.695172	11.516084
3203.833158	9.735664
3204.969495	11.309790
3206.105666	12.409091
3207.243154	12.006993
3208.378994	15.482517
3209.516151	13.859441
3210.648695	15.759441
3211.785521	15.385315
3212.917735	15.251748
3214.051266	11.602098
3215.184633	11.467133
3216.314872	6.148951
3217.447909	5.793706
3218.577820	4.511189
3219.709047	0.760839
3220.837150	1.804895
3221.968049	5.511189
3223.097304	6.591608
3224.224916	11.835664
3225.349405	10.970629
3226.478170	15.240559
3227.603813	18.636364
3228.729294	18.143357
3229.853133	14.439161
3230.979766	12.327273
3232.101802	6.322378
3233.225154	1.793007
3234.348344	2.673427
3235.471372	4.353147
3236.592760	5.437762
3237.713986	4.401399
3238.833575	3.632168
3239.953002	7.820979
3241.070791	11.735664
3242.191372	12.448252
3243.308840	11.573427
3244.426147	9.300699
3245.543294	7.750350
3246.658805	9.168531
3247.775630	10.607692
3248.889346	11.027273
3250.005851	12.481119
3251.120722	10.697203
3252.232484	12.665734
3253.344086	12.896503
3254.457004	12.939161
3255.569762	13.210490
3256.679414	12.644056
3257.790381	10.954545
3258.901189	9.867133
3260.010365	13.979720
3261.117911	12.087413
3262.226770	9.987413
3263.335472	10.737063
3264.441071	8.797902
3265.547984	10.220280
3266.653268	9.820979
3267.759866	10.999301
3268.863364	13.330769
3269.968177	12.894406
3271.072832	15.307692
3272.174388	17.408392
3273.275788	19.702797
3274.378502	17.450350
3275.481060	13.428671
3276.580521	9.910490
3277.682766	9.048252
3278.781915	9.862238
3279.879440	9.046154
3280.976809	11.346853
3282.076960	10.459441
3283.174019	11.841958
3284.270922	12.574126
3285.367670	13.923776
3286.459860	15.817483
3287.556298	14.875524
3288.651114	12.932168
3289.745776	11.053147
3290.838816	9.954545
3291.931701	10.579720
3293.022967	11.455245
3294.115544	10.630769
3295.206502	12.011189
3296.295840	13.227972
3297.385025	10.672028
3298.475523	9.879021
3299.562936	11.019580
3300.650196	7.369231
3301.738769	7.612587
3302.827190	5.515385
3303.911063	4.748951
3304.999178	4.535664
3306.084211	8.961538
3307.167629	7.021678
3308.252359	9.195804
3309.335473	5.894406
3310.419900	4.832168
3311.501248	4.402797
3312.583908	8.315385
3313.664954	11.304895
3314.745849	11.022378
3315.825130	11.098601
3316.904261	11.419580
3317.984704	11.427972
3319.062072	10.977622
3320.140752	9.099301
3321.217820	6.844755
3322.294739	2.811189
3323.370046	-0.081818
3324.445204	1.229371
3325.521673	5.274126
3326.595072	6.613986
3327.668322	5.099301
3328.742882	8.224476
3329.815834	10.469231
3330.887177	12.477622
3331.959831	14.218881
3333.029419	16.281818
3334.100317	17.397203
3335.169608	14.400699
3336.240210	13.465035
3337.309205	12.845455
3338.376594	13.066434
3339.442378	11.809091
3340.512388	10.300000
3341.579335	12.087413
3342.643220	10.959441
3343.709873	10.701399
3344.774921	11.557343
3345.838366	5.846853
3346.901665	5.883916
3347.964817	4.908392
3349.027823	8.248252
3350.090683	9.013986
3351.151941	8.646853
3352.210142	8.854545
3353.272563	8.258741
3354.331929	8.149650
3355.391149	7.530769
3356.451679	7.385315
3357.507699	4.755245
3358.566483	0.178322
3359.620760	1.297203
3360.677801	4.847552
3361.733243	6.631469
3362.789995	7.076224
3363.845148	5.309790
3364.898704	6.627273
3365.950664	6.713287
3367.005385	9.527972
3368.057057	13.014685
3369.108586	12.826573
3370.161423	12.328671
3371.211213	12.004895
3372.262312	10.867832
3373.310365	8.918182
3374.361177	6.484615
3375.408945	6.469930
3376.456570	6.203497
3377.504052	3.281119
3378.549942	2.236364
3379.597140	6.847552
3380.641296	7.137762
3381.688210	7.283217
3382.733532	10.004895
3383.775813	9.611888
3384.817954	12.148951
3385.861402	13.698601
3386.904709	16.047552
3387.946427	19.343357
3388.988003	16.374825
3390.029438	10.286014
3391.069285	6.416084
3392.107543	4.011888
3393.147109	-2.325874
3394.186535	-6.350350
3395.224373	-8.980420
3396.260624	-8.032168
3397.296736	-1.300000
3398.334155	2.935664
3399.368541	5.119580
3400.404234	11.509091
3401.439788	12.828671
3402.472311	15.993007
3403.507587	18.860140
3404.539832	19.097902
3405.571939	17.523077
3406.602462	16.859441
3407.634292	15.855245
3408.665984	18.659441
3409.694648	19.058741
3410.723175	18.509790
3411.753008	15.591608
3412.782704	15.041958
3413.809374	10.588112
3414.837351	12.165035
3415.862303	14.325874
3416.890005	12.746154
3417.914684	9.362238
3418.940669	8.487413
3419.965074	8.126573
3420.989343	7.404895
3422.012033	5.767832
3423.034587	6.071329
3424.058447	1.574825
3425.079287	-1.886713
3426.099991	-2.369530
3427.122002	-1.925674
3428.140994	-0.562837
3429.159850	1.711289
3430.180013	4.889011
3431.197159	8.962637
