-118.059454	-5.605769
-115.389854	-3.950549
-112.723189	-2.135914
-110.057276	-0.250150
-107.394295	1.618457
-104.729885	3.381618
-102.068405	4.951049
-99.405496	6.615385
-96.747693	7.371329
-94.088461	6.337762
-91.429977	5.540559
-88.774417	7.278322
-86.117429	6.122378
-83.465539	6.519580
-80.812218	6.927273
-78.161818	6.282517
-75.509988	5.344056
-72.863249	5.095105
-70.215081	4.227972
-67.567655	1.676224
-64.923143	-1.084615
-62.277203	-0.666434
-59.636344	-0.805594
-56.994056	-2.267133
-54.354677	-3.175524
-51.713868	-3.154545
-49.073800	-0.376923
-46.438804	3.098601
-43.802380	5.720979
-41.168858	9.039161
-38.533908	12.030070
-35.904023	13.707692
-33.270546	15.156643
-30.642131	16.965035
-28.014450	15.732168
-25.385340	8.876224
-22.761287	-16.877622
-20.133645	-118.516084
-17.511056	-356.924476
-14.889199	-555.683217
-12.268072	179.304196
-9.647675	1649.071329
-7.030167	2887.393007
-4.411230	3764.005594
-1.795178	4275.448951
0.820145	4418.313287
3.434741	4196.265035
6.046454	3606.517483
8.659596	2666.844755
11.267704	1436.154545
13.879394	139.649650
16.486053	-696.749650
19.094140	-494.434266
21.701503	-41.562238
24.303841	10.508392
26.909757	8.346853
29.510651	6.183217
32.112973	4.369231
34.710278	3.974825
37.311158	0.843357
39.907023	2.034965
42.504317	4.785315
45.100891	5.669930
47.692456	7.441259
50.285449	9.829371
52.875581	7.128671
55.467141	5.113986
58.055841	6.239860
60.645968	3.274126
63.231096	0.807692
65.817652	-1.417483
68.403494	-3.834266
70.986482	-1.006993
73.570896	-0.046853
76.148182	0.144755
78.729034	2.648951
81.307037	4.942657
83.884330	7.135664
86.463049	7.576923
89.036786	10.503497
91.611951	6.972727
94.184272	2.719580
96.755885	3.396503
99.324658	4.206993
101.894858	5.449650
104.462220	6.314685
107.031007	7.760839
109.596958	7.638462
112.160074	9.978322
114.726746	12.384615
117.284197	15.232867
119.847333	17.300000
122.405509	18.785315
124.967240	24.523077
127.524014	38.468531
130.082215	55.996503
132.635462	78.213287
135.188012	107.309790
137.744112	139.537063
140.295264	174.748252
142.845719	210.951049
145.395476	243.830070
147.942414	270.997203
150.488657	287.617483
153.036325	298.128671
155.583297	302.517483
158.125334	300.796503
160.666677	297.043357
163.207327	292.830070
165.749403	285.803497
168.288667	282.551049
170.825123	282.579720
173.360887	281.323776
175.898077	279.782517
178.434576	279.454545
180.968269	277.307692
183.499158	275.972028
186.029360	275.547552
188.560986	277.443357
191.089811	277.088112
193.615837	278.885315
196.141177	277.453147
198.667942	279.188811
201.191911	279.072727
203.715195	278.122378
206.237794	278.222378
208.757600	280.142657
211.276723	279.411888
213.795163	277.886014
216.315027	281.713986
218.827890	290.374825
221.344284	294.150350
223.859996	304.550350
226.370818	311.941958
228.883065	318.879021
231.392530	325.892308
233.901316	332.598601
236.409423	337.246154
238.918955	339.078322
241.423606	338.928671
243.927581	337.274825
246.432980	336.870629
248.933504	336.744056
251.437552	334.856643
253.934628	337.783916
256.435228	337.999301
258.933056	340.634965
261.430211	344.044056
263.926693	343.958741
266.418312	347.108392
268.913451	350.833566
271.405823	354.302098
273.897525	356.690909
276.386464	357.024476
278.876827	359.463636
281.364427	362.197203
283.849268	368.995105
286.337624	374.699301
288.819040	384.620979
291.303970	394.558042
293.784055	404.525175
296.267652	421.301399
298.746406	434.514685
301.226584	439.633566
303.704009	438.252448
306.180771	436.245455
308.656870	436.782517
311.130220	440.260140
313.602908	440.700699
316.074935	438.898601
318.546301	436.129371
321.014922	432.352448
323.482885	430.567832
325.952269	426.843357
328.416831	417.779021
330.884897	404.372028
333.348143	390.590210
335.810731	379.888811
338.272663	375.943357
340.733938	374.104895
343.192479	368.474825
345.652442	367.826573
348.109672	363.230769
350.566248	360.356643
353.022170	360.460839
355.475362	357.071329
357.929977	354.753147
360.379790	350.812587
362.833099	346.784615
365.281610	342.576224
367.729469	340.338462
370.178751	336.182517
372.623239	333.655944
375.069149	333.301399
377.514409	329.374825
379.956951	329.338462
382.398845	330.396503
384.840092	328.361538
387.278623	325.334965
389.718576	321.174825
392.155815	319.681119
394.590342	318.915385
397.028357	314.153147
399.461595	313.227972
401.896254	314.632867
404.326141	313.562238
406.759513	316.432168
409.188115	318.844056
411.616075	322.111888
414.045457	322.247552
416.470073	324.062238
418.896111	322.032168
421.321508	322.571329
423.746265	323.569231
426.166264	322.445455
428.587684	322.854545
431.006407	321.005594
433.426551	319.746154
435.844000	320.381119
438.262869	316.709091
440.679045	310.479720
443.090473	303.700699
445.505379	296.767832
447.917594	288.779720
450.329175	285.702098
452.740122	283.467832
455.148383	278.211888
457.556011	275.163636
459.963007	273.922378
462.369372	277.462238
464.773054	277.642657
467.176106	280.400699
469.578528	283.343357
471.980320	291.463636
474.379435	297.647552
476.779969	307.423776
479.179874	315.253147
481.575056	323.366434
483.973705	332.686014
486.367634	340.748951
488.760937	349.720280
491.153614	360.425874
493.545666	366.461538
495.939136	375.016783
498.327894	369.509790
500.713986	329.111888
503.101498	218.446853
505.488387	274.123077
507.872612	1051.056643
510.258255	2750.162937
512.641237	4853.639860
515.021558	6726.697203
517.403298	8071.388811
519.782379	8771.172727
522.162879	8782.423077
524.540721	8112.168531
526.915908	6799.797203
529.290477	4974.883916
531.666464	2919.426573
534.039799	1217.259441
536.414551	409.490909
538.784618	362.685315
541.154069	493.720979
543.524938	520.698601
545.891127	493.183217
548.258734	456.234266
550.623695	421.606294
552.988043	394.860839
555.351778	371.591608
557.716931	352.566434
560.077412	339.338462
562.439311	326.925175
564.798569	316.630769
567.155190	304.602098
569.515255	290.800000
571.868629	277.442657
574.225448	269.221678
576.579632	260.534266
578.933208	255.135664
581.286175	250.341259
583.636510	246.426573
585.988263	244.966434
588.333339	243.052448
590.683879	239.512587
593.027745	239.842657
595.377073	238.201399
597.721752	236.445455
600.063807	235.456643
602.407279	236.063636
604.748128	235.167832
607.088375	234.899301
609.426001	234.834965
611.767062	239.374825
614.103485	242.518881
616.441325	244.120979
618.776548	244.781818
621.109155	245.269930
623.443178	240.085315
625.774587	235.323776
628.105398	226.972727
630.435612	217.058741
632.765227	210.337063
635.090220	203.611888
637.420653	199.494406
639.746466	199.868531
642.069671	201.732867
644.394293	204.949650
646.716309	205.559441
649.037731	206.867832
651.356551	209.602098
653.676786	209.457343
655.996428	207.783217
658.313469	205.320280
660.629918	210.019580
662.943769	209.056643
665.259036	210.828671
667.571706	209.351049
669.885791	211.625874
672.195276	210.244056
674.506177	210.904895
676.814485	209.461538
679.122205	206.812587
681.431339	199.602098
683.735881	193.986014
686.039837	188.259441
688.343207	186.676923
690.647991	181.783916
692.948189	179.833566
695.249801	175.650350
697.550829	178.210490
699.847274	179.886713
702.145135	181.517483
704.442412	177.295804
706.739106	175.117483
709.031224	170.172028
711.326753	166.814685
713.617708	165.829371
715.910078	164.387413
718.199873	162.623077
720.489087	163.511189
722.777722	161.306993
725.063784	164.095804
727.351261	164.661538
729.636166	164.013986
731.920494	160.619580
734.202253	163.740559
736.485426	161.281119
738.768022	162.920280
741.046062	162.237762
743.325517	163.604196
745.604395	163.740559
747.882699	170.125175
750.156453	170.473427
752.431620	172.383916
754.706214	171.460839
756.978249	172.160140
759.251697	171.361538
761.522587	171.880420
763.790921	169.351748
766.060668	168.477622
768.327861	167.893007
770.594483	171.155245
772.860535	173.367832
775.124036	177.357343
777.388950	176.539860
779.653294	176.843357
781.913109	179.548252
784.174336	180.783217
786.434996	181.032867
788.693110	179.708392
790.948679	179.190210
793.207639	178.676224
795.460100	180.323077
797.717927	181.130070
799.971236	179.209790
802.222005	177.312587
804.474186	177.301399
806.723828	180.181119
808.974883	183.534965
811.221426	184.555944
813.469381	181.802098
815.714802	179.990909
817.961634	182.876224
820.207905	186.745455
822.449671	186.244755
824.694821	183.906993
826.933498	181.697203
829.175557	182.294406
831.413118	180.388811
833.652091	178.146154
835.888537	178.166434
838.126394	176.882517
840.361726	171.347552
842.594535	171.330769
844.828755	174.671329
847.060452	172.337762
849.291595	163.958042
851.522183	165.507692
853.752217	164.521678
855.981697	166.145455
858.206695	166.365734
860.435068	168.332168
862.658961	175.196503
864.884266	175.197902
867.105095	176.603497
869.329296	180.623776
871.549024	182.130070
873.770162	182.964336
875.990750	183.310490
878.208829	189.047552
880.428317	185.344056
882.643339	188.982517
884.857814	187.921678
887.071740	189.076224
889.285120	191.604895
891.497952	187.208392
893.710238	188.852448
895.920021	190.988112
898.129259	192.388811
900.337952	199.820280
902.544146	201.434965
904.751749	200.800699
906.956854	195.815385
909.161416	195.714685
911.363483	195.047552
913.566959	197.708392
915.767941	196.824476
917.968381	192.309091
920.170230	198.570629
922.365688	203.196503
924.564505	219.382517
926.758883	241.141958
928.956619	264.664336
931.149919	295.577622
933.344628	330.639860
935.536851	376.937063
937.728535	422.693007
939.919682	460.993706
942.108346	489.084615
944.296474	506.920979
946.482121	524.737762
948.671120	519.551748
950.855696	518.260140
953.039737	509.328671
955.227128	499.384615
957.406215	494.021678
959.588653	498.001399
961.770557	505.370629
963.949986	514.078322
966.126943	524.125175
968.305308	529.925874
970.485080	536.395105
972.658503	550.391608
974.835272	554.793007
977.007634	554.858741
979.181404	559.759441
981.350770	549.548951
983.523480	535.693007
985.693725	525.047552
987.863441	495.564336
990.032628	466.250350
992.197418	427.888811
994.365549	393.642657
996.529286	366.690210
998.694429	343.885315
1000.857113	326.721678
1003.019272	300.830769
1005.178974	300.044755
1007.338151	286.446853
1009.498735	286.228671
1011.656865	297.029371
1013.814470	287.402797
1015.971552	289.473427
1018.128110	273.429371
1020.280289	265.208392
1022.433875	263.740559
1024.586939	255.682517
1026.737554	253.017483
1028.889576	236.269930
1031.037224	241.618182
1033.188204	243.630070
1035.334813	252.627273
1037.480903	261.759441
1039.626475	249.065734
1041.773452	253.498601
1043.914140	242.190210
1046.058158	238.541259
1048.199735	240.875524
1050.340796	235.586014
1052.483261	248.736364
1054.619447	254.373427
1056.758958	262.128671
1058.894115	265.920979
1061.032596	273.244755
1063.166723	267.235664
1065.300337	248.055245
1067.435356	246.283217
1069.566025	231.986713
1071.698099	226.272028
1073.827744	204.566434
1075.956877	193.854545
1078.085498	202.176923
1080.213608	202.474825
1082.339292	203.787413
1084.464466	204.863636
1086.591044	217.415385
1088.713284	217.059441
1090.836929	210.105594
1092.956239	210.920979
1095.080779	217.927273
1097.199073	228.679021
1099.318772	210.721678
1101.436052	211.887413
1103.552826	213.544755
1105.669093	215.771329
1107.782944	209.388112
1109.898200	200.146853
1112.009132	205.776923
1114.123377	202.020979
1116.233301	189.872028
1118.344629	184.246853
1120.455452	196.811189
1122.561959	195.848951
1124.671776	194.558741
1126.777278	193.506294
1128.884183	190.785315
1130.984873	187.246853
1133.090775	175.918881
1135.192368	176.541259
1137.295364	172.020280
1139.397859	158.921678
1141.494147	149.193007
1143.595643	143.157343
1145.692835	151.584615
1147.789530	152.586014
1149.885726	153.066434
1151.981425	151.850350
1154.076625	157.715385
1156.169429	162.141259
1158.263636	161.936364
1160.351651	167.594406
1162.444864	163.696503
1164.531889	156.779720
1166.622213	157.974126
1168.708250	158.548252
1170.797584	157.452448
1172.880737	156.939161
1174.965292	149.867133
1177.051249	145.218881
1179.132924	142.162937
1181.216001	138.939860
1183.296692	131.620280
1185.376891	133.688811
1187.456599	126.669231
1189.535816	123.558741
1191.612651	130.333566
1193.687105	134.284615
1195.764850	138.516783
1197.838326	145.904196
1199.913202	142.503497
1201.983811	142.889510
1204.055821	147.737063
1206.125456	150.352448
1208.196491	142.161538
1210.267038	137.646853
1212.333324	133.462937
1214.401011	136.540559
1216.466326	140.341958
1218.533041	140.248252
1220.595500	142.546154
1222.661244	140.267832
1224.722734	138.983916
1226.785625	141.774126
1228.846148	146.126573
1230.906187	141.287413
1232.965744	130.902098
1235.022935	131.244056
1237.079645	133.267832
1239.133991	130.897203
1241.191619	135.411888
1243.246884	132.113986
1245.297908	131.923077
1247.350332	132.588811
1249.402276	137.281119
1251.451862	140.624476
1253.500969	148.286713
1255.549598	148.482517
1257.597748	153.175524
1259.645419	155.617483
1261.688860	157.442657
1263.735577	158.605594
1265.779940	162.883217
1267.823827	155.609091
1269.865362	154.809091
1271.904548	154.849650
1273.947007	152.883217
1275.985243	150.339161
1278.024878	153.096503
1280.064038	150.298601
1282.098979	147.920979
1284.135319	142.391608
1286.169315	141.139161
1288.204708	134.974126
1290.235889	138.594406
1292.268467	142.586014
1294.300574	144.755245
1296.330340	145.398601
1298.361504	144.583916
1300.388460	148.259441
1302.416814	147.190909
1304.440963	144.886713
1306.468378	144.148252
1308.491590	141.717483
1310.516200	138.834266
1312.538476	134.518182
1314.562149	133.260140
1316.583489	136.698601
1318.604361	131.007692
1320.624766	129.575524
1322.640978	129.646154
1324.658587	129.537762
1326.673868	129.772727
1328.692408	136.572727
1330.706759	138.839860
1332.718784	136.024476
1334.734066	131.783916
1336.745163	127.279720
1338.757657	120.632168
1340.765968	122.498601
1342.777534	117.867133
1344.783062	112.374825
1346.791845	115.895105
1348.796450	117.565035
1350.804309	127.160839
1352.811706	130.507692
1354.813072	129.668531
1356.815834	127.745455
1358.818137	126.753147
1360.819980	125.155944
1362.821363	122.632867
1364.820433	114.215385
1366.819044	114.513287
1368.817197	109.943357
1370.814891	116.483217
1372.808423	116.749650
1374.803351	122.147552
1376.797821	120.474825
1378.791835	121.698601
1380.783542	126.665734
1382.774794	132.787413
1384.763740	137.988112
1386.754081	139.259441
1388.743967	134.049650
1390.731549	133.935664
1392.718678	129.793706
1394.703505	133.255245
1396.689727	131.762937
1398.673649	132.444056
1400.657118	131.990909
1402.640134	134.246154
1404.620853	138.944056
1406.602966	142.896503
1408.582783	148.303497
1410.562148	142.433566
1412.537375	135.520979
1414.515840	128.141259
1416.492012	128.593706
1418.467735	127.575524
1420.443008	128.600699
1422.415990	130.776224
1424.388524	131.409790
1426.360610	135.787413
1428.332249	140.511189
1430.299759	144.881119
1432.272343	144.654545
1434.237122	136.285315
1436.206972	133.493007
1438.172699	127.574126
1440.139818	128.393007
1442.104654	125.983916
1444.065370	127.210490
1446.031154	127.432168
1447.990983	130.051748
1449.952206	138.454545
1451.914821	139.137762
1453.873321	140.199301
1455.831378	136.081119
1457.788994	135.329371
1459.746167	135.226573
1461.701065	132.024476
1463.657356	130.759441
1465.611372	128.377622
1467.564947	125.695105
1469.516250	123.584615
1471.468946	125.376224
1473.419369	127.409091
1475.369354	128.014685
1477.318900	129.639161
1479.266177	131.460140
1481.211186	134.565035
1483.157588	138.734965
1485.103552	142.546154
1487.049079	144.444056
1488.992340	151.851049
1490.935166	155.100699
1492.875728	154.088112
1494.817681	154.288112
1496.757372	153.265734
1498.696629	150.659441
1500.635450	141.137762
1502.572012	132.674126
1504.509965	126.260140
1506.445659	124.538462
1508.380920	119.481818
1510.313925	119.174825
1512.246497	119.582517
1514.178637	121.888811
1516.110345	121.952448
1518.039799	125.469930
1519.970644	126.655245
1521.901057	127.627972
1523.827398	121.532867
1525.755130	125.813986
1527.680611	129.496503
1529.605663	134.434965
1531.530286	133.167133
1533.454480	137.655944
1535.376426	140.532867
1537.299763	144.787413
1539.220853	144.705594
1541.139700	141.310490
1543.059935	138.006993
1544.977928	130.641259
1546.895494	127.858741
1548.810818	136.251748
1550.727532	139.627972
1552.640191	137.042657
1554.556054	140.671329
1556.469677	148.052448
1558.381062	148.097203
1560.293837	143.646154
1562.202562	142.848252
1564.112676	136.821678
1566.022367	136.280420
1567.931635	132.650350
1569.838669	140.206294
1571.743470	141.739161
1573.649660	137.530070
1575.553618	130.712587
1577.457155	131.927972
1579.360272	132.731469
1581.261159	132.531469
1583.163435	131.818881
1585.063483	132.694406
1586.964918	133.693007
1588.862320	137.248252
1590.759303	140.673427
1592.655868	148.952448
1594.553821	146.889510
1596.445939	148.676224
1598.341250	151.186014
1600.236144	151.809091
1602.128816	152.431469
1604.021071	156.775524
1605.911107	153.884615
1607.800727	147.738462
1609.689932	143.930070
1611.578722	137.720979
1613.465294	135.869231
1615.353254	132.371329
1617.237197	127.234266
1619.122527	129.564336
1621.007444	128.818881
1622.890147	131.932867
1624.774237	138.435664
1626.654315	148.758042
1628.535781	151.590210
1630.415036	151.544755
1632.295677	149.411888
1634.170514	149.497902
1636.050332	144.664336
1637.926146	134.069231
1639.801549	126.606294
1641.678338	126.247552
1643.549331	126.769930
1645.423505	129.580420
1647.293680	134.179720
1649.167037	137.123077
1651.038190	142.419580
1652.907141	146.583916
1654.777477	152.882517
1656.643821	147.069930
1658.511550	124.027273
1660.377080	112.411888
1662.243996	107.404895
1664.106923	111.025175
1665.971235	120.203497
1667.833351	125.650350
1669.695062	125.347552
1671.558159	135.941958
1673.419060	145.620979
1675.277769	165.179720
1677.136074	176.323077
1678.995764	163.872028
1680.849686	142.195804
1682.706782	137.990909
1684.563475	134.785315
1686.416191	136.159441
1688.272079	142.134266
1690.123993	147.408392
1691.975506	147.094406
1693.826618	141.790909
1695.677330	143.676224
1697.527641	160.420280
1699.375767	156.326573
1701.225278	158.082517
1703.069040	156.716084
1704.917751	156.549650
1706.760716	165.943357
1708.606848	173.931469
1710.449017	166.213986
1712.294352	167.537762
1714.133946	166.007692
1715.974924	153.884615
1717.817285	163.255944
1719.655690	167.388811
1721.495478	162.078322
1723.333091	170.979021
1725.170308	177.133566
1727.005352	177.125175
1728.841779	175.917483
1730.676034	167.278322
1732.509894	153.850350
1734.343360	153.216783
1736.172881	167.538462
1738.005560	165.779720
1739.834295	167.076224
1741.666187	161.916084
1743.494137	159.804196
1745.321696	168.769231
1747.148862	159.861538
1748.975637	150.467832
1750.802020	154.009091
1752.624467	158.023077
1754.450069	159.289510
1756.271736	163.812587
1758.094785	171.188811
1759.915672	166.227972
1761.736171	160.180420
1763.558051	166.832867
1765.374231	174.281119
1767.193563	178.481119
1769.008968	174.045455
1770.827523	182.723077
1772.642153	193.727273
1774.456396	186.607692
1776.270253	180.129371
1778.083723	172.130070
1779.895040	169.170629
1781.707737	165.813287
1783.520049	158.474126
1785.328443	159.523077
1787.138217	162.997902
1788.944077	171.408392
1790.753082	173.044755
1792.558174	170.220979
1794.364647	174.772028
1796.170736	171.721678
1797.972914	162.397203
1799.778237	158.743357
1801.579651	168.062238
1803.382445	165.965035
1805.181333	164.757343
1806.981602	168.500000
1808.781489	179.410490
1810.579234	183.169930
1812.376599	175.992308
1814.173584	171.497203
1815.970188	170.882517
1817.764653	174.950350
1819.560497	167.804196
1821.350686	171.520979
1823.145772	168.018881
1824.935206	168.302797
1826.727776	168.323776
1828.518211	171.154545
1830.306512	163.750350
1832.097948	160.145455
1833.883738	147.512587
1835.670908	148.437063
1837.455946	154.270629
1839.244118	157.019580
1841.028404	149.208392
1842.810560	152.997902
1844.594096	151.491608
1846.375503	160.174126
1848.158289	164.110490
1849.937194	166.713986
1851.717479	165.936364
1853.495637	166.179720
1855.275174	165.952448
1857.052586	169.844056
1858.827874	154.581818
1860.604540	140.107692
1862.379084	137.916783
1864.155006	139.190210
1865.925307	142.094406
1867.698736	144.449650
1869.470045	147.997902
1871.240983	143.455944
1873.013299	147.190909
1874.780001	140.656643
1876.549829	143.172028
1878.315793	142.699301
1880.084880	132.904895
1881.850106	134.414685
1883.614964	134.779021
1885.381199	136.304895
1887.143575	144.303497
1888.905584	138.897203
1890.667225	139.981119
1892.428500	139.707692
1894.189407	136.309091
1895.949948	128.230070
1897.708379	131.878322
1899.466444	132.617483
1901.222402	124.434266
1902.979736	120.874825
1904.736705	119.986014
1906.491567	121.130769
1908.244325	124.724476
1909.996718	124.860140
1911.750488	135.192308
1913.502154	134.986713
1915.251718	131.585315
1917.002657	131.783217
1918.753234	134.436364
1920.499971	132.373427
1922.248085	130.814685
1923.994099	121.490210
1925.741488	117.518881
1927.486780	116.813986
1929.229974	116.815385
1930.974543	119.023077
1932.717017	123.002797
1934.459130	118.448252
1936.200883	124.614685
1937.942276	127.984615
1939.681576	125.557343
1941.420517	129.191608
1943.159099	119.481119
1944.895590	111.862238
1946.631723	112.412587
1948.369230	113.606294
1950.102915	111.838462
1951.837975	113.850350
1953.570946	115.790210
1955.303561	110.327273
1957.035820	115.862937
1958.767722	118.022378
1960.497538	110.658741
1962.225269	119.078322
1963.954375	114.897203
1965.683126	125.005594
1967.409793	131.930070
1969.136106	133.481119
1970.863792	134.866434
1972.585942	139.304895
1974.311193	135.943357
1976.032637	137.961538
1977.757182	142.459441
1979.479646	140.493706
1981.198308	136.869231
1982.920068	138.011888
1984.638026	137.362937
1986.357357	140.079720
1988.072889	133.024476
1989.793241	120.704196
1991.509795	116.791608
1993.222552	111.791608
1994.938405	111.302797
1996.652186	118.325175
1998.365617	120.560140
2000.076977	121.305594
2001.789709	123.328671
2003.498651	125.983916
2005.210685	134.466434
2006.917211	136.531469
2008.626828	133.602797
2010.334379	133.729371
2012.041581	135.450350
2013.746718	128.479021
2015.451509	132.163636
2017.157671	129.372028
2018.860051	127.537762
2020.563802	123.560140
2022.265491	123.867133
2023.966835	121.213986
2025.667833	123.553147
2027.366770	120.979720
2029.067079	123.430070
2030.763613	127.493706
2032.461518	123.206294
2034.157364	118.265734
2035.856296	114.134266
2037.549742	113.211888
2039.244559	111.626573
2040.939034	112.460839
2042.629740	116.017483
2044.323530	119.663636
2046.013553	120.172028
2047.704947	118.498601
2049.394288	127.246853
2051.084999	128.906294
2052.771947	126.872727
2054.458556	125.067832
2056.146534	128.376923
2057.830753	130.318881
2059.516343	123.525175
2061.201593	124.728671
2062.884794	116.168531
2064.569366	117.563636
2066.248475	109.151049
2067.932369	106.167832
2069.610802	112.190909
2071.292313	112.697902
2072.970072	119.550350
2074.647495	125.458042
2076.326287	135.350350
2078.003037	134.039161
2079.677745	134.390909
2081.353822	134.376224
2083.027859	127.745455
2084.701560	133.525175
2086.374926	128.459441
2088.046253	127.769930
2089.717246	126.478322
2091.387905	125.497203
2093.058230	124.089510
2094.728221	120.111189
2096.396176	113.853846
2098.063798	112.871329
2099.729385	115.057343
2101.396341	115.986014
2103.061264	120.333566
2104.725855	125.111888
2106.388414	129.758042
2108.052341	135.834266
2109.714237	137.910490
2111.375803	139.186713
2113.037037	140.611189
2114.696243	129.711888
2116.355118	121.818881
2118.013664	118.584615
2119.671880	113.260839
2121.326372	107.961538
2122.983929	103.776224
2124.641157	104.106294
2126.294663	110.363636
2127.949537	117.526573
2129.600692	125.446154
2131.254910	129.025175
2132.905411	136.368531
2134.557278	131.613287
2136.203737	130.216783
2137.854951	129.874126
2139.502451	129.606993
2141.151318	128.744755
2142.798166	126.943357
2144.444689	131.562937
2146.090886	138.108392
2147.733375	143.069930
2149.378922	145.958042
2151.020762	142.273427
2152.665659	140.860839
2154.306850	135.746154
2155.947719	129.406993
2157.588263	122.803497
2159.226795	119.154545
2160.866693	112.579021
2162.502891	112.324476
2164.140455	117.914685
2165.777697	119.953147
2167.412929	118.676224
2169.047840	124.021678
2170.682428	124.379021
2172.316696	130.007692
2173.947270	129.124476
2175.580896	130.991608
2177.210830	123.794406
2178.842129	120.502098
2180.471423	112.572028
2182.100398	112.961538
2183.729053	107.745455
2185.357389	99.225175
2186.983723	91.825874
2188.609738	95.439161
2190.233751	97.655944
2191.859130	105.267133
2193.482508	105.252448
2195.107251	116.160140
2196.728313	113.137762
2198.349058	118.972028
2199.971168	121.784615
2201.591280	129.639161
2203.209395	122.349650
2204.827195	121.226573
2206.444680	119.193007
2208.061849	119.239860
2209.678703	115.158042
2211.295241	116.574126
2212.909787	117.089510
2214.522340	113.659441
2216.136257	110.764336
2217.748183	115.254545
2219.361472	117.862238
2220.972771	119.744755
2222.582080	120.403497
2224.192753	122.093007
2225.801437	123.127972
2227.409808	119.443357
2229.016193	117.395804
2230.623941	119.103497
2232.229702	120.198601
2233.835152	117.188811
2235.438617	121.215385
2237.043445	118.795804
2238.646289	122.037063
2240.247150	122.523776
2241.849374	125.171329
2243.449616	119.984615
2245.051220	116.550350
2246.649171	114.622378
2248.248485	116.474126
2249.845819	110.840559
2251.442845	107.920979
2253.041233	109.274825
2254.635972	113.922378
2256.228734	108.672028
2257.822859	112.167832
2259.418345	115.487413
2261.010186	117.277622
2262.601721	113.513287
2264.194618	110.165035
2265.782205	112.422378
2267.374488	116.081818
2268.961465	109.389510
2270.551469	115.323776
2272.136169	126.293007
2273.725563	138.762238
2275.309655	136.616783
2276.895107	140.253147
2278.478591	140.111888
2280.065100	144.245455
2281.647976	140.735664
2283.230549	135.896154
2284.812818	129.247552
2286.391457	116.677273
2287.973121	110.083916
2289.551156	114.137413
2291.132214	118.727972
2292.709645	118.025524
2294.285113	119.435664
2295.863603	119.199650
2297.438469	123.774126
2299.013034	134.720629
2300.587299	140.569231
2302.161263	135.073077
2303.734926	131.746853
2305.308290	125.613986
2306.878035	136.350350
2308.447481	139.050350
2310.019945	136.586014
2311.587135	129.441958
2313.157343	135.072028
2314.723936	129.629371
2316.291889	131.508392
2317.857886	135.994406
2319.423586	136.984615
2320.988988	132.581119
2322.552437	133.144056
2324.117245	135.618881
2325.678445	141.324476
2327.242659	134.823077
2328.801611	130.476923
2330.363578	138.032867
2331.923593	144.379021
2333.483314	144.348252
2335.041085	145.767832
2336.598561	141.913287
2338.155743	140.704196
2339.710977	136.132168
2341.265918	130.552448
2342.820564	135.739161
2344.374917	130.074825
2345.928977	116.823776
2347.482742	118.812587
2349.034564	124.548951
2350.584442	138.565035
2352.137328	157.338462
2353.684972	158.346154
2355.235623	160.546154
2356.782683	167.270629
2358.331101	165.141259
2359.879228	160.398601
2361.423766	150.200000
2362.969662	133.640559
2364.513620	120.623776
2366.058935	120.177622
2367.600665	124.669231
2369.143752	131.616783
2370.684903	131.732168
2372.225765	130.718881
2373.766338	144.002797
2375.306622	149.975524
2376.846617	159.600699
2378.383034	153.441259
2379.922452	149.403497
2381.458293	152.225175
2382.995490	157.751748
2384.529112	154.632867
2386.065734	151.795105
2387.600426	133.480420
2389.133188	128.068531
2390.665663	131.455944
2392.196210	135.660140
2393.729755	137.755245
2395.258089	148.355245
2396.787780	148.740559
2398.317184	156.697203
2399.846304	144.950350
2401.375139	148.777622
2402.898768	144.490210
2404.427033	154.257343
2405.950096	153.468531
2407.477792	152.396503
2408.998649	146.225874
2410.524139	149.911888
2412.046068	156.325874
2413.569353	159.340559
2415.090716	153.937063
2416.610160	144.613287
2418.130959	124.084615
2419.649840	118.422378
2421.168438	114.748951
2422.685119	121.216783
2424.203154	118.876923
2425.720908	119.836364
2427.235111	134.727972
2428.749033	153.810490
2430.262675	170.514685
2431.777672	165.633566
2433.289120	160.668531
2434.801923	155.588811
2436.312812	145.936364
2437.823423	133.302098
2439.332122	133.895804
2440.843807	124.779720
2442.351949	115.972028
2443.859813	115.035664
2445.367399	129.864336
2446.871444	135.918182
2448.378474	141.990909
2449.883597	137.179021
2451.388441	140.136364
2452.891379	139.319580
2454.394041	144.070629
2455.896426	140.847552
2457.396906	136.723776
2458.898739	129.339860
2460.398667	123.372028
2461.898320	126.815385
2463.397698	134.455245
2464.895173	126.542657
2466.390746	128.352448
2467.889299	123.983916
2469.384324	127.201399
2470.880701	131.127972
2472.373552	137.334266
2473.867756	134.965734
2475.361686	138.427273
2476.852092	143.610490
2478.345476	153.437762
2479.836962	162.865734
2481.326551	161.023077
2482.815868	150.960140
2484.303289	156.965734
2485.793686	142.125175
2487.280565	144.137063
2488.768795	132.158042
2490.253508	123.211888
2491.737952	117.627972
2493.223746	104.374126
2494.707649	99.724476
2496.192902	104.606993
2497.673022	107.667832
2499.156115	110.706993
2500.637317	105.501399
2502.118250	116.894406
2503.597294	114.432168
2505.076069	120.857343
2506.554576	115.626573
2508.032815	124.539161
2509.510785	129.381818
2510.985250	133.415385
2512.462685	141.697902
2513.936616	147.051049
2515.411897	155.548252
2516.886911	155.977622
2518.358425	153.438462
2519.831288	149.394406
2521.302269	134.790210
2522.774600	124.161538
2524.241817	113.006294
2525.712001	114.948252
2527.180304	116.839161
2528.648342	122.104196
2530.116115	123.655245
2531.583623	126.379021
2533.050866	132.969231
2534.514617	137.865035
2535.979718	137.433566
2537.442942	129.362238
2538.907516	126.709091
2540.368600	124.039161
2541.831034	125.025874
2543.293205	129.437063
2544.751890	143.556643
2546.215147	151.096503
2547.673307	154.888811
2549.132816	148.223077
2550.587231	148.575524
2552.046217	143.360140
2553.503331	138.544755
2554.958574	140.434266
2556.413555	137.127273
2557.866668	126.372727
2559.321129	129.518881
2560.773720	130.113986
2562.226052	139.379021
2563.676517	137.950350
2565.129937	136.218182
2566.578275	132.411888
2568.029569	130.157343
2569.478996	118.820280
2570.924951	116.191608
2572.373861	121.351748
2573.819301	114.012587
2575.266088	105.716084
2576.711013	109.627273
2578.155679	105.436364
2579.601693	102.312587
2581.044241	101.516084
2582.488136	106.258741
2583.928566	106.672028
2585.370343	108.081818
2586.810261	106.610490
2588.251526	107.797203
2589.689329	111.804895
2591.130082	99.206993
2592.565773	102.546853
2594.004413	113.702098
2595.441195	113.296503
2596.876122	105.324476
2598.313996	109.763636
2599.746813	108.623077
2601.180977	114.549650
2602.613287	122.030769
2604.046943	122.624476
2605.478746	116.907692
2606.910295	104.602098
2608.341592	92.753147
2609.771036	98.500000
2611.200228	106.640559
2612.627570	108.893706
2614.056257	106.306993
2615.484693	114.996503
2616.909681	118.222378
2618.336016	125.730070
2619.760502	131.671329
2621.186334	134.306993
2622.608722	126.089510
2624.032456	108.418881
2625.454343	101.904895
2626.875981	101.602098
2628.295773	97.470629
2629.716911	102.148951
2631.137799	105.969231
2632.555249	115.755944
2633.975638	121.248252
2635.392590	122.320979
2636.809293	134.432867
2638.225748	140.475524
2639.641955	139.486014
2641.057914	132.366434
2642.472032	136.558042
2643.885902	134.910490
2645.297934	123.797902
2646.711309	123.282517
2648.121255	127.495804
2649.534137	127.383217
2650.943590	118.888112
2652.352797	113.327273
2653.760168	116.810490
2655.170473	118.502098
2656.578943	120.032168
2657.985577	113.836364
2659.391966	121.151748
2660.796521	111.956643
2662.202420	113.241958
2663.606486	118.034266
2665.010307	122.203497
2666.413884	115.819580
2667.815630	118.704196
2669.218719	117.934266
2670.618390	120.465035
2672.019405	124.776224
2673.417004	121.072028
2674.817533	122.422378
2676.214646	121.590210
2677.613103	120.477622
2679.009733	129.910490
2680.406120	122.137063
2681.802265	117.669231
2683.196585	116.460140
2684.592246	118.889510
2685.984499	118.918182
2687.378094	117.293007
2688.769865	121.767832
2690.162979	111.302098
2691.554269	110.575524
2692.943736	106.312587
2694.332963	114.691608
2695.721951	116.777622
2697.112280	113.803497
2698.497626	114.385315
2699.885895	118.176224
2701.272344	113.036364
2702.658554	122.620979
2704.044525	118.655944
2705.427098	118.060140
2706.811013	110.677622
2708.194690	114.367133
2709.578128	111.435664
2710.958172	117.210490
2712.339556	113.500000
2713.719126	110.954545
2715.100036	102.677622
2716.479132	94.842657
2717.856414	82.331469
2719.235037	86.344755
2720.611847	85.455944
2721.988420	89.768531
2723.364758	97.321678
2724.739285	97.986014
2726.115152	94.446154
2727.487632	101.974126
2728.863028	90.441259
2730.233464	98.754545
2731.605241	92.641958
2732.976783	94.827972
2734.346517	96.225874
2735.717592	108.178322
2737.086858	121.176224
2738.455891	122.043357
2739.823118	130.434965
2741.190112	129.160140
2742.556872	123.820280
2743.923401	118.666434
2745.288124	106.908392
2746.652615	108.290210
2748.016875	108.899301
2749.380902	112.905594
2750.744698	115.397203
2752.105120	116.909091
2753.468452	123.195804
2754.826842	126.002098
2756.188142	134.307692
2757.546072	124.832168
2758.906910	110.913287
2760.265949	101.584615
2761.621619	101.348252
2762.980197	99.191608
2764.335408	102.223077
2765.690390	98.815385
2767.043576	95.757343
2768.399668	97.394406
2769.752395	107.290909
2771.104895	112.658741
2772.457166	110.679720
2773.810776	105.405594
2775.161024	101.534965
2776.509478	102.244056
2777.860838	104.934266
2779.208838	98.042657
2780.558176	90.955245
2781.905722	82.052448
2783.253042	80.156643
2784.600135	89.307692
2785.945437	95.393706
2787.290512	92.813287
2788.635362	97.976224
2789.979986	101.860839
2791.321258	100.062238
2792.663868	93.551748
2794.006252	88.188811
2795.348411	83.905594
2796.687221	81.697902
2798.028931	82.664336
2799.367293	90.209091
2800.706991	92.338462
2802.044905	97.919580
2803.381034	105.000699
2804.716939	114.251748
2806.054182	115.109091
2807.389641	109.644056
2808.724877	105.445455
2810.058330	107.050350
2811.393120	106.054545
2812.724570	103.027972
2814.058915	104.652448
2815.388362	98.148951
2816.719146	95.608392
2818.049708	101.396503
2819.378491	103.983916
2820.708610	93.420280
2822.036951	89.064336
2823.365071	78.043357
2824.691413	81.672028
2826.019092	82.302098
2827.343437	86.260839
2828.669119	91.150350
2829.993025	105.286014
2831.316712	108.841958
2832.641734	113.533566
2833.963426	120.153147
2835.284900	116.622378
2836.606155	105.348951
2837.927191	98.212587
2839.246454	90.506993
2840.567053	90.209790
2841.885881	83.159441
2843.204490	83.454545
2844.521328	90.869930
2845.837949	102.548951
2847.154353	104.796503
2848.468987	104.551748
2849.784957	113.460140
2851.097606	111.634965
2852.411590	107.413986
2853.725358	103.444056
2855.038909	101.424476
2856.350694	90.500699
2857.660712	87.835664
2858.972065	89.278322
2860.280103	99.530070
2861.589475	106.676224
2862.898633	106.297203
2864.207575	115.553147
2865.514753	123.990909
2866.820169	120.588811
2868.126919	116.051748
2869.431906	115.657343
2870.736680	112.298601
2872.039692	108.401399
2873.345585	106.816084
2874.646624	101.316084
2875.948997	104.862937
2877.249610	104.907692
2878.551557	105.668531
2879.853290	116.269930
2881.151720	115.299301
2882.451483	112.320280
2883.749489	113.339860
2885.047283	118.827273
2886.343321	114.627273
2887.640692	114.853147
2888.936307	110.981119
2890.231711	104.224476
2891.526904	109.430769
2892.818800	103.641958
2894.113572	106.032867
2895.405047	109.202797
2896.697855	104.605594
2897.990453	108.104895
2899.279757	116.756643
2900.570393	120.818881
2901.859278	125.241958
2903.149495	129.794406
2904.436421	115.076224
2905.724679	102.805594
2907.011188	106.357343
2908.297489	94.491608
2909.583581	90.083217
2910.867925	86.497203
2912.155140	73.221678
2913.437529	81.661538
2914.721250	89.321678
2916.003225	91.458042
2917.284992	103.364336
2918.565015	105.539161
2919.847907	96.767133
2921.129054	114.779021
2922.406919	127.744755
2923.687653	124.355944
2924.965106	115.086014
2926.242353	109.858741
2927.517858	98.414685
2928.796231	97.479720
2930.069790	90.595105
2931.346216	82.364336
2932.620901	77.319580
2933.893845	75.979720
2935.168121	78.458741
2936.440657	92.585315
2937.712988	97.524476
2938.982047	99.495804
2940.253971	97.701399
2941.524157	97.454545
2942.794139	97.013986
2944.063918	91.739161
2945.331961	94.773427
2946.598267	95.331469
2947.864372	90.021678
2949.131806	91.816783
2950.397506	89.070629
2951.663003	89.677622
2952.928298	95.201399
2954.190328	103.784615
2955.453688	104.527972
2956.716847	104.541259
2957.978274	103.086713
2959.241030	100.855245
2960.502054	110.800000
2961.761348	107.602098
2963.020442	100.205594
2964.279335	88.406294
2965.538028	81.139860
2966.796521	85.000000
2968.053285	86.634266
2969.309849	96.955944
2970.564686	102.225175
2971.820851	105.872028
2973.073762	108.291608
2974.328002	109.709790
2975.582043	108.803497
2976.834358	96.729371
2978.086474	89.254545
2979.336866	81.683217
2980.590113	76.044056
2981.838583	81.780420
2983.089908	82.546154
2984.337983	88.139161
2985.585862	97.625874
2986.833543	93.744755
2988.081027	93.662238
2989.326790	100.353846
2990.572357	95.114685
2991.819251	93.781818
2993.062901	100.128671
2994.307879	98.757343
2995.549613	94.337762
2996.794199	99.827972
2998.037066	100.330769
2999.276692	98.848252
3000.519168	98.207692
3001.758404	91.993007
3002.998968	84.913986
3004.237816	86.051049
3005.476468	77.046154
3006.713406	82.778322
3007.951670	89.799301
3009.188219	90.968531
3010.424575	89.350350
3011.660737	91.715385
3012.895185	91.594406
3014.129441	101.740559
3015.363503	96.520979
3016.595853	100.629371
3017.826491	94.089510
3019.059975	90.524476
3020.291747	90.918182
3021.521809	88.816783
3022.751679	91.749650
3023.979839	96.474825
3025.209325	91.139161
3026.437102	93.115385
3027.664688	95.748252
3028.893601	99.808392
3030.117771	98.779720
3031.344784	103.500000
3032.568573	102.044056
3033.793689	94.038462
3035.017098	89.595105
3036.240317	84.935664
3037.461831	89.470629
3038.686186	87.322378
3039.905806	75.952448
3041.126752	70.060839
3042.347509	68.167133
3043.566562	67.950350
3044.786940	71.956643
3046.004102	74.314685
3047.222590	72.541259
3048.439375	68.825874
3049.655973	75.035664
3050.872382	83.263636
3052.085579	78.910490
3053.301613	67.723077
3054.514435	65.889510
3055.730094	67.753846
3056.941030	74.162937
3058.153291	80.451748
3059.365366	87.313287
3060.577253	93.418881
3061.787444	90.030070
3062.997448	89.868881
3064.207266	90.139161
3065.415388	79.059790
3066.623325	65.846853
3067.829566	65.489161
3069.037132	65.037063
3070.243003	70.438112
3071.448690	72.020979
3072.654191	76.610140
3073.857999	88.338462
3075.063131	93.457692
3076.266570	95.353846
3077.468318	99.158392
3078.669881	99.278322
3079.871261	94.444755
3081.072457	95.097902
3082.271963	92.027273
3083.471286	90.032168
3084.671932	90.274825
3085.870888	85.164336
3087.066650	88.916783
3088.265241	97.044755
3089.460638	94.058042
3090.657358	93.034266
3091.850886	99.477622
3093.047242	100.053147
3094.241912	98.430070
3095.433391	94.800699
3096.629201	89.234965
3097.820318	91.048951
3099.012757	86.296503
3100.202009	83.774126
3101.394086	83.397902
3102.584480	84.348951
3103.771688	78.562937
3104.960219	84.711189
3106.150071	90.404895
3107.336740	86.199301
3108.523228	77.664336
3109.709538	78.361538
3110.897169	79.286713
3112.081618	78.004895
3113.264388	85.667133
3114.449980	82.197203
3115.633893	82.881818
3116.816127	84.237063
3117.998182	79.661538
3119.180059	80.679720
3120.361758	75.353147
3121.541780	66.500000
3122.720125	61.841259
3123.901290	62.318881
3125.079280	61.587413
3126.257094	61.436364
3127.434730	66.530070
3128.610691	67.767832
3129.786475	68.139161
3130.963581	70.888811
3132.139012	67.729371
3133.312770	75.940559
3134.484855	78.400000
3135.658262	87.223077
3136.831492	94.139860
3138.003051	97.243357
3139.175930	100.994406
3140.345642	96.423077
3141.516675	99.095804
3142.686038	98.289510
3143.853730	94.246853
3145.024238	94.716084
3146.190088	96.024476
3147.360246	102.653147
3148.525748	98.469930
3149.691075	98.935664
3150.856229	99.355245
3152.021210	98.261538
3153.187510	96.762937
3154.349158	88.809091
3155.512125	92.034965
3156.674920	87.513287
3157.837542	87.843357
3158.998499	86.056643
3160.159283	91.735664
3161.319895	86.206294
3162.478843	81.429371
3163.637620	74.543357
3164.796225	74.420979
3165.954657	71.297902
3167.112919	74.160839
3168.269518	67.115385
3169.424456	70.666434
3170.580713	74.704895
3171.735309	77.267133
3172.889735	76.531469
3174.042501	81.325175
3175.195096	73.885315
3176.347522	76.431469
3177.499778	76.997902
3178.651863	78.819580
3179.800803	83.651748
3180.952549	88.221678
3182.102637	85.678322
3183.251069	87.299301
3184.399331	83.461538
3185.547425	79.144755
3186.695350	80.121678
3187.841619	74.717483
3188.987720	77.464336
3190.132167	78.878322
3191.276446	83.870629
3192.420557	86.594406
3193.565985	93.006993
3194.708275	94.967832
3195.850398	91.743357
3196.992353	87.960839
3198.134141	75.806993
3199.275762	77.176224
3200.414248	73.539161
3201.554051	61.337063
3202.695172	67.449650
3203.833158	63.025874
3204.969495	59.758042
3206.105666	61.484615
3207.243154	63.895804
3208.378994	63.182517
3209.516151	64.602797
3210.648695	70.213986
3211.785521	76.140559
3212.917735	81.374126
3214.051266	78.479720
3215.184633	72.604895
3216.314872	71.165035
3217.447909	69.281818
3218.577820	63.666434
3219.709047	63.479720
3220.837150	67.776224
3221.968049	67.518182
3223.097304	69.491608
3224.224916	73.848951
3225.349405	79.497902
3226.478170	73.567133
3227.603813	78.446154
3228.729294	70.527972
3229.853133	68.239860
3230.979766	68.950350
3232.101802	67.084615
3233.225154	70.541259
3234.348344	74.167832
3235.471372	70.023776
3236.592760	64.106993
3237.713986	61.069930
3238.833575	64.272028
3239.953002	64.596503
3241.070791	72.668531
3242.191372	73.977622
3243.308840	77.732168
3244.426147	81.242657
3245.543294	85.254545
3246.658805	82.560140
3247.775630	73.054545
3248.889346	72.778322
3250.005851	69.047552
3251.120722	73.157343
3252.232484	84.922378
3253.344086	81.685315
3254.457004	83.623077
3255.569762	87.555245
3256.679414	89.491608
3257.790381	93.590210
3258.901189	96.776224
3260.010365	87.851748
3261.117911	81.731469
3262.226770	80.438462
3263.335472	78.709091
3264.441071	84.396503
3265.547984	88.919580
3266.653268	80.513287
3267.759866	82.049650
3268.863364	78.966434
3269.968177	87.372727
3271.072832	93.472028
3272.174388	92.251748
3273.275788	90.297902
3274.378502	89.356643
3275.481060	86.892308
3276.580521	82.320979
3277.682766	75.803497
3278.781915	68.690210
3279.879440	59.406993
3280.976809	57.127273
3282.076960	48.576224
3283.174019	59.176923
3284.270922	66.447552
3285.367670	72.611888
3286.459860	82.937063
3287.556298	88.203497
3288.651114	91.630769
3289.745776	86.618881
3290.838816	86.016084
3291.931701	82.862238
3293.022967	79.549650
3294.115544	80.581818
3295.206502	77.158741
3296.295840	80.444056
3297.385025	82.781818
3298.475523	86.289510
3299.562936	88.708392
3300.650196	87.317483
3301.738769	88.262937
3302.827190	87.241958
3303.911063	96.608392
3304.999178	97.325874
3306.084211	93.120280
3307.167629	86.216783
3308.252359	83.737762
3309.335473	80.327273
3310.419900	68.346853
3311.501248	65.176224
3312.583908	67.390210
3313.664954	60.065734
3314.745849	55.887413
3315.825130	54.576224
3316.904261	59.004196
3317.984704	55.882517
3319.062072	48.667832
3320.140752	46.109091
3321.217820	55.964336
3322.294739	56.920280
3323.370046	51.221678
3324.445204	57.202098
3325.521673	67.632867
3326.595072	64.033566
3327.668322	65.326573
3328.742882	65.978322
3329.815834	71.469231
3330.887177	68.101399
3331.959831	67.289510
3333.029419	71.004895
3334.100317	71.913986
3335.169608	69.844755
3336.240210	68.035664
3337.309205	63.919580
3338.376594	63.993007
3339.442378	52.817483
3340.512388	48.656643
3341.579335	44.386014
3342.643220	45.588811
3343.709873	41.838462
3344.774921	50.911888
3345.838366	62.323077
3346.901665	67.342657
3347.964817	75.244056
3349.027823	86.633566
3350.090683	94.581818
3351.151941	95.950350
3352.210142	83.513986
3353.272563	74.486713
3354.331929	70.270629
3355.391149	71.341259
3356.451679	62.588112
3357.507699	66.631469
3358.566483	75.246853
3359.620760	75.775524
3360.677801	77.021678
3361.733243	78.593706
3362.789995	71.560140
3363.845148	65.897203
3364.898704	58.486014
3365.950664	55.130070
3367.005385	59.818881
3368.057057	66.441259
3369.108586	62.778322
3370.161423	76.130070
3371.211213	84.667133
3372.262312	83.150350
3373.310365	77.641259
3374.361177	73.804895
3375.408945	70.313287
3376.456570	71.337762
3377.504052	67.112587
3378.549942	65.251748
3379.597140	66.177622
3380.641296	65.775524
3381.688210	70.530070
3382.733532	71.975524
3383.775813	72.141958
3384.817954	63.705594
3385.861402	57.592308
3386.904709	56.076224
3387.946427	54.382517
3388.988003	53.885315
3390.029438	56.540559
3391.069285	59.823077
3392.107543	56.250350
3393.147109	61.888112
3394.186535	76.346853
3395.224373	73.266434
3396.260624	75.482517
3397.296736	68.570629
3398.334155	66.660140
3399.368541	71.255245
3400.404234	69.660839
3401.439788	67.281818
3402.472311	66.938462
3403.507587	59.806294
3404.539832	53.207692
3405.571939	60.155245
3406.602462	62.932168
3407.634292	59.019580
3408.665984	61.666434
3409.694648	60.537762
3410.723175	71.533566
3411.753008	79.506294
3412.782704	76.480420
3413.809374	75.139161
3414.837351	80.906993
3415.862303	83.647552
3416.890005	87.267133
3417.914684	88.948252
3418.940669	89.978322
3419.965074	86.404895
3420.989343	81.216783
3422.012033	76.904895
3423.034587	81.146853
3424.058447	78.611189
3425.079287	74.924476
3426.099991	77.416783
3427.122002	79.005020
3428.140994	78.428172
3429.159850	74.425225
3430.180013	65.735165
3431.197159	51.096978
