-118.059454	3.578297
-115.389854	4.337363
-112.723189	5.126324
-110.057276	5.919481
-107.394295	6.691134
-104.729885	7.415584
-102.068405	8.067133
-99.405496	9.187413
-96.747693	9.128671
-94.088461	7.569930
-91.429977	8.794406
-88.774417	6.646853
-86.117429	6.274126
-83.465539	5.381119
-80.812218	5.790210
-78.161818	4.062937
-75.509988	3.694406
-72.863249	3.597902
-70.215081	7.062937
-67.567655	10.190909
-64.923143	9.251049
-62.277203	7.491608
-59.636344	9.031469
-56.994056	7.897203
-54.354677	9.510490
-51.713868	9.547552
-49.073800	10.020280
-46.438804	9.048951
-43.802380	9.225874
-41.168858	12.691608
-38.533908	13.444056
-35.904023	17.812587
-33.270546	18.041958
-30.642131	21.655944
-28.014450	24.154545
-25.385340	14.520280
-22.761287	-38.551748
-20.133645	-253.525175
-17.511056	-727.746853
-14.889199	-1062.532867
-12.268072	507.830769
-9.647675	3464.852448
-7.030167	5951.770629
-4.411230	7704.530070
-1.795178	8708.967832
0.820145	8968.162937
3.434741	8477.637063
6.046454	7246.286014
8.659596	5309.558042
11.267704	2802.718182
13.879394	206.405594
16.486053	-1412.886014
19.094140	-971.423077
21.701503	-91.447552
24.303841	22.337762
26.909757	20.700699
29.510651	18.375524
32.112973	16.195105
34.710278	11.677622
37.311158	7.876224
39.907023	7.805594
42.504317	8.334266
45.100891	5.652448
47.692456	7.004196
50.285449	9.384615
52.875581	7.554545
55.467141	7.416084
58.055841	9.381818
60.645968	10.755944
63.231096	9.872727
65.817652	11.567133
68.403494	9.284615
70.986482	10.712587
73.570896	9.563636
76.148182	8.739860
78.729034	11.340559
81.307037	9.813986
83.884330	7.141259
86.463049	8.171329
89.036786	7.003497
91.611951	5.540559
94.184272	6.158741
96.755885	8.586713
99.324658	6.131469
101.894858	6.816783
104.462220	7.404895
107.031007	7.980420
109.596958	7.144755
112.160074	6.574126
114.726746	10.034266
117.284197	12.538462
119.847333	16.806993
122.405509	26.480420
124.967240	45.774126
127.524014	74.260839
130.082215	111.893706
132.635462	162.213287
135.188012	226.400699
137.744112	298.734266
140.295264	372.962937
142.845719	450.233566
145.395476	516.264336
147.942414	564.484615
150.488657	599.420280
153.036325	616.735664
155.583297	622.811189
158.125334	620.242657
160.666677	609.330769
163.207327	599.457343
165.749403	591.218182
168.288667	585.590210
170.825123	582.118881
173.360887	585.653846
175.898077	584.746853
178.434576	581.686713
180.968269	578.413986
183.499158	574.541958
186.029360	571.967832
188.560986	564.048951
191.089811	558.989510
193.615837	558.405594
196.141177	557.316783
198.667942	556.927972
201.191911	556.705594
203.715195	555.669930
206.237794	554.216783
208.757600	555.202797
211.276723	558.058741
213.795163	566.502098
216.315027	579.276923
218.827890	596.425175
221.344284	614.865734
223.859996	635.325175
226.370818	655.224476
228.883065	672.624476
231.392530	681.122378
233.901316	687.026573
236.409423	692.439161
238.918955	696.111189
241.423606	694.774126
243.927581	695.229371
246.432980	699.127972
248.933504	703.886713
251.437552	701.387413
253.934628	705.707692
256.435228	711.194406
258.933056	715.452448
261.430211	720.009790
263.926693	725.553147
266.418312	733.948951
268.913451	741.620979
271.405823	746.915385
273.897525	755.620979
276.386464	763.301399
278.876827	769.769930
281.364427	777.605594
283.849268	787.120979
286.337624	799.501399
288.819040	816.021678
291.303970	842.749650
293.784055	867.579021
296.267652	900.416783
298.746406	922.862937
301.226584	931.295804
303.704009	933.583916
306.180771	926.500000
308.656870	919.883217
311.130220	917.235664
313.602908	911.113986
316.074935	903.725175
318.546301	899.353147
321.014922	895.127972
323.482885	884.511888
325.952269	872.915385
328.416831	850.716783
330.884897	825.608392
333.348143	804.076923
335.810731	785.017483
338.272663	774.637762
340.733938	769.603497
343.192479	764.999301
345.652442	761.050350
348.109672	757.416084
350.566248	751.646154
353.022170	745.787413
355.475362	740.194406
357.929977	734.291608
360.379790	730.534266
362.833099	725.851748
365.281610	716.652448
367.729469	710.415385
370.178751	703.634266
372.623239	697.532867
375.069149	690.430070
377.514409	684.217483
379.956951	680.442657
382.398845	678.240559
384.840092	676.630070
387.278623	671.206294
389.718576	668.284615
392.155815	664.475524
394.590342	660.927273
397.028357	663.696503
399.461595	662.547552
401.896254	659.411189
404.326141	653.102098
406.759513	651.804196
409.188115	652.991608
411.616075	654.774126
414.045457	657.059441
416.470073	659.212587
418.896111	661.414685
421.321508	662.331469
423.746265	666.366434
426.166264	669.158741
428.587684	669.535664
431.006407	667.847552
433.426551	663.281119
435.844000	657.606294
438.262869	650.600699
440.679045	644.026573
443.090473	634.013986
445.505379	623.746154
447.917594	612.472727
450.329175	598.053846
452.740122	588.969231
455.148383	583.025175
457.556011	577.653846
459.963007	573.055245
462.369372	576.311189
464.773054	576.501399
467.176106	581.193007
469.578528	587.780420
471.980320	594.228671
474.379435	605.628671
476.779969	620.835664
479.179874	634.855944
481.575056	658.746154
483.973705	683.765035
486.367634	704.678322
488.760937	727.357343
491.153614	755.281119
493.545666	774.734266
495.939136	791.825175
498.327894	771.913287
500.713986	663.804895
503.101498	407.010490
505.488387	518.405594
507.872612	2212.040559
510.258255	5912.753147
512.641237	10487.088811
515.021558	14559.137063
517.403298	17473.239161
519.782379	18988.388811
522.162879	19024.586713
524.540721	17568.718182
526.915908	14713.880420
529.290477	10733.836364
531.666464	6262.316783
534.039799	2567.656643
536.414551	820.518182
538.784618	722.832867
541.154069	1010.374825
543.524938	1071.902797
545.891127	1009.626573
548.258734	930.874126
550.623695	866.180420
552.988043	803.051748
555.351778	755.739161
557.716931	713.340559
560.077412	682.737762
562.439311	653.872028
564.798569	630.063636
567.155190	606.564336
569.515255	585.004895
571.868629	564.460140
574.225448	542.315385
576.579632	527.489510
578.933208	512.472028
581.286175	501.734266
583.636510	493.223776
585.988263	483.076224
588.333339	482.241259
590.683879	479.186713
593.027745	478.765734
595.377073	472.863636
597.721752	471.185315
600.063807	471.670629
602.407279	473.000699
604.748128	480.130769
607.088375	483.448252
609.426001	490.876923
611.767062	493.993706
614.103485	495.760140
616.441325	496.227972
618.776548	493.367133
621.109155	485.460140
623.443178	471.689510
625.774587	457.650350
628.105398	443.858741
630.435612	429.983916
632.765227	420.892308
635.090220	415.279720
637.420653	413.242657
639.746466	409.866434
642.069671	410.834965
644.394293	409.773427
646.716309	410.059441
649.037731	409.450350
651.356551	406.554545
653.676786	402.475524
655.996428	399.445455
658.313469	398.632168
660.629918	398.419580
662.943769	400.363636
665.259036	404.231469
667.571706	406.290909
669.885791	410.799301
672.195276	407.947552
674.506177	407.687413
676.814485	406.515385
679.122205	399.817483
681.431339	393.561538
683.735881	386.283217
686.039837	378.197203
688.343207	366.884615
690.647991	358.919580
692.948189	352.982517
695.249801	348.106993
697.550829	342.761538
699.847274	334.714685
702.145135	335.756643
704.442412	331.990909
706.739106	326.109091
709.031224	324.718182
711.326753	323.211888
713.617708	318.955944
715.910078	317.103497
718.199873	317.793007
720.489087	320.132867
722.777722	324.763636
725.063784	327.539860
727.351261	328.455944
729.636166	332.667832
731.920494	331.825175
734.202253	330.006294
736.485426	331.323776
738.768022	328.473427
741.046062	323.552448
743.325517	321.612587
745.604395	322.976224
747.882699	326.246853
750.156453	325.604895
752.431620	325.390210
754.706214	325.766434
756.978249	327.277622
759.251697	329.930769
761.522587	331.133566
763.790921	331.427273
766.060668	329.386014
768.327861	331.388112
770.594483	332.995804
772.860535	338.553846
775.124036	341.111189
777.388950	343.469930
779.653294	349.903497
781.913109	351.830769
784.174336	353.916084
786.434996	358.944056
788.693110	357.937063
790.948679	359.237063
793.207639	356.990210
795.460100	358.336364
797.717927	356.393007
799.971236	359.658042
802.222005	359.860839
804.474186	365.569930
806.723828	366.993706
808.974883	364.589510
811.221426	365.132867
813.469381	370.201399
815.714802	373.152448
817.961634	376.342657
820.207905	372.504895
822.449671	369.128671
824.694821	372.912587
826.933498	370.752448
829.175557	363.119580
831.413118	365.679021
833.652091	362.490210
835.888537	357.865734
838.126394	357.739161
840.361726	358.522378
842.594535	354.302797
844.828755	354.102797
847.060452	348.600000
849.291595	347.045455
851.522183	351.249650
853.752217	344.196503
855.981697	345.095804
858.206695	350.674126
860.435068	353.558042
862.658961	355.757343
864.884266	361.450350
867.105095	360.944056
869.329296	358.491608
871.549024	363.316084
873.770162	354.876923
875.990750	359.482517
878.208829	359.146853
880.428317	354.566434
882.643339	356.748252
884.857814	364.327972
887.071740	369.993706
889.285120	372.662937
891.497952	375.229371
893.710238	378.441958
895.920021	377.226573
898.129259	375.398601
900.337952	371.072028
902.544146	374.884615
904.751749	372.165734
906.956854	364.589510
909.161416	368.586014
911.363483	378.844755
913.566959	386.176923
915.767941	384.716084
917.968381	396.016084
920.170230	410.111888
922.365688	429.926573
924.564505	467.634266
926.758883	516.252448
928.956619	578.569231
931.149919	652.792308
933.344628	740.789510
935.536851	825.068531
937.728535	909.660140
939.919682	973.190210
942.108346	1014.990909
944.296474	1044.940559
946.482121	1050.348252
948.671120	1055.567832
950.855696	1052.178322
953.039737	1042.606993
955.227128	1035.595804
957.406215	1039.995804
959.588653	1055.469231
961.770557	1060.122378
963.949986	1074.130070
966.126943	1080.458741
968.305308	1092.558741
970.485080	1100.942657
972.658503	1111.081119
974.835272	1124.893706
977.007634	1133.642657
979.181404	1124.739161
981.350770	1108.773427
983.523480	1088.024476
985.693725	1049.802098
987.863441	994.910490
990.032628	929.432867
992.197418	862.667133
994.365549	801.622378
996.529286	739.774825
998.694429	687.946853
1000.857113	668.943357
1003.019272	669.251748
1005.178974	647.932867
1007.338151	673.318182
1009.498735	665.969231
1011.656865	669.507692
1013.814470	671.546853
1015.971552	662.490909
1018.128110	633.460839
1020.280289	605.518881
1022.433875	572.190210
1024.586939	553.308392
1026.737554	541.682517
1028.889576	534.967832
1031.037224	509.129371
1033.188204	519.976224
1035.334813	498.723776
1037.480903	522.290909
1039.626475	528.565035
1041.773452	545.107692
1043.914140	533.050350
1046.058158	540.727273
1048.199735	551.696503
1050.340796	564.352448
1052.483261	572.504196
1054.619447	574.560839
1056.758958	582.806294
1058.894115	583.619580
1061.032596	580.475524
1063.166723	579.268531
1065.300337	561.725874
1067.435356	568.875524
1069.566025	552.941958
1071.698099	531.917483
1073.827744	520.929371
1075.956877	506.890909
1078.085498	487.044056
1080.213608	477.848951
1082.339292	485.328671
1084.464466	470.754545
1086.591044	471.576923
1088.713284	472.625874
1090.836929	467.562937
1092.956239	473.765035
1095.080779	469.140559
1097.199073	451.432168
1099.318772	437.931469
1101.436052	429.916084
1103.552826	406.987413
1105.669093	400.467832
1107.782944	393.341958
1109.898200	390.851049
1112.009132	395.872028
1114.123377	395.439161
1116.233301	392.320280
1118.344629	380.860140
1120.455452	371.818182
1122.561959	380.385315
1124.671776	375.916084
1126.777278	375.123776
1128.884183	366.568531
1130.984873	356.295105
1133.090775	356.197203
1135.192368	352.851049
1137.295364	350.270629
1139.397859	339.115385
1141.494147	334.718182
1143.595643	328.174126
1145.692835	323.279021
1147.789530	342.913986
1149.885726	341.660839
1151.981425	340.169930
1154.076625	347.292308
1156.169429	337.070629
1158.263636	342.274825
1160.351651	342.502797
1162.444864	337.071329
1164.531889	326.048252
1166.622213	323.162937
1168.708250	319.800699
1170.797584	313.901399
1172.880737	316.280420
1174.965292	305.729371
1177.051249	302.427972
1179.132924	297.104895
1181.216001	288.464336
1183.296692	296.502098
1185.376891	298.866434
1187.456599	291.851049
1189.535816	294.236364
1191.612651	287.120979
1193.687105	287.904895
1195.764850	288.588112
1197.838326	279.867133
1199.913202	282.137063
1201.983811	287.553846
1204.055821	290.302797
1206.125456	295.330769
1208.196491	308.728671
1210.267038	307.783217
1212.333324	290.909790
1214.401011	284.046853
1216.466326	268.646853
1218.533041	265.773427
1220.595500	252.575524
1222.661244	245.006294
1224.722734	238.163636
1226.785625	234.688811
1228.846148	240.950350
1230.906187	251.476224
1232.965744	265.219580
1235.022935	274.770629
1237.079645	278.023077
1239.133991	285.305594
1241.191619	283.834965
1243.246884	284.168531
1245.297908	275.837063
1247.350332	278.832867
1249.402276	263.384615
1251.451862	253.221678
1253.500969	248.024476
1255.549598	243.820280
1257.597748	252.522378
1259.645419	255.424476
1261.688860	260.728671
1263.735577	268.519580
1265.779940	265.969930
1267.823827	266.324476
1269.865362	270.859441
1271.904548	279.332867
1273.947007	279.069231
1275.985243	271.472028
1278.024878	273.243357
1280.064038	271.146154
1282.098979	272.098601
1284.135319	267.055245
1286.169315	272.684615
1288.204708	274.788811
1290.235889	275.634266
1292.268467	277.065035
1294.300574	281.125874
1296.330340	277.644755
1298.361504	282.618881
1300.388460	291.832867
1302.416814	288.231469
1304.440963	285.569231
1306.468378	288.141259
1308.491590	280.102098
1310.516200	273.534965
1312.538476	265.759441
1314.562149	263.204895
1316.583489	258.341958
1318.604361	249.472727
1320.624766	247.222378
1322.640978	250.133566
1324.658587	264.991608
1326.673868	252.802098
1328.692408	257.136364
1330.706759	259.578322
1332.718784	248.908392
1334.734066	245.176923
1336.745163	244.840559
1338.757657	243.575524
1340.765968	241.280420
1342.777534	239.024476
1344.783062	240.418881
1346.791845	242.535664
1348.796450	247.214685
1350.804309	241.844755
1352.811706	239.502797
1354.813072	242.099301
1356.815834	240.048951
1358.818137	240.702098
1360.819980	242.695105
1362.821363	240.954545
1364.820433	237.555944
1366.819044	237.206294
1368.817197	232.791608
1370.814891	237.268531
1372.808423	240.271329
1374.803351	244.032168
1376.797821	242.683916
1378.791835	250.544755
1380.783542	248.442657
1382.774794	240.781119
1384.763740	241.763636
1386.754081	236.791608
1388.743967	236.976224
1390.731549	238.917483
1392.718678	238.153846
1394.703505	244.226573
1396.689727	249.286014
1398.673649	251.565035
1400.657118	249.623776
1402.640134	257.820979
1404.620853	252.710490
1406.602966	247.795804
1408.582783	249.734965
1410.562148	245.011189
1412.537375	244.479021
1414.515840	237.264336
1416.492012	237.744755
1418.467735	238.486014
1420.443008	234.436364
1422.415990	233.215385
1424.388524	234.076224
1426.360610	236.068531
1428.332249	233.797902
1430.299759	239.128671
1432.272343	240.134965
1434.237122	239.129371
1436.206972	234.104895
1438.172699	231.330769
1440.139818	247.381119
1442.104654	252.389510
1444.065370	255.717483
1446.031154	253.808392
1447.990983	254.213986
1449.952206	252.632867
1451.914821	250.291608
1453.873321	252.165734
1455.831378	243.334965
1457.788994	241.412587
1459.746167	235.277622
1461.701065	240.188112
1463.657356	254.620979
1465.611372	254.788811
1467.564947	255.408392
1469.516250	252.582517
1471.468946	254.042657
1473.419369	251.693706
1475.369354	248.018881
1477.318900	252.280420
1479.266177	249.366434
1481.211186	251.823077
1483.157588	243.006993
1485.103552	247.201399
1487.049079	243.305594
1488.992340	240.065734
1490.935166	239.915385
1492.875728	248.064336
1494.817681	254.104196
1496.757372	252.514685
1498.696629	260.604196
1500.635450	262.250350
1502.572012	264.864336
1504.509965	263.425874
1506.445659	264.577622
1508.380920	268.651748
1510.313925	260.111189
1512.246497	258.886713
1514.178637	251.244056
1516.110345	262.087413
1518.039799	265.686713
1519.970644	260.294406
1521.901057	270.151049
1523.827398	260.252448
1525.755130	257.723776
1527.680611	255.651049
1529.605663	261.096503
1531.530286	260.837063
1533.454480	254.137762
1535.376426	243.369231
1537.299763	241.505594
1539.220853	252.678322
1541.139700	256.588811
1543.059935	252.938462
1544.977928	261.538462
1546.895494	254.179021
1548.810818	257.937063
1550.727532	254.505594
1552.640191	251.559441
1554.556054	254.522378
1556.469677	256.104196
1558.381062	258.477622
1560.293837	270.349650
1562.202562	273.325175
1564.112676	264.280420
1566.022367	257.537063
1567.931635	264.384615
1569.838669	265.297902
1571.743470	271.290210
1573.649660	263.712587
1575.553618	264.053147
1577.457155	270.999301
1579.360272	272.225175
1581.261159	278.632168
1583.163435	278.994406
1585.063483	268.464336
1586.964918	257.848951
1588.862320	250.683217
1590.759303	247.625175
1592.655868	254.837762
1594.553821	266.380420
1596.445939	261.406993
1598.341250	252.798601
1600.236144	254.510490
1602.128816	258.851049
1604.021071	266.453846
1605.911107	267.563636
1607.800727	264.841259
1609.689932	268.073427
1611.578722	261.493706
1613.465294	260.884615
1615.353254	263.976224
1617.237197	264.923077
1619.122527	255.582517
1621.007444	250.449650
1622.890147	254.523776
1624.774237	262.958741
1626.654315	273.760140
1628.535781	272.587413
1630.415036	280.081119
1632.295677	287.632168
1634.170514	290.123776
1636.050332	289.304196
1637.926146	284.476224
1639.801549	280.938462
1641.678338	270.101399
1643.549331	259.014685
1645.423505	262.432168
1647.293680	267.514685
1649.167037	269.726573
1651.038190	266.411189
1652.907141	279.112587
1654.777477	284.928671
1656.643821	284.019580
1658.511550	289.465734
1660.377080	295.681818
1662.243996	277.585315
1664.106923	276.683916
1665.971235	289.556643
1667.833351	288.284615
1669.695062	291.206294
1671.558159	278.365035
1673.419060	288.480420
1675.277769	288.718881
1677.136074	291.860839
1678.995764	287.625175
1680.849686	287.456643
1682.706782	285.392308
1684.563475	282.295105
1686.416191	303.995105
1688.272079	327.081818
1690.123993	335.954545
1691.975506	354.962238
1693.826618	361.551049
1695.677330	374.546154
1697.527641	367.098601
1699.375767	366.648252
1701.225278	362.002797
1703.069040	335.851049
1704.917751	335.609091
1706.760716	330.497203
1708.606848	314.277622
1710.449017	320.169930
1712.294352	320.706993
1714.133946	313.019580
1715.974924	317.890909
1717.817285	308.306993
1719.655690	303.250350
1721.495478	313.611888
1723.333091	321.972727
1725.170308	317.488112
1727.005352	338.290210
1728.841779	331.118881
1730.676034	317.282517
1732.509894	320.821678
1734.343360	320.219580
1736.172881	316.002797
1738.005560	305.325874
1739.834295	297.874825
1741.666187	310.685315
1743.494137	330.043357
1745.321696	343.315385
1747.148862	359.217483
1748.975637	362.460839
1750.802020	381.794406
1752.624467	369.564336
1754.450069	367.044056
1756.271736	358.293706
1758.094785	341.264336
1759.915672	331.569930
1761.736171	350.886014
1763.558051	353.498601
1765.374231	352.395804
1767.193563	362.853846
1769.008968	361.287413
1770.827523	358.828671
1772.642153	374.941259
1774.456396	351.877622
1776.270253	349.331469
1778.083723	337.889510
1779.895040	338.951748
1781.707737	343.962937
1783.520049	357.451748
1785.328443	356.498601
1787.138217	359.186713
1788.944077	372.113287
1790.753082	375.452448
1792.558174	377.651049
1794.364647	380.344056
1796.170736	385.495804
1797.972914	369.769930
1799.778237	354.028671
1801.579651	339.925175
1803.382445	313.878322
1805.181333	291.663636
1806.981602	280.206294
1808.781489	266.181818
1810.579234	272.651748
1812.376599	257.906993
1814.173584	258.680420
1815.970188	274.534965
1817.764653	281.927972
1819.560497	272.836364
1821.350686	284.346853
1823.145772	284.809790
1824.935206	277.602098
1826.727776	266.372028
1828.518211	275.202098
1830.306512	289.763636
1832.097948	288.755944
1833.883738	283.892308
1835.670908	293.213287
1837.455946	292.955245
1839.244118	291.257343
1841.028404	287.876923
1842.810560	288.379021
1844.594096	285.202797
1846.375503	293.666434
1848.158289	295.648951
1849.937194	301.476923
1851.717479	299.608392
1853.495637	305.647552
1855.275174	306.638462
1857.052586	305.739161
1858.827874	300.897203
1860.604540	299.071329
1862.379084	287.095804
1864.155006	291.092308
1865.925307	285.346853
1867.698736	288.138462
1869.470045	294.870629
1871.240983	302.083916
1873.013299	298.488811
1874.780001	298.541259
1876.549829	285.167133
1878.315793	282.161538
1880.084880	271.785315
1881.850106	263.154545
1883.614964	259.944056
1885.381199	258.874126
1887.143575	243.776224
1888.905584	240.095804
1890.667225	238.617483
1892.428500	246.778322
1894.189407	241.867832
1895.949948	240.606993
1897.708379	247.189510
1899.466444	242.702098
1901.222402	249.240559
1902.979736	254.580420
1904.736705	259.138462
1906.491567	259.804196
1908.244325	262.541958
1909.996718	243.700000
1911.750488	236.873427
1913.502154	246.942657
1915.251718	249.617483
1917.002657	250.550350
1918.753234	254.789510
1920.499971	245.814685
1922.248085	240.484615
1923.994099	233.855944
1925.741488	240.375524
1927.486780	245.755245
1929.229974	236.562937
1930.974543	221.223776
1932.717017	233.900699
1934.459130	241.020979
1936.200883	249.955594
1937.942276	254.162238
1939.681576	253.765385
1941.420517	250.253147
1943.159099	248.183566
1944.895590	250.687413
1946.631723	252.696154
1948.369230	252.762238
1950.102915	239.900350
1951.837975	241.874126
1953.570946	253.092657
1955.303561	252.411888
1957.035820	267.851399
1958.767722	266.634266
1960.497538	259.251748
1962.225269	261.482517
1963.954375	272.078322
1965.683126	273.479720
1967.409793	269.732168
1969.136106	273.503497
1970.863792	273.272727
1972.585942	263.047552
1974.311193	263.916084
1976.032637	257.663636
1977.757182	254.600000
1979.479646	239.719580
1981.198308	230.356643
1982.920068	226.145455
1984.638026	239.565734
1986.357357	235.346154
1988.072889	231.163636
1989.793241	238.590210
1991.509795	236.281119
1993.222552	234.560140
1994.938405	241.469231
1996.652186	242.239161
1998.365617	235.435664
2000.076977	240.044755
2001.789709	245.751748
2003.498651	250.827273
2005.210685	255.213287
2006.917211	253.368531
2008.626828	248.955245
2010.334379	257.702098
2012.041581	253.675524
2013.746718	264.509091
2015.451509	260.560839
2017.157671	257.886713
2018.860051	245.992308
2020.563802	246.382517
2022.265491	242.647552
2023.966835	231.993007
2025.667833	224.365035
2027.366770	223.538462
2029.067079	218.368531
2030.763613	227.367832
2032.461518	233.873427
2034.157364	238.974126
2035.856296	244.145455
2037.549742	248.220979
2039.244559	245.280420
2040.939034	256.044056
2042.629740	256.266434
2044.323530	249.344755
2046.013553	252.785315
2047.704947	252.058741
2049.394288	253.995105
2051.084999	261.902797
2052.771947	261.693706
2054.458556	260.277622
2056.146534	265.540559
2057.830753	266.643357
2059.516343	263.660140
2061.201593	267.573427
2062.884794	260.093007
2064.569366	247.309790
2066.248475	243.971329
2067.932369	234.985315
2069.610802	234.309790
2071.292313	234.491608
2072.970072	232.598601
2074.647495	235.076923
2076.326287	235.092308
2078.003037	233.492308
2079.677745	225.944755
2081.353822	219.120979
2083.027859	218.879720
2084.701560	222.253147
2086.374926	226.240559
2088.046253	223.755944
2089.717246	225.690909
2091.387905	231.118182
2093.058230	243.593007
2094.728221	243.746154
2096.396176	247.242657
2098.063798	246.593007
2099.729385	250.382517
2101.396341	254.795804
2103.061264	265.295804
2104.725855	261.811888
2106.388414	251.422378
2108.052341	236.072028
2109.714237	232.733566
2111.375803	233.827972
2113.037037	238.204895
2114.696243	235.571329
2116.355118	252.343357
2118.013664	256.316084
2119.671880	268.097902
2121.326372	264.422378
2122.983929	262.301399
2124.641157	262.958042
2126.294663	258.412587
2127.949537	252.033566
2129.600692	260.209091
2131.254910	259.848951
2132.905411	259.165035
2134.557278	263.286014
2136.203737	262.900699
2137.854951	243.455944
2139.502451	236.916783
2141.151318	228.687413
2142.798166	226.048951
2144.444689	232.042657
2146.090886	228.924476
2147.733375	228.094406
2149.378922	233.181818
2151.020762	232.947552
2152.665659	243.962937
2154.306850	250.198601
2155.947719	246.588112
2157.588263	243.383217
2159.226795	245.527972
2160.866693	239.568531
2162.502891	227.243357
2164.140455	229.085315
2165.777697	223.672028
2167.412929	217.673427
2169.047840	220.386014
2170.682428	229.706993
2172.316696	249.128671
2173.947270	254.256643
2175.580896	260.448951
2177.210830	266.440559
2178.842129	266.398601
2180.471423	260.455245
2182.100398	259.841259
2183.729053	257.802797
2185.357389	256.905594
2186.983723	246.760839
2188.609738	249.664336
2190.233751	250.602098
2191.859130	248.226573
2193.482508	237.411189
2195.107251	233.017483
2196.728313	237.084615
2198.349058	239.797203
2199.971168	241.131469
2201.591280	249.746853
2203.209395	251.078322
2204.827195	259.499301
2206.444680	255.890210
2208.061849	257.902797
2209.678703	258.935664
2211.295241	249.628671
2212.909787	246.371329
2214.522340	241.585315
2216.136257	238.739860
2217.748183	236.537762
2219.361472	241.789510
2220.972771	239.598601
2222.582080	237.541259
2224.192753	231.165035
2225.801437	229.785315
2227.409808	222.900699
2229.016193	228.269231
2230.623941	227.222378
2232.229702	230.637762
2233.835152	240.121678
2235.438617	238.794406
2237.043445	248.810490
2238.646289	265.347552
2240.247150	257.918881
2241.849374	257.815385
2243.449616	258.382517
2245.051220	265.948951
2246.649171	266.686713
2248.248485	265.944755
2249.845819	255.884615
2251.442845	248.556643
2253.041233	241.959441
2254.635972	228.158741
2256.228734	225.032168
2257.822859	225.220979
2259.418345	215.086014
2261.010186	219.483916
2262.601721	225.752448
2264.194618	246.440559
2265.782205	255.425874
2267.374488	258.200699
2268.961465	268.920979
2270.551469	275.863636
2272.136169	274.958741
2273.725563	286.441958
2275.309655	280.409790
2276.895107	276.055944
2278.478591	263.955245
2280.065100	264.766434
2281.647976	267.549650
2283.230549	273.466434
2284.812818	261.681119
2286.391457	259.327972
2287.973121	264.691608
2289.551156	253.904196
2291.132214	257.381818
2292.709645	261.957343
2294.285113	249.218182
2295.863603	247.639860
2297.438469	242.213986
2299.013034	253.612587
2300.587299	259.913986
2302.161263	260.718881
2303.734926	264.807692
2305.308290	262.702797
2306.878035	272.893706
2308.447481	266.297902
2310.019945	283.127972
2311.587135	286.222378
2313.157343	281.548252
2314.723936	277.772727
2316.291889	278.704895
2317.857886	279.800000
2319.423586	299.209790
2320.988988	310.952448
2322.552437	319.897902
2324.117245	313.321678
2325.678445	322.309790
2327.242659	326.564336
2328.801611	330.796503
2330.363578	321.348252
2331.923593	294.279021
2333.483314	270.209091
2335.041085	257.717483
2336.598561	240.347552
2338.155743	246.567133
2339.710977	239.041259
2341.265918	243.981818
2342.820564	252.130070
2344.374917	251.674126
2345.928977	266.582517
2347.482742	270.581818
2349.034564	284.049650
2350.584442	276.580420
2352.137328	277.465035
2353.684972	283.906993
2355.235623	277.421678
2356.782683	280.441958
2358.331101	282.003497
2359.879228	293.762937
2361.423766	289.686713
2362.969662	267.381119
2364.513620	268.184615
2366.058935	263.809790
2367.600665	263.421678
2369.143752	249.602797
2370.684903	250.790909
2372.225765	251.411189
2373.766338	245.198601
2375.306622	244.883217
2376.846617	251.510490
2378.383034	254.923776
2379.922452	252.781818
2381.458293	268.875524
2382.995490	284.342657
2384.529112	302.371329
2386.065734	316.348252
2387.600426	321.565035
2389.133188	329.180420
2390.665663	326.827273
2392.196210	332.259441
2393.729755	322.130070
2395.258089	322.123776
2396.787780	307.930070
2398.317184	309.572028
2399.846304	304.496503
2401.375139	302.547552
2402.898768	313.344056
2404.427033	307.728671
2405.950096	303.309790
2407.477792	301.284615
2408.998649	294.384615
2410.524139	284.211888
2412.046068	267.502797
2413.569353	249.896503
2415.090716	240.366434
2416.610160	243.502098
2418.130959	238.887413
2419.649840	259.192308
2421.168438	270.406993
2422.685119	280.019580
2424.203154	283.541958
2425.720908	288.206993
2427.235111	295.125874
2428.749033	292.800699
2430.262675	295.855245
2431.777672	281.544755
2433.289120	283.434266
2434.801923	291.794406
2436.312812	291.037762
2437.823423	290.283217
2439.332122	270.552448
2440.843807	264.551049
2442.351949	259.521678
2443.859813	263.393706
2445.367399	282.648951
2446.871444	288.456643
2448.378474	307.964336
2449.883597	303.423776
2451.388441	311.249650
2452.891379	319.606993
2454.394041	321.029371
2455.896426	304.609790
2457.396906	303.040559
2458.898739	301.306993
2460.398667	310.685315
2461.898320	314.621678
2463.397698	313.147552
2464.895173	300.833566
2466.390746	297.451748
2467.889299	290.562238
2469.384324	291.246853
2470.880701	282.079021
2472.373552	273.753846
2473.867756	261.081818
2475.361686	263.862238
2476.852092	255.104895
2478.345476	274.777622
2479.836962	276.834965
2481.326551	281.906294
2482.815868	281.582517
2484.303289	299.735664
2485.793686	298.514685
2487.280565	294.862937
2488.768795	281.886713
2490.253508	280.367832
2491.737952	276.054545
2493.223746	267.032168
2494.707649	258.972028
2496.192902	264.050350
2497.673022	264.572727
2499.156115	279.435664
2500.637317	284.906294
2502.118250	291.672028
2503.597294	273.359441
2505.076069	277.972028
2506.554576	284.167133
2508.032815	298.383217
2509.510785	284.698601
2510.985250	282.246853
2512.462685	278.774825
2513.936616	282.472727
2515.411897	283.709091
2516.886911	283.688112
2518.358425	294.877622
2519.831288	301.919580
2521.302269	311.189510
2522.774600	327.261538
2524.241817	336.754545
2525.712001	331.041958
2527.180304	310.279021
2528.648342	305.904895
2530.116115	296.913287
2531.583623	293.852448
2533.050866	278.315385
2534.514617	269.962238
2535.979718	268.106294
2537.442942	266.327273
2538.907516	265.100000
2540.368600	276.755245
2541.831034	263.194406
2543.293205	267.033566
2544.751890	258.733566
2546.215147	254.341958
2547.673307	251.537063
2549.132816	250.121678
2550.587231	240.151049
2552.046217	253.795105
2553.503331	251.769231
2554.958574	257.431469
2556.413555	257.079021
2557.866668	274.491608
2559.321129	267.427972
2560.773720	280.715385
2562.226052	274.165734
2563.676517	276.916084
2565.129937	274.179021
2566.578275	274.676923
2568.029569	272.474126
2569.478996	286.564336
2570.924951	271.086713
2572.373861	262.275524
2573.819301	246.183916
2575.266088	239.374126
2576.711013	231.795804
2578.155679	233.486014
2579.601693	231.037063
2581.044241	231.479021
2582.488136	235.261538
2583.928566	242.326573
2585.370343	244.501399
2586.810261	247.046853
2588.251526	248.662238
2589.689329	248.916783
2591.130082	241.629371
2592.565773	244.026573
2594.004413	247.048252
2595.441195	251.376224
2596.876122	250.060140
2598.313996	249.982517
2599.746813	251.294406
2601.180977	258.886014
2602.613287	255.126573
2604.046943	249.774825
2605.478746	240.502797
2606.910295	220.123776
2608.341592	203.814685
2609.771036	201.058741
2611.200228	197.881818
2612.627570	204.898601
2614.056257	210.979021
2615.484693	222.832168
2616.909681	239.251049
2618.336016	251.477622
2619.760502	246.512587
2621.186334	246.215385
2622.608722	242.548252
2624.032456	241.848252
2625.454343	248.965734
2626.875981	257.374825
2628.295773	255.448252
2629.716911	255.032168
2631.137799	250.341259
2632.555249	255.239860
2633.975638	258.106993
2635.392590	246.600699
2636.809293	232.336364
2638.225748	237.097902
2639.641955	242.860140
2641.057914	258.842657
2642.472032	267.505594
2643.885902	268.990210
2645.297934	270.662238
2646.711309	274.441259
2648.121255	271.799301
2649.534137	268.993706
2650.943590	268.025175
2652.352797	254.688811
2653.760168	247.763636
2655.170473	241.693706
2656.578943	222.644755
2657.985577	219.362238
2659.391966	206.825874
2660.796521	199.555944
2662.202420	205.509790
2663.606486	204.262937
2665.010307	217.900699
2666.413884	228.013287
2667.815630	247.726573
2669.218719	258.430070
2670.618390	265.488112
2672.019405	259.469930
2673.417004	259.744056
2674.817533	253.475524
2676.214646	253.357343
2677.613103	242.225175
2679.009733	232.657343
2680.406120	216.882517
2681.802265	212.738462
2683.196585	206.763636
2684.592246	200.068531
2685.984499	197.127273
2687.378094	178.772028
2688.769865	166.962238
2690.162979	171.812587
2691.554269	164.978322
2692.943736	184.297902
2694.332963	198.106993
2695.721951	205.188811
2697.112280	213.633566
2698.497626	227.737063
2699.885895	252.870629
2701.272344	276.359441
2702.658554	277.625874
2704.044525	258.121678
2705.427098	252.437762
2706.811013	250.019580
2708.194690	228.860140
2709.578128	233.996503
2710.958172	234.402098
2712.339556	221.526573
2713.719126	219.313287
2715.100036	219.326573
2716.479132	216.767832
2717.856414	227.329371
2719.235037	201.867133
2720.611847	189.519580
2721.988420	190.933566
2723.364758	195.933566
2724.739285	190.312587
2726.115152	212.812587
2727.487632	229.514685
2728.863028	239.160839
2730.233464	249.686014
2731.605241	258.666434
2732.976783	265.832867
2734.346517	271.941259
2735.717592	241.121678
2737.086858	236.485315
2738.455891	234.693706
2739.823118	239.032168
2741.190112	218.224476
2742.556872	211.837762
2743.923401	200.420280
2745.288124	196.750350
2746.652615	191.672028
2748.016875	197.243357
2749.380902	199.712587
2750.744698	190.418182
2752.105120	182.423776
2753.468452	204.728671
2754.826842	217.072727
2756.188142	225.272727
2757.546072	226.930769
2758.906910	237.097902
2760.265949	244.383916
2761.621619	243.939860
2762.980197	241.964336
2764.335408	245.794406
2765.690390	241.136364
2767.043576	235.731469
2768.399668	230.876923
2769.752395	231.697203
2771.104895	237.526573
2772.457166	244.081818
2773.810776	244.655245
2775.161024	254.364336
2776.509478	261.002098
2777.860838	253.517483
2779.208838	265.158042
2780.558176	261.493706
2781.905722	254.429371
2783.253042	247.276923
2784.600135	232.941259
2785.945437	222.386713
2787.290512	232.018881
2788.635362	233.797902
2789.979986	223.034266
2791.321258	230.987413
2792.663868	237.841259
2794.006252	238.566434
2795.348411	242.127972
2796.687221	235.780420
2798.028931	234.367832
2799.367293	233.950350
2800.706991	220.789510
2802.044905	212.752448
2803.381034	218.602797
2804.716939	218.259441
2806.054182	218.937063
2807.389641	223.829371
2808.724877	227.893007
2810.058330	217.981818
2811.393120	216.338462
2812.724570	224.206294
2814.058915	219.006993
2815.388362	216.854545
2816.719146	206.362937
2818.049708	209.324476
2819.378491	216.123077
2820.708610	219.088112
2822.036951	228.265734
2823.365071	232.911888
2824.691413	233.062238
2826.019092	226.345455
2827.343437	229.854545
2828.669119	222.002098
2829.993025	207.069231
2831.316712	204.155944
2832.641734	210.253846
2833.963426	215.658042
2835.284900	207.338462
2836.606155	208.540559
2837.927191	217.773427
2839.246454	231.444056
2840.567053	235.341259
2841.885881	231.388112
2843.204490	224.123077
2844.521328	214.823077
2845.837949	218.937063
2847.154353	213.315385
2848.468987	204.166434
2849.784957	200.892308
2851.097606	198.587413
2852.411590	210.502797
2853.725358	220.453846
2855.038909	223.353147
2856.350694	217.941259
2857.660712	205.649650
2858.972065	202.348951
2860.280103	201.339860
2861.589475	201.345455
2862.898633	187.557343
2864.207575	184.929371
2865.514753	192.376923
2866.820169	185.802098
2868.126919	190.200000
2869.431906	189.516783
2870.736680	182.323077
2872.039692	186.508392
2873.345585	191.675524
2874.646624	200.109790
2875.948997	210.565035
2877.249610	211.855245
2878.551557	222.902797
2879.853290	220.318182
2881.151720	216.184615
2882.451483	206.906993
2883.749489	211.425175
2885.047283	211.067832
2886.343321	207.592308
2887.640692	214.896503
2888.936307	208.305594
2890.231711	204.894406
2891.526904	211.477622
2892.818800	207.235664
2894.113572	212.681119
2895.405047	209.430769
2896.697855	206.920280
2897.990453	197.643357
2899.279757	201.682517
2900.570393	209.476224
2901.859278	218.995804
2903.149495	222.211888
2904.436421	224.174825
2905.724679	229.423077
2907.011188	233.343357
2908.297489	242.041259
2909.583581	239.639161
2910.867925	233.707692
2912.155140	216.472727
2913.437529	209.579720
2914.721250	205.066434
2916.003225	214.777622
2917.284992	226.277622
2918.565015	219.893706
2919.847907	210.455944
2921.129054	216.497902
2922.406919	232.861538
2923.687653	240.392308
2924.965106	231.215385
2926.242353	226.562238
2927.517858	230.610490
2928.796231	231.754545
2930.069790	220.281818
2931.346216	216.438462
2932.620901	206.744056
2933.893845	187.941958
2935.168121	174.279021
2936.440657	175.381119
2937.712988	169.962238
2938.982047	159.837063
2940.253971	156.177622
2941.524157	148.761538
2942.794139	162.541259
2944.063918	161.307692
2945.331961	163.213287
2946.598267	162.886014
2947.864372	174.541958
2949.131806	186.088811
2950.397506	186.968531
2951.663003	188.113986
2952.928298	178.544755
2954.190328	188.981818
2955.453688	178.442657
2956.716847	175.402098
2957.978274	194.622378
2959.241030	192.633566
2960.502054	198.889510
2961.761348	193.572028
2963.020442	195.171329
2964.279335	196.144755
2965.538028	192.439161
2966.796521	198.314685
2968.053285	182.766434
2969.309849	197.037063
2970.564686	191.454545
2971.820851	203.184615
2973.073762	212.841259
2974.328002	211.852448
2975.582043	208.000000
2976.834358	209.489510
2978.086474	202.102797
2979.336866	204.675524
2980.590113	206.599301
2981.838583	213.133566
2983.089908	204.070629
2984.337983	202.615385
2985.585862	194.754545
2986.833543	190.831469
2988.081027	181.878322
2989.326790	171.250350
2990.572357	152.523077
2991.819251	161.460839
2993.062901	160.565734
2994.307879	176.127972
2995.549613	190.523077
2996.794199	209.950350
2998.037066	215.041259
2999.276692	216.532867
3000.519168	220.383916
3001.758404	225.248252
3002.998968	199.932168
3004.237816	178.279021
3005.476468	162.951748
3006.713406	163.974825
3007.951670	155.534266
3009.188219	159.158042
3010.424575	158.710490
3011.660737	164.293007
3012.895185	179.037063
3014.129441	184.923077
3015.363503	190.912587
3016.595853	206.067832
3017.826491	197.194406
3019.059975	204.253846
3020.291747	206.549650
3021.521809	194.369930
3022.751679	178.868531
3023.979839	184.627972
3025.209325	182.058042
3026.437102	187.169231
3027.664688	197.505594
3028.893601	190.135664
3030.117771	188.334266
3031.344784	201.840559
3032.568573	196.183916
3033.793689	185.056643
3035.017098	175.475524
3036.240317	165.646853
3037.461831	164.465035
3038.686186	174.754545
3039.905806	180.397203
3041.126752	192.018182
3042.347509	189.860839
3043.566562	187.437762
3044.786940	190.010490
3046.004102	191.015385
3047.222590	178.581818
3048.439375	173.968531
3049.655973	170.465734
3050.872382	164.977622
3052.085579	164.164336
3053.301613	162.149650
3054.514435	170.082517
3055.730094	176.595105
3056.941030	172.981119
3058.153291	168.639860
3059.365366	176.205594
3060.577253	178.174126
3061.787444	178.118182
3062.997448	181.534615
3064.207266	175.011888
3065.415388	173.090559
3066.623325	180.455944
3067.829566	184.802448
3069.037132	190.820280
3070.243003	190.098252
3071.448690	191.651748
3072.654191	190.098951
3073.857999	205.388112
3075.063131	203.201748
3076.266570	205.476224
3077.468318	200.729021
3078.669881	191.070629
3079.871261	190.853147
3081.072457	194.472028
3082.271963	193.402797
3083.471286	185.425175
3084.671932	171.532168
3085.870888	169.916084
3087.066650	155.058741
3088.265241	148.165734
3089.460638	142.074126
3090.657358	150.690210
3091.850886	141.325874
3093.047242	141.055245
3094.241912	164.083916
3095.433391	171.834266
3096.629201	186.553846
3097.820318	200.123077
3099.012757	196.386014
3100.202009	197.278322
3101.394086	188.846154
3102.584480	191.329371
3103.771688	191.274825
3104.960219	193.041958
3106.150071	194.428671
3107.336740	196.770629
3108.523228	203.706993
3109.709538	189.334965
3110.897169	193.774825
3112.081618	197.838462
3113.264388	183.537063
3114.449980	177.056643
3115.633893	179.538462
3116.816127	169.314685
3117.998182	159.230070
3119.180059	159.086713
3120.361758	165.011888
3121.541780	158.352448
3122.720125	156.988112
3123.901290	151.841259
3125.079280	152.730769
3126.257094	159.968531
3127.434730	159.927273
3128.610691	166.958042
3129.786475	169.508392
3130.963581	172.705594
3132.139012	169.987413
3133.312770	163.545455
3134.484855	165.820280
3135.658262	161.688811
3136.831492	160.644755
3138.003051	155.748951
3139.175930	155.880420
3140.345642	157.746853
3141.516675	157.831469
3142.686038	153.572727
3143.853730	151.033566
3145.024238	163.726573
3146.190088	155.498601
3147.360246	144.931469
3148.525748	152.038462
3149.691075	151.434266
3150.856229	149.181119
3152.021210	151.444056
3153.187510	156.197902
3154.349158	154.524476
3155.512125	149.223776
3156.674920	139.696503
3157.837542	143.538462
3158.998499	147.034965
3160.159283	144.503497
3161.319895	150.103497
3162.478843	159.920280
3163.637620	167.480420
3164.796225	169.383217
3165.954657	172.028671
3167.112919	169.962238
3168.269518	161.816084
3169.424456	151.857343
3170.580713	145.504196
3171.735309	148.012587
3172.889735	145.672028
3174.042501	161.760839
3175.195096	169.851049
3176.347522	172.607692
3177.499778	178.065035
3178.651863	170.903497
3179.800803	174.826573
3180.952549	156.764336
3182.102637	134.237762
3183.251069	123.086713
3184.399331	123.964336
3185.547425	133.556643
3186.695350	148.179720
3187.841619	162.616783
3188.987720	154.198601
3190.132167	161.889510
3191.276446	168.476923
3192.420557	166.906993
3193.565985	178.255944
3194.708275	157.451049
3195.850398	152.443357
3196.992353	156.467832
3198.134141	170.237762
3199.275762	172.525175
3200.414248	171.955245
3201.554051	157.079720
3202.695172	146.172028
3203.833158	146.701399
3204.969495	142.931469
3206.105666	140.594406
3207.243154	150.893007
3208.378994	143.858741
3209.516151	153.225874
3210.648695	156.351049
3211.785521	163.545455
3212.917735	154.776923
3214.051266	158.529371
3215.184633	161.165734
3216.314872	160.272028
3217.447909	163.192308
3218.577820	161.414685
3219.709047	157.782517
3220.837150	162.047552
3221.968049	151.897203
3223.097304	152.734266
3224.224916	148.431469
3225.349405	150.496503
3226.478170	148.187413
3227.603813	160.697902
3228.729294	159.518182
3229.853133	161.765734
3230.979766	158.117483
3232.101802	148.216084
3233.225154	143.523077
3234.348344	146.226573
3235.471372	135.448252
3236.592760	139.189510
3237.713986	140.156643
3238.833575	143.009790
3239.953002	139.620280
3241.070791	146.750350
3242.191372	148.816783
3243.308840	158.487413
3244.426147	148.735664
3245.543294	142.716084
3246.658805	140.703497
3247.775630	133.053147
3248.889346	131.432867
3250.005851	129.044755
3251.120722	126.146853
3252.232484	122.190210
3253.344086	120.948951
3254.457004	132.079720
3255.569762	140.241958
3256.679414	144.122378
3257.790381	148.346154
3258.901189	156.890210
3260.010365	169.383217
3261.117911	181.889510
3262.226770	191.244755
3263.335472	190.795804
3264.441071	189.205594
3265.547984	182.206993
3266.653268	169.844755
3267.759866	164.487413
3268.863364	160.711189
3269.968177	152.828671
3271.072832	156.308392
3272.174388	165.410490
3273.275788	163.112587
3274.378502	167.046853
3275.481060	178.758042
3276.580521	182.851748
3277.682766	177.841259
3278.781915	175.181119
3279.879440	175.307692
3280.976809	182.754545
3282.076960	188.326573
3283.174019	184.974825
3284.270922	173.449650
3285.367670	162.606993
3286.459860	143.094406
3287.556298	149.413287
3288.651114	156.946853
3289.745776	148.381119
3290.838816	153.623776
3291.931701	156.187413
3293.022967	157.242657
3294.115544	161.260140
3295.206502	165.619580
3296.295840	158.172727
3297.385025	141.538462
3298.475523	132.536364
3299.562936	125.832867
3300.650196	119.613986
3301.738769	111.351049
3302.827190	105.093706
3303.911063	119.369231
3304.999178	120.306993
3306.084211	124.416783
3307.167629	147.176923
3308.252359	155.265734
3309.335473	158.702098
3310.419900	166.157343
3311.501248	171.385315
3312.583908	167.121678
3313.664954	150.277622
3314.745849	146.037063
3315.825130	130.828671
3316.904261	134.626573
3317.984704	120.255245
3319.062072	113.386014
3320.140752	110.276224
3321.217820	103.586014
3322.294739	105.972028
3323.370046	115.920280
3324.445204	127.176923
3325.521673	141.677622
3326.595072	145.495105
3327.668322	154.425175
3328.742882	149.489510
3329.815834	152.910490
3330.887177	146.353846
3331.959831	149.660839
3333.029419	138.827273
3334.100317	140.012587
3335.169608	142.732867
3336.240210	144.328671
3337.309205	154.196503
3338.376594	159.025175
3339.442378	158.448951
3340.512388	138.421678
3341.579335	118.790909
3342.643220	115.002098
3343.709873	119.630769
3344.774921	123.698601
3345.838366	115.625874
3346.901665	125.589510
3347.964817	128.358042
3349.027823	129.856643
3350.090683	145.231469
3351.151941	151.527972
3352.210142	158.944056
3353.272563	136.137063
3354.331929	130.513986
3355.391149	130.744755
3356.451679	133.827972
3357.507699	135.264336
3358.566483	136.384615
3359.620760	134.818881
3360.677801	131.963636
3361.733243	138.096503
3362.789995	143.319580
3363.845148	141.731469
3364.898704	135.204196
3365.950664	124.884615
3367.005385	128.413986
3368.057057	126.865734
3369.108586	127.139161
3370.161423	136.569930
3371.211213	137.739860
3372.262312	138.615385
3373.310365	140.631469
3374.361177	128.000699
3375.408945	120.864336
3376.456570	114.842657
3377.504052	106.046853
3378.549942	112.091608
3379.597140	112.726573
3380.641296	114.305594
3381.688210	119.167832
3382.733532	130.741958
3383.775813	130.002098
3384.817954	133.057343
3385.861402	129.438462
3386.904709	119.945455
3387.946427	123.976923
3388.988003	124.924476
3390.029438	120.308392
3391.069285	114.458741
3392.107543	107.533566
3393.147109	117.814685
3394.186535	123.322378
3395.224373	129.775524
3396.260624	140.529371
3397.296736	152.562937
3398.334155	160.118182
3399.368541	160.257343
3400.404234	159.953147
3401.439788	149.905594
3402.472311	138.041259
3403.507587	121.257343
3404.539832	119.213986
3405.571939	115.921678
3406.602462	107.960140
3407.634292	108.925874
3408.665984	123.481818
3409.694648	135.863636
3410.723175	145.215385
3411.753008	155.786713
3412.782704	154.819580
3413.809374	154.679021
3414.837351	151.230769
3415.862303	141.709091
3416.890005	136.874126
3417.914684	123.576224
3418.940669	113.140559
3419.965074	112.426573
3420.989343	127.399301
3422.012033	140.747552
3423.034587	151.660839
3424.058447	157.443357
3425.079287	153.931469
3426.099991	151.950749
3427.122002	149.399301
3428.140994	147.160340
3429.159850	146.117083
3430.180013	147.152747
3431.197159	151.150549
