-118.059454	11.223077
-115.389854	5.139560
-112.723189	0.750849
-110.057276	-2.110190
-107.394295	-3.610689
-104.729885	-3.917782
-102.068405	-3.198601
-99.405496	-0.369231
-96.747693	3.097902
-94.088461	4.861538
-91.429977	6.260140
-88.774417	6.053846
-86.117429	7.403497
-83.465539	5.225175
-80.812218	6.736364
-78.161818	5.064336
-75.509988	4.013986
-72.863249	2.286014
-70.215081	1.614685
-67.567655	0.635664
-64.923143	4.223077
-62.277203	4.114685
-59.636344	8.837063
-56.994056	9.666434
-54.354677	10.546853
-51.713868	9.072028
-49.073800	11.063636
-46.438804	10.481119
-43.802380	9.987413
-41.168858	8.511189
-38.533908	6.051748
-35.904023	2.667133
-33.270546	4.786713
-30.642131	2.238462
-28.014450	4.406993
-25.385340	1.801399
-22.761287	-6.709790
-20.133645	-44.541958
-17.511056	-98.181119
-14.889199	-193.251748
-12.268072	34.840559
-9.647675	543.540559
-7.030167	976.867832
-4.411230	1286.723776
-1.795178	1473.575524
0.820145	1528.854545
3.434741	1460.069231
6.046454	1264.016783
8.659596	947.076224
11.267704	526.921678
13.879394	91.977622
16.486053	-241.626573
19.094140	-185.628671
21.701503	-20.544056
24.303841	-0.658042
26.909757	1.981119
29.510651	3.091608
32.112973	0.251049
34.710278	1.997902
37.311158	0.680420
39.907023	1.641958
42.504317	-1.244056
45.100891	0.879720
47.692456	1.601399
50.285449	2.853147
52.875581	4.055245
55.467141	10.014685
58.055841	10.698601
60.645968	12.644056
63.231096	8.964336
65.817652	9.058741
68.403494	8.234266
70.986482	9.197902
73.570896	7.361538
76.148182	6.239161
78.729034	5.327273
81.307037	6.604196
83.884330	6.665734
86.463049	7.497902
89.036786	5.391608
91.611951	7.192308
94.184272	4.695105
96.755885	8.423776
99.324658	10.134266
101.894858	10.001399
104.462220	7.882517
107.031007	5.583217
109.596958	4.091608
112.160074	5.970629
114.726746	3.739161
117.284197	4.046853
119.847333	3.023776
122.405509	4.980420
124.967240	6.639161
127.524014	12.807692
130.082215	16.351748
132.635462	22.577622
135.188012	32.169930
137.744112	41.839161
140.295264	52.057343
142.845719	64.557343
145.395476	71.776224
147.942414	79.225175
150.488657	83.005594
153.036325	88.157343
155.583297	88.016084
158.125334	90.094406
160.666677	88.051748
163.207327	87.354545
165.749403	86.260839
168.288667	86.336364
170.825123	85.872028
173.360887	86.691608
175.898077	86.227972
178.434576	86.502098
180.968269	85.846853
183.499158	84.896503
186.029360	82.427273
188.560986	82.162937
191.089811	80.011189
193.615837	80.159441
196.141177	81.046154
198.667942	82.414685
201.191911	84.227972
203.715195	83.754545
206.237794	84.911189
208.757600	85.769231
211.276723	85.079021
213.795163	84.879720
216.315027	85.687413
218.827890	88.937762
221.344284	91.453147
223.859996	96.651748
226.370818	97.446154
228.883065	97.658042
231.392530	97.197902
233.901316	94.528671
236.409423	94.471329
238.918955	95.490210
241.423606	96.579720
243.927581	99.676224
246.432980	101.187413
248.933504	105.853147
251.437552	105.644056
253.934628	105.839161
256.435228	102.311888
258.933056	103.836364
261.430211	102.801399
263.926693	103.281818
266.418312	104.848951
268.913451	107.496503
271.405823	110.830070
273.897525	116.069231
276.386464	116.250350
278.876827	114.625175
281.364427	113.169930
283.849268	113.380420
286.337624	112.995105
288.819040	115.066434
291.303970	116.311189
293.784055	118.825874
296.267652	121.941958
298.746406	126.886713
301.226584	129.157343
303.704009	131.061538
306.180771	128.345455
308.656870	128.911189
311.130220	132.779021
313.602908	133.962238
316.074935	133.620979
318.546301	131.362238
321.014922	130.128671
323.482885	129.732168
325.952269	126.946853
328.416831	124.502098
330.884897	117.907692
333.348143	111.669930
335.810731	106.802797
338.272663	107.221678
340.733938	106.403497
343.192479	108.653846
345.652442	107.365734
348.109672	107.266434
350.566248	108.920280
353.022170	112.313287
355.475362	112.716084
357.929977	113.657343
360.379790	111.327273
362.833099	108.900000
365.281610	107.089510
367.729469	106.174126
370.178751	103.562937
372.623239	103.390909
375.069149	99.324476
377.514409	97.541259
379.956951	94.475524
382.398845	95.859441
384.840092	96.771329
387.278623	99.600699
389.718576	98.471329
392.155815	102.841958
394.590342	104.297203
397.028357	104.331469
399.461595	104.303497
401.896254	106.115385
404.326141	104.070629
406.759513	99.051748
409.188115	95.051049
411.616075	95.610490
414.045457	94.862937
416.470073	96.902098
418.896111	93.781818
421.321508	95.734266
423.746265	96.675524
426.166264	96.913287
428.587684	97.588112
431.006407	102.023776
433.426551	100.004895
435.844000	97.630769
438.262869	94.730769
440.679045	94.285315
443.090473	92.795105
445.505379	91.037762
447.917594	86.050350
450.329175	86.593706
452.740122	84.604196
455.148383	82.403497
457.556011	82.371329
459.963007	83.828671
462.369372	83.710490
464.773054	85.186713
467.176106	85.625175
469.578528	89.777622
471.980320	91.920979
474.379435	92.066434
476.779969	93.765035
479.179874	96.505594
481.575056	96.631469
483.973705	97.364336
486.367634	102.216084
488.760937	104.222378
491.153614	111.192308
493.545666	115.356643
495.939136	118.154545
498.327894	116.559441
500.713986	103.008392
503.101498	78.649650
505.488387	94.254545
507.872612	315.804196
510.258255	795.786014
512.641237	1385.499301
515.021558	1916.635664
517.403298	2295.933566
519.782379	2498.260839
522.162879	2501.070629
524.540721	2310.812587
526.915908	1936.258741
529.290477	1420.739860
531.666464	845.781119
534.039799	360.260140
536.414551	130.155245
538.784618	112.723077
541.154069	145.853147
543.524938	152.100699
545.891127	146.311888
548.258734	137.480420
550.623695	126.660140
552.988043	118.510490
555.351778	108.546154
557.716931	107.812587
560.077412	105.390909
562.439311	102.423077
564.798569	101.150350
567.155190	97.964336
569.515255	95.797203
571.868629	91.495804
574.225448	92.306993
576.579632	86.547552
578.933208	83.760839
581.286175	79.133566
583.636510	74.937063
585.988263	73.584615
588.333339	71.189510
590.683879	69.134965
593.027745	67.614685
595.377073	63.946853
597.721752	64.238462
600.063807	64.221678
602.407279	67.648252
604.748128	66.630769
607.088375	70.726573
609.426001	72.647552
611.767062	77.132867
614.103485	79.697902
616.441325	83.373427
618.776548	81.100699
621.109155	81.132867
623.443178	78.082517
625.774587	74.764336
628.105398	70.308392
630.435612	65.959441
632.765227	60.274126
635.090220	58.713287
637.420653	58.292308
639.746466	60.224476
642.069671	59.486014
644.394293	61.980420
646.716309	61.920979
649.037731	68.543357
651.356551	67.079720
653.676786	67.076923
655.996428	66.218881
658.313469	65.081818
660.629918	63.010490
662.943769	61.881818
665.259036	60.953147
667.571706	62.578322
669.885791	60.777622
672.195276	61.486014
674.506177	62.366434
676.814485	63.966434
679.122205	61.420280
681.431339	60.715385
683.735881	59.817483
686.039837	56.434965
688.343207	55.167832
690.647991	53.095105
692.948189	52.053846
695.249801	55.244056
697.550829	53.377622
699.847274	53.192308
702.145135	56.302098
704.442412	56.191608
706.739106	56.883916
709.031224	55.889510
711.326753	54.596503
713.617708	51.259441
715.910078	50.451748
718.199873	49.037063
720.489087	47.358741
722.777722	49.911189
725.063784	48.799301
727.351261	49.337762
729.636166	52.563636
731.920494	54.734266
734.202253	56.512587
736.485426	57.495105
738.768022	57.193706
741.046062	57.236364
743.325517	55.136364
745.604395	53.562238
747.882699	52.528671
750.156453	53.172727
752.431620	50.540559
754.706214	50.659441
756.978249	53.207692
759.251697	55.028671
761.522587	53.182517
763.790921	50.546853
766.060668	49.986014
768.327861	50.027273
770.594483	49.928671
772.860535	51.562238
775.124036	52.671329
777.388950	54.683217
779.653294	55.712587
781.913109	59.653147
784.174336	60.941259
786.434996	60.527972
788.693110	58.251049
790.948679	58.485315
793.207639	62.320979
795.460100	63.986014
797.717927	64.939860
799.971236	69.311189
802.222005	68.060839
804.474186	70.132867
806.723828	71.812587
808.974883	69.382517
811.221426	65.213986
813.469381	62.766434
815.714802	61.000699
817.961634	61.704196
820.207905	61.930070
822.449671	60.743357
824.694821	57.750350
826.933498	60.721678
829.175557	57.922378
831.413118	59.343357
833.652091	60.302797
835.888537	56.513986
838.126394	56.344755
840.361726	57.676224
842.594535	57.944056
844.828755	58.724476
847.060452	56.253147
849.291595	53.827273
851.522183	52.618881
853.752217	53.961538
855.981697	52.367133
858.206695	51.839860
860.435068	51.923077
862.658961	52.168531
864.884266	52.763636
867.105095	53.816783
869.329296	53.489510
871.549024	52.396503
873.770162	49.813986
875.990750	49.939161
878.208829	51.123077
880.428317	54.969930
882.643339	55.217483
884.857814	55.333566
887.071740	59.174825
889.285120	61.424476
891.497952	60.060839
893.710238	59.925874
895.920021	60.667832
898.129259	60.306294
900.337952	60.497203
902.544146	58.816783
904.751749	59.419580
906.956854	61.834266
909.161416	60.455245
911.363483	61.311189
913.566959	64.010490
915.767941	63.776923
917.968381	63.197902
920.170230	65.128671
922.365688	70.510490
924.564505	76.243357
926.758883	82.081818
928.956619	85.671329
931.149919	97.020979
933.344628	105.772028
935.536851	116.493007
937.728535	128.154545
939.919682	133.931469
942.108346	137.504196
944.296474	143.179021
946.482121	148.586014
948.671120	152.453846
950.855696	151.279720
953.039737	148.460140
955.227128	148.439860
957.406215	151.890210
959.588653	154.325874
961.770557	155.615385
963.949986	154.701399
966.126943	149.239161
968.305308	151.637762
970.485080	158.076224
972.658503	160.502098
974.835272	154.228671
977.007634	155.470629
979.181404	156.795804
981.350770	159.581818
983.523480	159.231469
985.693725	154.551049
987.863441	141.619580
990.032628	132.540559
992.197418	118.298601
994.365549	113.460839
996.529286	106.809790
998.694429	99.397902
1000.857113	93.079720
1003.019272	97.361538
1005.178974	92.515385
1007.338151	89.045455
1009.498735	82.223077
1011.656865	78.992308
1013.814470	72.085315
1015.971552	72.957343
1018.128110	68.689510
1020.280289	68.452448
1022.433875	67.234266
1024.586939	74.939161
1026.737554	70.699301
1028.889576	70.040559
1031.037224	64.847552
1033.188204	66.880420
1035.334813	66.169231
1037.480903	75.648252
1039.626475	74.318182
1041.773452	80.952448
1043.914140	75.174126
1046.058158	70.263636
1048.199735	73.968531
1050.340796	79.879720
1052.483261	73.118881
1054.619447	76.432168
1056.758958	75.331469
1058.894115	85.716783
1061.032596	83.561538
1063.166723	90.919580
1065.300337	87.003497
1067.435356	85.083916
1069.566025	76.867133
1071.698099	73.984615
1073.827744	72.827273
1075.956877	67.422378
1078.085498	60.154545
1080.213608	53.991608
1082.339292	43.945455
1084.464466	48.573427
1086.591044	44.818182
1088.713284	47.718182
1090.836929	46.833566
1092.956239	47.361538
1095.080779	50.783916
1097.199073	56.061538
1099.318772	54.109790
1101.436052	54.504895
1103.552826	57.327273
1105.669093	60.006993
1107.782944	63.058042
1109.898200	72.602797
1112.009132	72.423776
1114.123377	64.446154
1116.233301	62.237063
1118.344629	61.040559
1120.455452	61.213287
1122.561959	61.395105
1124.671776	54.607692
1126.777278	55.275524
1128.884183	53.762238
1130.984873	54.962238
1133.090775	56.131469
1135.192368	55.647552
1137.295364	48.374825
1139.397859	45.574825
1141.494147	46.488112
1143.595643	48.529371
1145.692835	48.248951
1147.789530	50.560839
1149.885726	48.746853
1151.981425	49.387413
1154.076625	45.709790
1156.169429	48.718182
1158.263636	49.813986
1160.351651	51.159441
1162.444864	52.551748
1164.531889	58.446853
1166.622213	61.439860
1168.708250	62.951748
1170.797584	63.939161
1172.880737	63.082517
1174.965292	60.715385
1177.051249	58.618182
1179.132924	53.647552
1181.216001	52.060839
1183.296692	49.735664
1185.376891	50.813287
1187.456599	53.055944
1189.535816	51.534266
1191.612651	51.991608
1193.687105	47.133566
1195.764850	44.540559
1197.838326	41.290210
1199.913202	43.253846
1201.983811	38.611189
1204.055821	38.197203
1206.125456	38.890909
1208.196491	39.587413
1210.267038	40.889510
1212.333324	42.446853
1214.401011	39.828671
1216.466326	40.103497
1218.533041	37.102098
1220.595500	36.186014
1222.661244	37.920280
1224.722734	38.938462
1226.785625	38.013287
1228.846148	40.131469
1230.906187	38.454545
1232.965744	36.906993
1235.022935	39.259441
1237.079645	42.214685
1239.133991	45.570629
1241.191619	46.747552
1243.246884	46.786014
1245.297908	48.332867
1247.350332	48.293706
1249.402276	48.046853
1251.451862	48.346853
1253.500969	47.067133
1255.549598	44.578322
1257.597748	41.778322
1259.645419	41.461538
1261.688860	41.606993
1263.735577	42.212587
1265.779940	39.572727
1267.823827	41.874825
1269.865362	44.752448
1271.904548	45.125874
1273.947007	48.706294
1275.985243	52.058042
1278.024878	54.718881
1280.064038	54.169231
1282.098979	52.845455
1284.135319	52.861538
1286.169315	53.313287
1288.204708	55.033566
1290.235889	56.643357
1292.268467	55.332867
1294.300574	54.936364
1296.330340	56.741958
1298.361504	55.352448
1300.388460	53.972727
1302.416814	50.900000
1304.440963	49.214685
1306.468378	47.778322
1308.491590	46.707692
1310.516200	44.912587
1312.538476	44.427972
1314.562149	42.146853
1316.583489	39.257343
1318.604361	40.006294
1320.624766	42.503497
1322.640978	39.869930
1324.658587	40.627273
1326.673868	40.651748
1328.692408	47.133566
1330.706759	49.730070
1332.718784	51.612587
1334.734066	48.146853
1336.745163	49.065035
1338.757657	49.385315
1340.765968	51.900699
1342.777534	50.716084
1344.783062	47.785315
1346.791845	46.041958
1348.796450	45.932867
1350.804309	45.502098
1352.811706	45.704895
1354.813072	44.022378
1356.815834	41.970629
1358.818137	34.980420
1360.819980	35.730070
1362.821363	36.300000
1364.820433	40.011888
1366.819044	39.420979
1368.817197	38.772727
1370.814891	42.181818
1372.808423	44.023776
1374.803351	44.941958
1376.797821	44.701399
1378.791835	44.879021
1380.783542	44.220979
1382.774794	38.702797
1384.763740	39.658042
1386.754081	41.407692
1388.743967	41.025874
1390.731549	39.539860
1392.718678	36.203497
1394.703505	36.155944
1396.689727	37.944755
1398.673649	37.299301
1400.657118	37.540559
1402.640134	37.374825
1404.620853	39.581119
1406.602966	42.273427
1408.582783	44.327273
1410.562148	46.176224
1412.537375	47.181119
1414.515840	45.111189
1416.492012	42.109790
1418.467735	43.054545
1420.443008	40.380420
1422.415990	38.024476
1424.388524	38.128671
1426.360610	39.518881
1428.332249	42.729371
1430.299759	47.932168
1432.272343	46.497203
1434.237122	49.223077
1436.206972	50.581119
1438.172699	49.822378
1440.139818	49.549650
1442.104654	47.906993
1444.065370	44.172727
1446.031154	44.014685
1447.990983	42.374825
1449.952206	41.005594
1451.914821	40.609091
1453.873321	41.737762
1455.831378	38.002098
1457.788994	38.997902
1459.746167	40.163636
1461.701065	39.547552
1463.657356	40.234965
1465.611372	42.535664
1467.564947	41.700000
1469.516250	39.878322
1471.468946	41.741958
1473.419369	43.255245
1475.369354	43.834965
1477.318900	44.551049
1479.266177	44.897203
1481.211186	44.729371
1483.157588	45.206993
1485.103552	46.344056
1487.049079	47.125874
1488.992340	48.330769
1490.935166	45.447552
1492.875728	43.851049
1494.817681	46.944755
1496.757372	44.821678
1498.696629	43.711888
1500.635450	43.237762
1502.572012	45.096503
1504.509965	43.492308
1506.445659	46.135664
1508.380920	47.303497
1510.313925	45.367133
1512.246497	45.872727
1514.178637	46.688112
1516.110345	48.381818
1518.039799	47.681818
1519.970644	43.979720
1521.901057	45.701399
1523.827398	46.494406
1525.755130	49.361538
1527.680611	50.059441
1529.605663	52.415385
1531.530286	51.108392
1533.454480	50.104196
1535.376426	45.768531
1537.299763	43.196503
1539.220853	38.765734
1541.139700	30.791608
1543.059935	27.856643
1544.977928	33.861538
1546.895494	34.895105
1548.810818	39.686014
1550.727532	44.696503
1552.640191	49.692308
1554.556054	52.956643
1556.469677	53.034266
1558.381062	52.113986
1560.293837	52.372028
1562.202562	51.702797
1564.112676	50.643357
1566.022367	52.914685
1567.931635	56.992308
1569.838669	55.097902
1571.743470	54.244755
1573.649660	56.064336
1575.553618	55.259441
1577.457155	52.530769
1579.360272	49.906993
1581.261159	50.282517
1583.163435	47.173427
1585.063483	46.183217
1586.964918	46.590210
1588.862320	44.647552
1590.759303	43.898601
1592.655868	42.444755
1594.553821	40.874825
1596.445939	43.741958
1598.341250	42.012587
1600.236144	39.603497
1602.128816	42.830070
1604.021071	41.906294
1605.911107	38.970629
1607.800727	41.562238
1609.689932	48.395105
1611.578722	49.758042
1613.465294	50.520979
1615.353254	49.996503
1617.237197	50.651748
1619.122527	52.655245
1621.007444	53.241958
1622.890147	50.628671
1624.774237	50.172028
1626.654315	46.761538
1628.535781	44.013287
1630.415036	46.563636
1632.295677	47.433566
1634.170514	44.142657
1636.050332	43.051748
1637.926146	43.230769
1639.801549	45.593706
1641.678338	46.071329
1643.549331	49.753147
1645.423505	45.180420
1647.293680	45.676923
1649.167037	42.618881
1651.038190	41.857343
1652.907141	40.537063
1654.777477	35.710490
1656.643821	31.261538
1658.511550	35.494406
1660.377080	37.082517
1662.243996	36.205594
1664.106923	36.534965
1665.971235	40.865734
1667.833351	42.298601
1669.695062	44.923776
1671.558159	44.651748
1673.419060	51.937063
1675.277769	49.220280
1677.136074	49.123776
1678.995764	44.579021
1680.849686	45.960839
1682.706782	47.008392
1684.563475	45.794406
1686.416191	42.418881
1688.272079	40.835664
1690.123993	45.082517
1691.975506	42.642657
1693.826618	51.966434
1695.677330	57.758042
1697.527641	49.800000
1699.375767	55.181818
1701.225278	52.931469
1703.069040	53.334965
1704.917751	55.163636
1706.760716	48.315385
1708.606848	44.116783
1710.449017	40.547552
1712.294352	46.149650
1714.133946	46.223776
1715.974924	51.255944
1717.817285	54.497902
1719.655690	52.401399
1721.495478	56.951049
1723.333091	58.302797
1725.170308	54.869231
1727.005352	47.985315
1728.841779	43.869930
1730.676034	39.440559
1732.509894	35.025874
1734.343360	37.076224
1736.172881	38.880420
1738.005560	34.330769
1739.834295	38.100000
1741.666187	38.748252
1743.494137	41.440559
1745.321696	50.146853
1747.148862	51.181818
1748.975637	54.135664
1750.802020	60.380420
1752.624467	60.725175
1754.450069	59.246154
1756.271736	58.933566
1758.094785	64.483217
1759.915672	55.609790
1761.736171	56.603497
1763.558051	50.631469
1765.374231	48.272727
1767.193563	39.624476
1769.008968	34.036364
1770.827523	35.441259
1772.642153	39.842657
1774.456396	46.989510
1776.270253	49.239161
1778.083723	56.734266
1779.895040	60.957343
1781.707737	59.948951
1783.520049	61.153846
1785.328443	52.004895
1787.138217	40.217483
1788.944077	30.653147
1790.753082	26.385315
1792.558174	30.925175
1794.364647	36.652448
1796.170736	41.979720
1797.972914	43.329371
1799.778237	44.883916
1801.579651	48.143357
1803.382445	52.074126
1805.181333	48.865035
1806.981602	44.423776
1808.781489	40.370629
1810.579234	41.694406
1812.376599	40.740559
1814.173584	44.164336
1815.970188	42.023776
1817.764653	46.519580
1819.560497	49.637063
1821.350686	57.195105
1823.145772	60.644056
1824.935206	63.986014
1826.727776	61.913986
1828.518211	63.665734
1830.306512	57.087413
1832.097948	52.432168
1833.883738	48.275524
1835.670908	46.132867
1837.455946	42.220280
1839.244118	38.733566
1841.028404	38.153147
1842.810560	36.979720
1844.594096	34.888112
1846.375503	40.466434
1848.158289	42.129371
1849.937194	40.279720
1851.717479	33.510490
1853.495637	38.649650
1855.275174	42.179021
1857.052586	46.172028
1858.827874	46.880420
1860.604540	45.576923
1862.379084	52.802098
1864.155006	52.698601
1865.925307	57.309790
1867.698736	54.242657
1869.470045	53.753846
1871.240983	48.272028
1873.013299	47.171329
1874.780001	45.908392
1876.549829	41.467133
1878.315793	42.516783
1880.084880	43.490909
1881.850106	43.261538
1883.614964	40.493706
1885.381199	40.391608
1887.143575	43.171329
1888.905584	40.773427
1890.667225	46.744056
1892.428500	45.897902
1894.189407	44.897203
1895.949948	36.451748
1897.708379	34.417483
1899.466444	36.344755
1901.222402	32.248951
1902.979736	29.502098
1904.736705	27.651049
1906.491567	26.426573
1908.244325	33.539860
1909.996718	41.306294
1911.750488	46.550350
1913.502154	45.583916
1915.251718	39.209790
1917.002657	38.390210
1918.753234	42.601399
1920.499971	41.903497
1922.248085	41.257343
1923.994099	45.766434
1925.741488	49.304895
1927.486780	43.521678
1929.229974	50.372727
1930.974543	51.297203
1932.717017	51.296503
1934.459130	47.709091
1936.200883	44.761538
1937.942276	49.886713
1939.681576	49.363636
1941.420517	48.799301
1943.159099	51.374825
1944.895590	53.397203
1946.631723	53.011189
1948.369230	45.062238
1950.102915	43.911189
1951.837975	38.726573
1953.570946	38.875524
1955.303561	36.252448
1957.035820	38.221678
1958.767722	41.819580
1960.497538	40.986713
1962.225269	43.924476
1963.954375	46.322378
1965.683126	46.370629
1967.409793	43.632168
1969.136106	38.027273
1970.863792	41.730769
1972.585942	41.316783
1974.311193	40.019580
1976.032637	40.369231
1977.757182	40.236364
1979.479646	42.216084
1981.198308	40.311888
1982.920068	43.855245
1984.638026	48.023077
1986.357357	50.233566
1988.072889	46.925175
1989.793241	48.331469
1991.509795	53.593706
1993.222552	51.044056
1994.938405	50.746853
1996.652186	50.244056
1998.365617	46.543357
2000.076977	41.598601
2001.789709	41.611189
2003.498651	45.845455
2005.210685	48.596503
2006.917211	46.290909
2008.626828	42.844755
2010.334379	41.972727
2012.041581	40.282517
2013.746718	41.016084
2015.451509	45.391608
2017.157671	43.567133
2018.860051	43.100000
2020.563802	41.046853
2022.265491	43.093007
2023.966835	44.142657
2025.667833	41.490210
2027.366770	39.368531
2029.067079	40.394406
2030.763613	38.795804
2032.461518	41.058042
2034.157364	43.737063
2035.856296	47.720979
2037.549742	49.162238
2039.244559	49.584615
2040.939034	50.411189
2042.629740	50.057343
2044.323530	48.464336
2046.013553	46.055944
2047.704947	44.800000
2049.394288	39.477622
2051.084999	30.327972
2052.771947	30.739860
2054.458556	31.688811
2056.146534	34.971329
2057.830753	34.905594
2059.516343	34.522378
2061.201593	40.249650
2062.884794	41.315385
2064.569366	44.142657
2066.248475	48.083217
2067.932369	44.656643
2069.610802	41.183916
2071.292313	37.553846
2072.970072	38.444755
2074.647495	41.014685
2076.326287	37.901399
2078.003037	37.347552
2079.677745	39.154545
2081.353822	44.606993
2083.027859	45.442657
2084.701560	49.507692
2086.374926	49.622378
2088.046253	46.369930
2089.717246	48.751748
2091.387905	47.109091
2093.058230	45.516783
2094.728221	43.123776
2096.396176	39.354545
2098.063798	41.820979
2099.729385	43.444056
2101.396341	44.448252
2103.061264	41.204895
2104.725855	41.500699
2106.388414	39.786014
2108.052341	36.441259
2109.714237	37.777622
2111.375803	39.092308
2113.037037	44.067133
2114.696243	45.435664
2116.355118	45.404895
2118.013664	43.630070
2119.671880	42.961538
2121.326372	40.127972
2122.983929	35.351748
2124.641157	34.979021
2126.294663	32.545455
2127.949537	27.858741
2129.600692	31.000699
2131.254910	35.281119
2132.905411	41.861538
2134.557278	42.954545
2136.203737	43.585315
2137.854951	43.655944
2139.502451	46.032168
2141.151318	39.371329
2142.798166	33.627972
2144.444689	34.753846
2146.090886	32.863636
2147.733375	27.064336
2149.378922	29.791608
2151.020762	32.639860
2152.665659	37.590210
2154.306850	41.216084
2155.947719	42.611888
2157.588263	45.897902
2159.226795	48.265035
2160.866693	45.390909
2162.502891	45.879720
2164.140455	43.575524
2165.777697	38.394406
2167.412929	33.454545
2169.047840	37.052448
2170.682428	38.748252
2172.316696	39.397203
2173.947270	39.837762
2175.580896	37.613986
2177.210830	38.560839
2178.842129	38.925175
2180.471423	37.337063
2182.100398	33.344755
2183.729053	27.372028
2185.357389	28.020280
2186.983723	31.781818
2188.609738	36.687413
2190.233751	38.490210
2191.859130	37.230070
2193.482508	35.790210
2195.107251	31.757343
2196.728313	33.281119
2198.349058	35.232867
2199.971168	30.869930
2201.591280	31.661538
2203.209395	32.836364
2204.827195	37.182517
2206.444680	43.664336
2208.061849	48.182517
2209.678703	47.806294
2211.295241	44.720979
2212.909787	43.556643
2214.522340	43.620979
2216.136257	46.204196
2217.748183	42.579021
2219.361472	37.220280
2220.972771	35.496503
2222.582080	36.101399
2224.192753	33.752448
2225.801437	33.103497
2227.409808	37.430769
2229.016193	36.785315
2230.623941	38.960140
2232.229702	41.134965
2233.835152	39.577622
2235.438617	39.582517
2237.043445	36.965734
2238.646289	39.007692
2240.247150	40.090909
2241.849374	43.990210
2243.449616	40.921678
2245.051220	43.910490
2246.649171	47.576224
2248.248485	44.045455
2249.845819	44.538462
2251.442845	41.153147
2253.041233	37.051049
2254.635972	38.127972
2256.228734	35.821678
2257.822859	38.463636
2259.418345	36.707692
2261.010186	34.934266
2262.601721	35.502098
2264.194618	40.506993
2265.782205	38.889510
2267.374488	37.372727
2268.961465	41.450350
2270.551469	45.257343
2272.136169	45.119580
2273.725563	49.625874
2275.309655	51.177622
2276.895107	52.741958
2278.478591	48.330070
2280.065100	44.370629
2281.647976	43.824476
2283.230549	41.930769
2284.812818	37.183916
2286.391457	37.851049
2287.973121	41.582517
2289.551156	44.989510
2291.132214	42.893007
2292.709645	42.324476
2294.285113	36.625175
2295.863603	36.070629
2297.438469	32.997203
2299.013034	35.418881
2300.587299	37.038462
2302.161263	37.649650
2303.734926	36.244755
2305.308290	41.850350
2306.878035	43.740559
2308.447481	45.473427
2310.019945	43.943357
2311.587135	41.075524
2313.157343	40.661538
2314.723936	39.816783
2316.291889	41.828671
2317.857886	44.830070
2319.423586	48.027972
2320.988988	46.215385
2322.552437	49.494406
2324.117245	51.934266
2325.678445	51.830070
2327.242659	51.280420
2328.801611	53.744056
2330.363578	52.276923
2331.923593	48.512587
2333.483314	39.579720
2335.041085	44.116783
2336.598561	42.193706
2338.155743	49.036364
2339.710977	45.297203
2341.265918	51.844056
2342.820564	48.295804
2344.374917	46.353846
2345.928977	52.406294
2347.482742	59.648951
2349.034564	58.760140
2350.584442	57.064336
2352.137328	52.544755
2353.684972	47.300000
2355.235623	41.652448
2356.782683	41.658042
2358.331101	31.668531
2359.879228	30.678322
2361.423766	24.749650
2362.969662	24.736364
2364.513620	38.369930
2366.058935	39.958741
2367.600665	44.666434
2369.143752	45.791608
2370.684903	38.661538
2372.225765	31.907692
2373.766338	32.190210
2375.306622	29.325175
2376.846617	29.644056
2378.383034	36.699301
2379.922452	40.293706
2381.458293	42.402797
2382.995490	53.676224
2384.529112	59.240559
2386.065734	64.816084
2387.600426	65.802098
2389.133188	63.611888
2390.665663	61.981119
2392.196210	58.690210
2393.729755	58.990210
2395.258089	60.253846
2396.787780	55.169231
2398.317184	52.597902
2399.846304	49.655944
2401.375139	49.295105
2402.898768	46.937063
2404.427033	43.224476
2405.950096	46.832168
2407.477792	49.521678
2408.998649	45.134266
2410.524139	40.886014
2412.046068	44.838462
2413.569353	44.534965
2415.090716	38.774825
2416.610160	46.041259
2418.130959	40.818881
2419.649840	39.094406
2421.168438	40.252448
2422.685119	36.845455
2424.203154	37.726573
2425.720908	36.225175
2427.235111	30.727273
2428.749033	24.247552
2430.262675	34.653147
2431.777672	41.459441
2433.289120	43.667133
2434.801923	54.688112
2436.312812	52.818182
2437.823423	55.683217
2439.332122	51.748951
2440.843807	42.246154
2442.351949	40.984615
2443.859813	40.210490
2445.367399	32.297902
2446.871444	23.553147
2448.378474	29.476923
2449.883597	30.237762
2451.388441	35.929371
2452.891379	40.562937
2454.394041	37.437063
2455.896426	32.846154
2457.396906	32.358741
2458.898739	32.792308
2460.398667	35.783217
2461.898320	35.873427
2463.397698	33.581119
2464.895173	31.715385
2466.390746	37.751748
2467.889299	41.857343
2469.384324	46.362238
2470.880701	45.417483
2472.373552	47.271329
2473.867756	48.523077
2475.361686	48.825175
2476.852092	52.186014
2478.345476	52.118182
2479.836962	53.982517
2481.326551	52.794406
2482.815868	47.241958
2484.303289	48.053846
2485.793686	44.108392
2487.280565	40.816783
2488.768795	37.811888
2490.253508	38.502797
2491.737952	32.047552
2493.223746	29.100000
2494.707649	35.111888
2496.192902	30.543357
2497.673022	32.467832
2499.156115	29.653846
2500.637317	30.500000
2502.118250	35.369231
2503.597294	40.316084
2505.076069	41.231469
2506.554576	39.153846
2508.032815	38.700699
2509.510785	34.552448
2510.985250	38.794406
2512.462685	36.974126
2513.936616	28.655245
2515.411897	30.726573
2516.886911	33.957343
2518.358425	32.186713
2519.831288	33.547552
2521.302269	33.646154
2522.774600	32.913986
2524.241817	33.827972
2525.712001	37.155944
2527.180304	35.957343
2528.648342	37.486713
2530.116115	37.941259
2531.583623	42.923077
2533.050866	44.688112
2534.514617	45.413986
2535.979718	41.969930
2537.442942	41.469231
2538.907516	35.591608
2540.368600	40.462238
2541.831034	41.583916
2543.293205	42.327972
2544.751890	38.076224
2546.215147	42.577622
2547.673307	43.305594
2549.132816	42.585315
2550.587231	37.001399
2552.046217	34.213287
2553.503331	27.870629
2554.958574	23.322378
2556.413555	20.244056
2557.866668	25.166434
2559.321129	25.239161
2560.773720	26.456643
2562.226052	26.221678
2563.676517	33.893706
2565.129937	31.401399
2566.578275	35.270629
2568.029569	37.129371
2569.478996	34.739860
2570.924951	33.124476
2572.373861	31.053846
2573.819301	32.834965
2575.266088	38.220979
2576.711013	36.927273
2578.155679	38.530070
2579.601693	43.223776
2581.044241	40.579720
2582.488136	39.102098
2583.928566	42.560140
2585.370343	41.874126
2586.810261	39.106294
2588.251526	37.005594
2589.689329	28.979021
2591.130082	31.929371
2592.565773	33.792308
2594.004413	27.814685
2595.441195	26.411888
2596.876122	23.740559
2598.313996	15.838462
2599.746813	13.762937
2601.180977	16.562937
2602.613287	17.221678
2604.046943	18.283217
2605.478746	22.219580
2606.910295	27.834266
2608.341592	33.723776
2609.771036	37.774126
2611.200228	37.166434
2612.627570	36.344056
2614.056257	38.594406
2615.484693	42.917483
2616.909681	44.465035
2618.336016	48.919580
2619.760502	46.697203
2621.186334	49.631469
2622.608722	47.403497
2624.032456	47.706294
2625.454343	46.300000
2626.875981	45.923776
2628.295773	43.827972
2629.716911	42.372727
2631.137799	41.295105
2632.555249	45.211888
2633.975638	40.114685
2635.392590	40.582517
2636.809293	35.743357
2638.225748	32.739161
2639.641955	24.186014
2641.057914	27.577622
2642.472032	29.013287
2643.885902	27.983217
2645.297934	25.230070
2646.711309	25.726573
2648.121255	29.645455
2649.534137	36.748252
2650.943590	38.189510
2652.352797	46.858042
2653.760168	46.675524
2655.170473	43.339860
2656.578943	45.184615
2657.985577	47.348951
2659.391966	43.707692
2660.796521	33.946154
2662.202420	28.968531
2663.606486	28.788811
2665.010307	31.943357
2666.413884	34.658741
2667.815630	41.474126
2669.218719	47.083916
2670.618390	50.480420
2672.019405	45.174825
2673.417004	46.889510
2674.817533	46.281818
2676.214646	42.081818
2677.613103	37.381119
2679.009733	36.876224
2680.406120	36.405594
2681.802265	37.787413
2683.196585	40.139161
2684.592246	39.695105
2685.984499	39.903497
2687.378094	37.958741
2688.769865	29.945455
2690.162979	30.706294
2691.554269	30.955245
2692.943736	31.695105
2694.332963	38.141958
2695.721951	43.972028
2697.112280	46.451748
2698.497626	46.307692
2699.885895	48.416783
2701.272344	46.104196
2702.658554	46.123776
2704.044525	42.237762
2705.427098	38.051049
2706.811013	38.063636
2708.194690	32.053147
2709.578128	37.271329
2710.958172	41.827972
2712.339556	41.669231
2713.719126	36.660839
2715.100036	31.213986
2716.479132	30.172727
2717.856414	25.114685
2719.235037	27.656643
2720.611847	28.825175
2721.988420	32.369231
2723.364758	31.269930
2724.739285	28.876923
2726.115152	40.681119
2727.487632	43.592308
2728.863028	40.824476
2730.233464	40.416084
2731.605241	37.279021
2732.976783	37.344056
2734.346517	35.955245
2735.717592	40.744755
2737.086858	42.327273
2738.455891	41.442657
2739.823118	36.686014
2741.190112	36.149650
2742.556872	37.761538
2743.923401	34.124476
2745.288124	29.650350
2746.652615	33.883217
2748.016875	31.979720
2749.380902	31.475524
2750.744698	30.497203
2752.105120	32.976923
2753.468452	32.779720
2754.826842	34.346154
2756.188142	34.678322
2757.546072	37.851748
2758.906910	39.413287
2760.265949	43.327273
2761.621619	48.067133
2762.980197	52.650350
2764.335408	51.869231
2765.690390	50.217483
2767.043576	47.965035
2768.399668	49.290909
2769.752395	43.422378
2771.104895	45.783916
2772.457166	44.268531
2773.810776	46.945455
2775.161024	46.781818
2776.509478	48.814685
2777.860838	46.768531
2779.208838	43.788112
2780.558176	39.165035
2781.905722	32.494406
2783.253042	28.804895
2784.600135	26.604895
2785.945437	21.884615
2787.290512	22.934266
2788.635362	26.454545
2789.979986	30.965734
2791.321258	36.012587
2792.663868	40.756643
2794.006252	44.585315
2795.348411	46.281119
2796.687221	46.124476
2798.028931	41.815385
2799.367293	35.178322
2800.706991	27.960839
2802.044905	27.443357
2803.381034	27.546154
2804.716939	35.981119
2806.054182	34.422378
2807.389641	40.606294
2808.724877	41.826573
2810.058330	42.697203
2811.393120	41.339161
2812.724570	37.215385
2814.058915	29.593007
2815.388362	24.548252
2816.719146	25.363636
2818.049708	29.325175
2819.378491	31.926573
2820.708610	41.697902
2822.036951	37.851049
2823.365071	40.019580
2824.691413	42.698601
2826.019092	42.167832
2827.343437	44.258741
2828.669119	38.382517
2829.993025	37.132168
2831.316712	35.255944
2832.641734	35.585315
2833.963426	30.891608
2835.284900	28.113986
2836.606155	27.620979
2837.927191	20.040559
2839.246454	17.555944
2840.567053	13.522378
2841.885881	6.794406
2843.204490	7.155245
2844.521328	6.620280
2845.837949	12.231469
2847.154353	18.365734
2848.468987	22.377622
2849.784957	25.899301
2851.097606	30.866434
2852.411590	33.886014
2853.725358	36.395804
2855.038909	34.693007
2856.350694	29.111189
2857.660712	31.288112
2858.972065	36.076923
2860.280103	39.427972
2861.589475	40.463636
2862.898633	41.709091
2864.207575	39.469930
2865.514753	41.396503
2866.820169	40.152448
2868.126919	34.773427
2869.431906	31.011189
2870.736680	28.029371
2872.039692	29.216783
2873.345585	29.676923
2874.646624	28.636364
2875.948997	24.452448
2877.249610	26.847552
2878.551557	29.683217
2879.853290	31.074825
2881.151720	34.055245
2882.451483	34.732168
2883.749489	32.613986
2885.047283	30.620280
2886.343321	32.576224
2887.640692	32.274126
2888.936307	26.091608
2890.231711	21.532867
2891.526904	17.619580
2892.818800	19.853846
2894.113572	19.225175
2895.405047	16.807692
2896.697855	21.983217
2897.990453	19.973427
2899.279757	19.324476
2900.570393	18.332168
2901.859278	24.730070
2903.149495	31.293007
2904.436421	27.481818
2905.724679	34.502797
2907.011188	38.374126
2908.297489	43.134965
2909.583581	45.200699
2910.867925	52.077622
2912.155140	54.046853
2913.437529	48.693007
2914.721250	44.372727
2916.003225	36.382517
2917.284992	35.086713
2918.565015	33.677622
2919.847907	21.800000
2921.129054	27.105594
2922.406919	26.962238
2923.687653	30.779021
2924.965106	33.855245
2926.242353	43.312587
2927.517858	44.476224
2928.796231	47.786014
2930.069790	48.258741
2931.346216	48.353846
2932.620901	45.408392
2933.893845	46.372028
2935.168121	38.539860
2936.440657	40.009091
2937.712988	37.159441
2938.982047	34.860839
2940.253971	30.067133
2941.524157	27.339161
2942.794139	28.060140
2944.063918	28.736364
2945.331961	34.830070
2946.598267	37.623077
2947.864372	32.248252
2949.131806	36.409790
2950.397506	29.887413
2951.663003	28.150350
2952.928298	25.538462
2954.190328	20.033566
2955.453688	16.597902
2956.716847	14.942657
2957.978274	17.039860
2959.241030	24.233566
2960.502054	29.016783
2961.761348	29.002098
2963.020442	31.344056
2964.279335	38.612587
2965.538028	37.201399
2966.796521	42.523077
2968.053285	41.339161
2969.309849	42.332867
2970.564686	41.007692
2971.820851	41.660140
2973.073762	34.644755
2974.328002	35.625175
2975.582043	25.311888
2976.834358	27.798601
2978.086474	35.383217
2979.336866	34.848252
2980.590113	32.917483
2981.838583	32.591608
2983.089908	30.258741
2984.337983	35.480420
2985.585862	31.132168
2986.833543	35.174825
2988.081027	28.739860
2989.326790	32.754545
2990.572357	34.160839
2991.819251	39.463636
2993.062901	39.376923
2994.307879	34.701399
2995.549613	27.905594
2996.794199	26.504196
2998.037066	28.862238
2999.276692	31.383217
3000.519168	27.469930
3001.758404	29.667133
3002.998968	28.286713
3004.237816	31.134965
3005.476468	30.034965
3006.713406	28.664336
3007.951670	30.938462
3009.188219	31.253846
3010.424575	29.123776
3011.660737	36.023776
3012.895185	38.283217
3014.129441	42.993706
3015.363503	39.512587
3016.595853	38.188112
3017.826491	36.321678
3019.059975	31.993007
3020.291747	27.239161
3021.521809	34.658741
3022.751679	37.868531
3023.979839	35.981119
3025.209325	36.187413
3026.437102	35.002797
3027.664688	36.941958
3028.893601	35.878322
3030.117771	29.355245
3031.344784	31.062937
3032.568573	26.075524
3033.793689	17.747552
3035.017098	17.789510
3036.240317	21.646154
3037.461831	18.210490
3038.686186	17.294406
3039.905806	16.377622
3041.126752	18.272028
3042.347509	23.344755
3043.566562	25.681818
3044.786940	30.825874
3046.004102	39.881119
3047.222590	41.814685
3048.439375	43.651049
3049.655973	49.676923
3050.872382	50.226573
3052.085579	49.331469
3053.301613	49.674825
3054.514435	48.208392
3055.730094	49.209091
3056.941030	46.745455
3058.153291	42.418182
3059.365366	39.640559
3060.577253	38.358042
3061.787444	31.658042
3062.997448	29.407343
3064.207266	30.990210
3065.415388	29.895455
3066.623325	26.539860
3067.829566	29.368182
3069.037132	33.946853
3070.243003	38.318531
3071.448690	36.022378
3072.654191	34.974476
3073.857999	35.454545
3075.063131	32.959790
3076.266570	27.071329
3077.468318	27.331119
3078.669881	27.922378
3079.871261	22.069930
3081.072457	17.173427
3082.271963	17.759441
3083.471286	19.513986
3084.671932	22.957343
3085.870888	19.765734
3087.066650	21.874825
3088.265241	21.648252
3089.460638	24.551049
3090.657358	25.983217
3091.850886	24.253846
3093.047242	23.330769
3094.241912	23.151049
3095.433391	21.913986
3096.629201	22.178322
3097.820318	24.516783
3099.012757	28.932168
3100.202009	27.285315
3101.394086	28.565035
3102.584480	27.048951
3103.771688	32.934965
3104.960219	30.514685
3106.150071	29.041259
3107.336740	27.437762
3108.523228	31.546853
3109.709538	31.644056
3110.897169	32.181818
3112.081618	35.915385
3113.264388	34.797902
3114.449980	32.067133
3115.633893	31.321678
3116.816127	31.186713
3117.998182	33.449650
3119.180059	27.364336
3120.361758	25.046853
3121.541780	23.942657
3122.720125	23.933566
3123.901290	23.911189
3125.079280	23.927972
3126.257094	23.348951
3127.434730	18.386014
3128.610691	19.611888
3129.786475	22.945455
3130.963581	26.727273
3132.139012	24.913287
3133.312770	20.694406
3134.484855	22.631469
3135.658262	25.517483
3136.831492	23.976923
3138.003051	22.655245
3139.175930	19.483217
3140.345642	16.295105
3141.516675	15.325874
3142.686038	19.054545
3143.853730	22.230769
3145.024238	27.388112
3146.190088	29.309790
3147.360246	30.688811
3148.525748	36.281818
3149.691075	39.530070
3150.856229	39.458741
3152.021210	33.236364
3153.187510	28.819580
3154.349158	25.239161
3155.512125	22.618182
3156.674920	25.488112
3157.837542	24.573427
3158.998499	28.472028
3160.159283	30.925874
3161.319895	28.720280
3162.478843	30.455245
3163.637620	31.184615
3164.796225	32.034965
3165.954657	27.062238
3167.112919	26.998601
3168.269518	27.480420
3169.424456	26.804895
3170.580713	28.204895
3171.735309	28.794406
3172.889735	28.141958
3174.042501	27.610490
3175.195096	25.017483
3176.347522	26.011189
3177.499778	26.571329
3178.651863	27.396503
3179.800803	21.983217
3180.952549	20.874825
3182.102637	19.504895
3183.251069	15.024476
3184.399331	17.032867
3185.547425	18.119580
3186.695350	14.958042
3187.841619	19.256643
3188.987720	21.391608
3190.132167	24.334965
3191.276446	27.159441
3192.420557	25.774126
3193.565985	22.470629
3194.708275	23.313986
3195.850398	22.572727
3196.992353	20.945455
3198.134141	22.632168
3199.275762	26.948951
3200.414248	26.548951
3201.554051	29.916084
3202.695172	28.100699
3203.833158	26.981119
3204.969495	27.137063
3206.105666	24.473427
3207.243154	18.544755
3208.378994	17.805594
3209.516151	14.776224
3210.648695	12.201399
3211.785521	11.133566
3212.917735	18.053846
3214.051266	20.764336
3215.184633	22.177622
3216.314872	23.595105
3217.447909	24.474126
3218.577820	27.826573
3219.709047	25.492308
3220.837150	20.886713
3221.968049	21.137063
3223.097304	17.287413
3224.224916	13.204895
3225.349405	11.460839
3226.478170	14.641259
3227.603813	16.891608
3228.729294	15.820280
3229.853133	20.643357
3230.979766	25.664336
3232.101802	26.744056
3233.225154	30.523776
3234.348344	31.726573
3235.471372	30.802797
3236.592760	28.148951
3237.713986	30.815385
3238.833575	33.621678
3239.953002	30.676923
3241.070791	29.318881
3242.191372	29.426573
3243.308840	31.703497
3244.426147	33.973427
3245.543294	30.951049
3246.658805	36.911189
3247.775630	33.796503
3248.889346	31.948252
3250.005851	32.544755
3251.120722	36.115385
3252.232484	35.338462
3253.344086	28.839860
3254.457004	24.007692
3255.569762	22.187413
3256.679414	18.983916
3257.790381	19.198601
3258.901189	19.768531
3260.010365	20.818881
3261.117911	17.523077
3262.226770	23.282517
3263.335472	30.769930
3264.441071	32.681119
3265.547984	36.560839
3266.653268	38.355245
3267.759866	37.053147
3268.863364	36.726573
3269.968177	34.332867
3271.072832	33.886713
3272.174388	30.014685
3273.275788	26.334965
3274.378502	20.910490
3275.481060	26.410490
3276.580521	28.776224
3277.682766	26.744755
3278.781915	29.720280
3279.879440	27.102797
3280.976809	25.058741
3282.076960	25.180420
3283.174019	23.003497
3284.270922	22.382517
3285.367670	19.206993
3286.459860	18.251748
3287.556298	14.820979
3288.651114	20.898601
3289.745776	23.520280
3290.838816	26.255944
3291.931701	25.072727
3293.022967	22.711888
3294.115544	25.286713
3295.206502	26.513986
3296.295840	22.191608
3297.385025	20.194406
3298.475523	17.258741
3299.562936	9.764336
3300.650196	5.388112
3301.738769	12.040559
3302.827190	7.456643
3303.911063	8.525874
3304.999178	10.369930
3306.084211	14.734965
3307.167629	18.988811
3308.252359	22.883916
3309.335473	20.889510
3310.419900	22.765035
3311.501248	23.744755
3312.583908	20.090909
3313.664954	24.041958
3314.745849	29.855245
3315.825130	25.785315
3316.904261	29.996503
3317.984704	30.302098
3319.062072	30.979021
3320.140752	29.328671
3321.217820	25.456643
3322.294739	17.115385
3323.370046	9.669930
3324.445204	8.825874
3325.521673	9.754545
3326.595072	13.188811
3327.668322	14.022378
3328.742882	16.355944
3329.815834	19.122378
3330.887177	20.096503
3331.959831	24.724476
3333.029419	28.804895
3334.100317	26.525175
3335.169608	21.072028
3336.240210	17.442657
3337.309205	20.236364
3338.376594	20.782517
3339.442378	24.561538
3340.512388	23.360839
3341.579335	23.943357
3342.643220	23.081119
3343.709873	23.316783
3344.774921	24.149650
3345.838366	25.034266
3346.901665	17.748951
3347.964817	16.619580
3349.027823	16.283217
3350.090683	16.037762
3351.151941	19.211189
3352.210142	24.864336
3353.272563	27.367832
3354.331929	28.272727
3355.391149	28.580420
3356.451679	27.137063
3357.507699	24.882517
3358.566483	23.216084
3359.620760	21.841259
3360.677801	26.655245
3361.733243	26.113986
3362.789995	25.826573
3363.845148	25.409091
3364.898704	20.633566
3365.950664	20.685315
3367.005385	14.916783
3368.057057	16.341259
3369.108586	12.129371
3370.161423	11.927972
3371.211213	11.860140
3372.262312	15.181119
3373.310365	21.125175
3374.361177	25.161538
3375.408945	29.423077
3376.456570	29.444056
3377.504052	24.562238
3378.549942	25.161538
3379.597140	24.334266
3380.641296	30.809091
3381.688210	29.866434
3382.733532	30.458741
3383.775813	28.090210
3384.817954	24.750350
3385.861402	27.074825
3386.904709	26.460839
3387.946427	28.197902
3388.988003	28.167133
3390.029438	24.142657
3391.069285	23.362937
3392.107543	23.785315
3393.147109	23.595105
3394.186535	18.262937
3395.224373	16.097203
3396.260624	10.053147
3397.296736	3.509091
3398.334155	5.381818
3399.368541	8.360140
3400.404234	16.982517
3401.439788	25.390909
3402.472311	28.076224
3403.507587	29.853147
3404.539832	30.795804
3405.571939	30.218881
3406.602462	23.869930
3407.634292	19.947552
3408.665984	15.171329
3409.694648	11.346154
3410.723175	11.816783
3411.753008	15.532168
3412.782704	18.550350
3413.809374	22.932168
3414.837351	24.103497
3415.862303	28.625175
3416.890005	30.357343
3417.914684	31.430070
3418.940669	25.705594
3419.965074	24.059441
3420.989343	22.256643
3422.012033	19.602797
3423.034587	16.493007
3424.058447	14.949650
3425.079287	8.896503
3426.099991	8.338362
3427.122002	9.312213
3428.140994	11.968232
3429.159850	16.456593
3430.180013	22.927473
3431.197159	31.531044
