-118.385087	8.546703
-115.715486	5.985714
-113.048821	2.499201
-110.382909	-1.532068
-107.719928	-5.727323
-105.055517	-9.705794
-102.394037	-13.086713
-99.731128	-15.290210
-97.073326	-13.951049
-94.414093	-13.303497
-91.755609	-11.751748
-89.100050	-11.295804
-86.443062	-4.782517
-83.791171	-2.472727
-81.137851	0.832867
-78.487451	1.279720
-75.835621	1.183916
-73.188882	-1.734965
-70.540713	0.658042
-67.893288	-0.151748
-65.248776	1.225175
-62.602835	-0.317483
-59.961977	-0.808392
-57.319688	-2.259441
-54.680309	0.681119
-52.039501	-1.965035
-49.399432	-1.686014
-46.764437	-5.167832
-44.128012	-7.154545
-41.494491	-8.711189
-38.859540	-5.816084
-36.229656	-5.580420
-33.596178	-3.502797
-30.967763	-2.603497
-28.340082	-3.800000
-25.710973	-7.574126
-23.086920	-14.750350
-20.459278	-46.297203
-17.836689	-96.320280
-15.214831	-63.394406
-12.593704	135.721678
-9.973308	429.544056
-7.355799	666.127273
-4.736862	825.818881
-2.120811	906.861538
0.494512	910.055245
3.109108	838.522378
5.720822	689.970629
8.333963	475.100000
10.942071	209.902098
13.553761	-30.200000
16.160420	-127.381818
18.768507	-78.948252
21.375870	-10.127972
23.978208	-2.562937
26.584124	-5.496503
29.185019	-5.546154
31.787341	-4.721678
34.384645	-1.810490
36.985525	-1.484615
39.581391	-1.706294
42.178684	-2.920979
44.775258	-1.394406
47.366823	-0.664336
49.959816	1.557343
52.549948	-0.743357
55.141508	-1.413287
57.730208	-4.929371
60.320336	-2.589510
62.905464	-1.937063
65.492020	-1.348951
68.077861	-4.003497
70.660849	-4.711189
73.245264	-8.741958
75.822549	-7.376923
78.403401	-4.733566
80.981404	-1.321678
83.558697	-2.061538
86.137416	-1.941958
88.711154	-0.961538
91.286318	2.321678
93.858639	3.528671
96.430253	3.161538
98.999026	0.169231
101.569226	-0.668531
104.136587	-5.176224
106.705375	-3.169930
109.271325	-2.553147
111.834441	-2.723077
114.401114	-1.671329
116.958564	-0.487413
119.521700	0.590909
122.079877	4.059441
124.641607	6.921678
127.198382	14.833566
129.756582	23.555245
132.309830	34.768531
134.862379	48.441958
137.418480	65.510490
139.969632	81.379720
142.520086	97.118182
145.069844	112.541958
147.616782	124.014685
150.163024	132.339161
152.710693	139.305594
155.257665	139.321678
157.799701	142.235664
160.341044	138.137762
162.881695	135.862937
165.423770	136.913986
167.963035	138.147552
170.499490	136.733566
173.035255	136.425874
175.572445	135.572727
178.108943	135.797203
180.642636	135.203497
183.173526	131.348252
185.703727	124.893007
188.235353	122.697902
190.764179	117.478322
193.290205	118.776923
195.815545	122.448951
198.342310	123.121678
200.866279	124.025874
203.389562	127.379720
205.912161	131.151049
208.431967	134.343357
210.951090	133.418881
213.469530	131.635664
215.989394	126.955245
218.502257	127.673427
221.018651	125.401399
223.534364	126.288811
226.045186	123.270629
228.557433	122.606294
231.066897	121.988811
233.575683	125.055944
236.083791	127.015385
238.593323	128.546853
241.097974	128.795105
243.601949	129.758042
246.107348	127.847552
248.607872	130.776923
251.111919	132.274126
253.608996	133.083217
256.109595	130.464336
258.607423	133.048951
261.104578	132.797203
263.601060	137.814685
266.092680	140.412587
268.587818	142.331469
271.080191	145.718182
273.571893	148.241259
276.060832	147.332168
278.551194	147.422378
281.038795	145.408392
283.523636	143.623776
286.011991	142.115385
288.493408	142.857343
290.978338	140.378322
293.458422	139.273427
295.942019	135.902797
298.420774	135.339161
300.900951	140.830769
303.378377	142.628671
305.855139	142.777622
308.331237	148.461538
310.804587	157.351748
313.277276	170.126573
315.749303	179.438462
318.220668	186.169231
320.689290	188.177622
323.157252	186.644056
325.626637	181.549650
328.091199	177.872727
330.559264	171.386713
333.022510	163.679720
335.485099	156.403497
337.947030	153.837762
340.408305	154.153147
342.866846	154.400699
345.326809	153.589510
347.784040	153.347552
350.240616	153.358741
352.696537	155.655245
355.149730	155.820280
357.604345	158.403497
360.054158	157.038462
362.507467	159.010490
364.955977	159.000000
367.403837	160.946853
369.853118	161.129371
372.297606	160.076923
374.743516	159.638462
377.188777	158.140559
379.631319	157.885315
382.073213	159.169930
384.514459	157.339860
386.952990	156.055245
389.392943	154.165734
391.830182	157.461538
394.264709	159.263636
396.702724	160.947552
399.135962	160.870629
401.570622	164.035664
404.000509	162.688112
406.433881	162.181119
408.862482	159.088112
411.290443	156.823077
413.719824	153.464336
416.144441	152.371329
418.570478	152.325175
420.995876	155.569231
423.420633	156.594406
425.840631	158.992308
428.262051	162.365734
430.680774	166.294406
433.100918	165.885315
435.518367	165.884615
437.937236	162.244056
440.353412	163.142657
442.764841	160.802797
445.179746	163.272028
447.591961	162.730070
450.003542	164.277622
452.414489	163.961538
454.822750	163.472028
457.230379	162.606294
459.637375	160.988112
462.043739	156.774126
464.447422	152.471329
466.850474	147.846853
469.252896	146.938462
471.654688	144.272727
474.053802	147.719580
476.454336	148.715385
478.854241	150.406294
481.249423	152.637063
483.648072	156.096503
486.042001	156.725175
488.435304	155.146154
490.827981	154.134266
493.220033	150.416084
495.613504	143.712587
498.002262	137.376923
500.388354	131.832168
502.775866	128.664336
505.162754	121.462937
507.546979	115.597203
509.932623	110.314685
512.315604	108.901399
514.695925	105.064336
517.077665	101.907692
519.456746	101.254545
521.837246	96.682517
524.215088	94.039161
526.590275	92.999301
528.964844	92.116783
531.340832	90.974825
533.714166	89.246154
536.088919	89.702098
538.458985	87.892308
540.828436	90.120979
543.199306	90.130070
545.565494	89.365734
547.933101	89.843357
550.298062	88.241958
552.662410	86.392308
555.026146	83.304895
557.391299	79.530769
559.751780	78.964336
562.113678	77.181818
564.472937	75.358042
566.829557	71.018182
569.189623	70.520979
571.542997	69.506993
573.899816	69.905594
576.254000	72.216783
578.607575	75.339860
580.960542	74.406294
583.310878	75.849650
585.662630	77.513986
588.007706	79.676923
590.358246	78.676923
592.702113	78.174825
595.051441	76.381818
597.396120	76.048951
599.738175	73.224476
602.081647	74.270629
604.422496	75.223776
606.762742	76.877622
609.100368	73.350350
611.441429	77.095804
613.777853	77.953846
616.115693	79.546853
618.450915	78.852448
620.783522	77.744056
623.117546	76.006294
625.448955	75.162238
627.779766	72.009091
630.109979	72.723077
632.439595	72.974825
634.764587	72.194406
637.095021	70.073427
639.420833	72.458741
641.744039	71.147552
644.068661	70.032168
646.390677	67.005594
648.712099	63.411888
651.030918	58.869231
653.351153	58.075524
655.670795	54.205594
657.987836	54.077622
660.304286	53.875524
662.618137	54.727273
664.933403	55.687413
667.246073	58.523077
669.560158	58.415385
671.869644	60.375524
674.180544	60.035664
676.488852	58.627972
678.796572	56.969930
681.105707	55.921678
683.410249	54.040559
685.714205	53.948252
688.017574	50.451049
690.322358	53.049650
692.622556	52.879021
694.924169	55.619580
697.225196	55.058741
699.521642	56.162937
701.819502	54.568531
704.116780	56.599301
706.413473	56.340559
708.705591	56.500000
711.001120	59.163636
713.292076	60.237063
715.584446	59.713287
717.874240	63.216084
720.163455	63.524476
722.452089	65.381119
724.738152	62.618881
727.025628	63.702797
729.310534	59.939860
731.594861	61.864336
733.876621	58.812587
736.159794	56.637762
738.442390	54.958741
740.720430	53.226573
742.999884	51.065035
745.278763	50.886713
747.557066	50.919580
749.830820	55.541958
752.105988	58.837063
754.380582	63.422378
756.652617	63.816783
758.926065	68.523776
761.196955	65.975524
763.465288	67.565734
765.735036	63.574126
768.002228	61.955245
770.268850	59.073427
772.534903	56.141259
774.798404	55.213986
777.063317	59.787413
779.327662	57.372727
781.587476	59.699301
783.848704	61.750350
786.109364	62.702797
788.367477	61.883217
790.623046	64.906993
792.882006	63.364336
795.134467	63.232168
797.392295	59.237063
799.645604	57.746154
801.896372	60.438462
804.148553	61.544056
806.398196	58.357343
808.649250	62.855245
810.895793	62.346154
813.143749	63.348252
815.389169	64.156643
817.636002	65.146853
819.882272	66.383217
822.124039	64.517483
824.369188	63.383217
826.607865	66.503497
828.849925	67.506993
831.087486	64.465035
833.326458	60.487413
835.562904	59.741958
837.800762	54.367133
840.036094	54.006294
842.268902	53.804196
844.503122	53.172028
846.734820	49.342657
848.965963	50.520979
851.196551	49.863636
853.426585	51.846154
855.656064	50.236364
857.881063	50.504196
860.109435	48.165734
862.333329	50.341259
864.558633	49.395105
866.779462	53.655944
869.003663	54.307692
871.223391	54.911189
873.444530	52.604196
875.665118	55.820280
877.883197	54.158741
880.102685	55.455944
882.317707	54.237063
884.532181	54.258042
886.746108	50.837762
888.959487	50.855245
891.172320	48.445455
893.384605	51.096503
895.594389	49.548951
897.803627	51.353846
900.012319	50.876224
902.218513	50.658042
904.426116	48.667832
906.631222	51.529371
908.835784	50.858042
911.037851	50.238462
913.241327	47.619580
915.442309	47.068531
917.642749	45.397203
919.844598	50.051049
922.040056	50.530070
924.238872	52.118881
926.433251	52.738462
928.630987	52.649650
930.824287	53.374825
933.018995	55.730769
935.211218	58.248951
937.402903	58.404895
939.594050	55.044755
941.782714	55.718182
943.970841	56.113287
946.156488	58.576224
948.345487	60.204895
950.530063	61.860839
952.714104	62.319580
954.901495	60.502797
957.080583	60.304895
959.263020	60.890210
961.444924	62.767133
963.624354	62.220979
965.801311	62.488811
967.979676	68.158042
970.159447	71.945455
972.332870	71.030070
974.509639	74.775524
976.682002	78.899301
978.855771	78.720280
981.025138	78.448951
983.197848	78.228671
985.368092	74.423776
987.537808	70.325175
989.706995	66.711888
991.871785	63.330769
994.039917	66.097203
996.203653	64.162238
998.368797	63.276923
1000.531481	65.260839
1002.693640	68.487413
1004.853341	74.020280
1007.012519	79.147552
1009.173103	79.545455
1011.331232	79.610490
1013.488837	81.579021
1015.645919	79.379021
1017.802478	80.749650
1019.954657	84.886014
1022.108243	84.761538
1024.261306	89.059441
1026.411922	90.006294
1028.563943	92.314685
1030.711591	93.837063
1032.862571	93.368531
1035.009181	90.460839
1037.155271	90.061538
1039.300843	90.028671
1041.447819	87.972727
1043.588508	86.878322
1045.732525	87.941259
1047.874103	87.020979
1050.015163	93.419580
1052.157628	97.316783
1054.293814	101.920979
1056.433326	97.021678
1058.568482	99.911189
1060.706963	99.346154
1062.841091	100.725175
1064.974705	103.853846
1067.109723	102.630769
1069.240392	99.458042
1071.372467	96.092308
1073.502111	91.721678
1075.631244	91.370629
1077.759866	91.283916
1079.887976	92.109790
1082.013660	86.939161
1084.138834	92.682517
1086.265411	91.156643
1088.387652	94.106993
1090.511297	95.457343
1092.630607	92.998601
1094.755146	87.767133
1096.873441	83.234266
1098.993139	79.248252
1101.110419	78.763636
1103.227193	80.368531
1105.343460	77.986713
1107.457312	72.471329
1109.572567	75.477622
1111.683500	72.232168
1113.797744	77.079720
1115.907669	75.899301
1118.018996	73.650350
1120.129820	70.225175
1122.236327	68.495105
1124.346143	68.433566
1126.451645	70.851748
1128.558551	69.838462
1130.659240	63.252448
1132.765142	65.547552
1134.866735	69.905594
1136.969731	69.344056
1139.072226	71.452448
1141.168515	70.124476
1143.270010	69.184615
1145.367203	69.397902
1147.463897	70.566434
1149.560094	68.499301
1151.655792	68.529371
1153.750993	66.539860
1155.843797	64.395105
1157.938003	69.010490
1160.026018	67.115385
1162.119231	65.920979
1164.206256	67.403497
1166.296581	68.572028
1168.382617	69.376923
1170.471951	70.640559
1172.555104	71.930769
1174.639660	68.425874
1176.725616	67.948252
1178.807291	64.237063
1180.890368	60.023077
1182.971059	58.451049
1185.051259	58.298601
1187.130967	58.265035
1189.210183	59.244056
1191.287018	56.671329
1193.361472	56.046853
1195.439218	55.507692
1197.512693	56.713986
1199.587570	54.937063
1201.658179	56.211189
1203.730189	54.394406
1205.799823	54.286713
1207.870858	53.262937
1209.941405	56.811888
1212.007691	58.574126
1214.075378	55.235664
1216.140693	53.018881
1218.207408	54.048951
1220.269867	54.883916
1222.335612	56.625874
1224.397102	54.829371
1226.459992	58.238462
1228.520515	54.451049
1230.580555	57.712587
1232.640111	56.432168
1234.697303	61.072028
1236.754012	63.442657
1238.808359	62.004895
1240.865986	61.100000
1242.921251	61.365035
1244.972275	59.472028
1247.024699	62.165734
1249.076644	57.526573
1251.126230	56.955944
1253.175337	54.683916
1255.223965	59.081119
1257.272115	57.740559
1259.319787	58.774825
1261.363228	58.832168
1263.409944	57.767832
1265.454308	53.273427
1267.498194	54.294406
1269.539730	54.882517
1271.578916	54.632168
1273.621374	49.834965
1275.659611	52.523077
1277.699245	54.925175
1279.738405	58.618881
1281.773347	57.135664
1283.809687	60.924476
1285.843682	65.218182
1287.879076	67.502098
1289.910256	70.497902
1291.942835	74.344755
1293.974941	76.300000
1296.004707	73.376923
1298.035871	71.293007
1300.062827	69.805594
1302.091181	65.969231
1304.115331	67.179720
1306.142746	65.257343
1308.165958	71.304895
1310.190568	75.348951
1312.212843	79.288112
1314.236516	85.952448
1316.257856	89.516084
1318.278729	95.386713
1320.299134	96.290210
1322.315345	97.697203
1324.332955	96.674126
1326.348236	96.696503
1328.366776	98.393007
1330.381126	97.946154
1332.393151	100.536364
1334.408434	101.367832
1336.419531	103.756643
1338.432024	105.902797
1340.440335	106.836364
1342.451902	107.611189
1344.457430	104.623776
1346.466212	105.021678
1348.470818	102.202098
1350.478677	100.088112
1352.486073	93.372727
1354.487439	90.125874
1356.490202	89.823077
1358.492505	86.393007
1360.494347	86.353846
1362.495731	85.646853
1364.494800	84.738462
1366.493411	82.139161
1368.491564	80.707692
1370.489259	80.437063
1372.482790	77.612587
1374.477718	71.990909
1376.472189	68.405594
1378.466203	68.562238
1380.457910	68.566434
1382.449161	64.433566
1384.438107	65.543357
1386.428448	63.525874
1388.418334	62.067133
1390.405917	59.915385
1392.393046	61.643357
1394.377873	56.805594
1396.364095	54.927972
1398.348016	53.220280
1400.331485	56.260140
1402.314502	54.280420
1404.295221	53.169930
1406.277334	53.205594
1408.257150	56.753147
1410.236516	58.216084
1412.211743	56.675524
1414.190208	58.004895
1416.166380	59.632168
1418.142102	56.451049
1420.117375	59.888112
1422.090357	61.006993
1424.062892	59.413986
1426.034978	56.553846
1428.006616	55.611189
1429.974127	54.895105
1431.946711	57.164336
1433.911489	53.836364
1435.881340	51.527972
1437.847066	53.025175
1439.814186	53.965734
1441.779022	54.074825
1443.739738	57.781119
1445.705522	56.095105
1447.665351	54.579720
1449.626573	53.423776
1451.589188	49.520979
1453.547688	46.058741
1455.505746	48.113986
1457.463361	45.212587
1459.420535	48.974825
1461.375433	48.888811
1463.331723	50.770629
1465.285739	52.909091
1467.239315	53.976224
1469.190618	51.033566
1471.143313	53.306993
1473.093737	52.246154
1475.043722	52.352448
1476.993267	50.951049
1478.940544	52.299301
1480.885554	50.698601
1482.831956	52.166434
1484.777920	47.555245
1486.723446	49.541259
1488.666708	48.811888
1490.609533	47.905594
1492.550095	46.915385
1494.492048	49.668531
1496.431740	50.613287
1498.370996	53.067133
1500.309818	50.140559
1502.246380	50.669231
1504.184332	51.297902
1506.120027	54.709790
1508.055288	56.275524
1509.988292	59.960839
1511.920864	59.120280
1513.853004	63.524476
1515.784712	61.204196
1517.714167	61.976923
1519.645011	60.176923
1521.575425	58.996503
1523.501766	57.067832
1525.429497	58.097203
1527.354978	59.558042
1529.280030	63.981818
1531.204653	65.402098
1533.128847	65.411189
1535.050794	64.076224
1536.974130	66.967832
1538.895221	66.279720
1540.814067	67.972028
1542.734303	66.744755
1544.652295	67.357343
1546.569861	71.120280
1548.485185	76.607692
1550.401899	81.204895
1552.314558	83.336364
1554.230421	84.609091
1556.144045	86.653846
1558.055430	84.847552
1559.968204	90.867133
1561.876929	93.169930
1563.787044	95.069930
1565.696735	95.191608
1567.606002	95.546154
1569.513036	98.512587
1571.417837	101.169231
1573.324027	100.332867
1575.227985	97.052448
1577.131523	96.369930
1579.034639	94.469930
1580.935527	91.198601
1582.837803	93.632168
1584.737850	91.044056
1586.639286	87.667133
1588.536687	85.260140
1590.433671	81.603497
1592.330236	80.730070
1594.228188	79.205594
1596.120306	77.840559
1598.015618	79.311189
1599.910511	78.515385
1601.803183	78.296503
1603.695439	74.903497
1605.585475	74.502797
1607.475095	70.576224
1609.364300	65.555944
1611.253089	63.704196
1613.139662	65.049650
1615.027621	66.221678
1616.911565	67.525175
1618.796895	71.449650
1620.681812	75.154545
1622.564515	73.929371
1624.448604	75.934266
1626.328683	72.210490
1628.210148	69.420280
1630.089403	63.703497
1631.970044	60.230070
1633.844881	58.346853
1635.724700	61.350350
1637.600513	58.120979
1639.475917	60.170629
1641.352706	59.572727
1643.223698	59.073427
1645.097872	61.027273
1646.968048	61.066434
1648.841404	57.292308
1650.712557	57.040559
1652.581508	56.089510
1654.451845	55.478322
1656.318188	52.509091
1658.185918	48.848252
1660.051448	47.952448
1661.918363	51.290210
1663.781290	47.636364
1665.645602	48.889510
1667.507719	51.597203
1669.369430	47.691608
1671.232526	46.359441
1673.093428	51.901399
1674.952136	51.723776
1676.810441	47.426573
1678.670131	43.650350
1680.524054	42.595105
1682.381149	44.253147
1684.237842	43.992308
1686.090559	41.406294
1687.946447	42.781119
1689.798361	45.541958
1691.649873	48.871329
1693.500986	51.821678
1695.351697	60.479021
1697.202008	57.111888
1699.050135	55.216783
1700.899645	54.041958
1702.743407	54.818182
1704.592119	52.456643
1706.435084	50.737762
1708.281215	46.859441
1710.123385	43.886713
1711.968719	45.359441
1713.808313	46.713287
1715.649291	45.430769
1717.491652	48.095804
1719.330057	44.039860
1721.169845	42.616084
1723.007458	39.504895
1724.844675	41.085315
1726.679719	43.439161
1728.516146	46.760839
1730.350401	42.931469
1732.184262	48.223776
1734.017728	50.474126
1735.847248	51.651049
1737.679927	50.472727
1739.508662	44.064336
1741.340555	35.948951
1743.168505	30.790909
1744.996063	26.323776
1746.823230	27.033566
1748.650004	29.802098
1750.476388	37.886713
1752.298835	36.859441
1754.124436	46.100699
1755.946103	52.062937
1757.769152	58.118881
1759.590040	61.025874
1761.410538	58.875524
1763.232418	57.045455
1765.048598	53.124476
1766.867930	46.848252
1768.683335	48.862238
1770.501891	45.006993
1772.316521	43.375524
1774.130764	33.960839
1775.944621	34.597203
1777.758091	37.032168
1779.569407	37.470629
1781.382105	42.327273
1783.194416	41.815385
1785.002810	42.502797
1786.812585	38.219580
1788.618444	39.492308
1790.427450	42.967832
1792.232542	41.592308
1794.039014	42.620979
1795.845103	43.681119
1797.647282	43.019580
1799.452604	42.788112
1801.254018	41.841259
1803.056812	44.634266
1804.855701	44.514685
1806.655969	45.460839
1808.455857	40.599301
1810.253602	39.633566
1812.050967	39.474825
1813.847951	42.452448
1815.644555	44.925175
1817.439020	44.900000
1819.234865	41.114685
1821.025054	45.306294
1822.820140	43.332168
1824.609573	45.418182
1826.402144	42.933566
1828.192579	39.184615
1829.980879	37.753846
1831.772315	38.091608
1833.558105	41.323776
1835.345275	46.699301
1837.130313	45.955245
1838.918485	45.456643
1840.702771	46.766434
1842.484928	49.705594
1844.268463	48.458741
1846.049871	52.025175
1847.832656	51.572727
1849.611562	50.345455
1851.391846	54.357343
1853.170005	53.482517
1854.949541	53.363636
1856.726953	53.155245
1858.502241	50.532867
1860.278908	47.568531
1862.053452	46.922378
1863.829373	45.297902
1865.599675	45.015385
1867.373104	45.230070
1869.144413	49.516783
1870.915351	50.213986
1872.687666	53.030769
1874.454369	51.405594
1876.224196	50.169231
1877.990160	48.384615
1879.759248	49.625874
1881.524474	46.414685
1883.289332	45.962238
1885.055566	43.833566
1886.817942	40.765734
1888.579951	39.927273
1890.341593	46.053147
1892.102867	45.891608
1893.863775	48.178322
1895.624315	47.869231
1897.382746	48.593706
1899.140812	48.983916
1900.896770	53.738462
1902.654104	55.097902
1904.411072	54.275524
1906.165935	51.809790
1907.918692	50.437762
1909.671086	49.117483
1911.424856	46.511888
1913.176522	44.862238
1914.926085	45.039860
1916.677025	43.374825
1918.427601	45.783217
1920.174339	48.058042
1921.922452	50.610490
1923.668466	51.466434
1925.415856	55.066434
1927.161147	53.222378
1928.904341	52.160140
1930.648911	48.632168
1932.391384	44.541259
1934.133497	44.705594
1935.875251	43.851399
1937.616644	43.981818
1939.355944	46.687063
1941.094885	44.830070
1942.833467	46.852098
1944.569957	46.681119
1946.306090	52.568881
1948.043597	49.993007
1949.777283	50.473776
1951.512343	50.178322
1953.245314	50.126224
1954.977929	51.391608
1956.710187	53.345804
1958.442089	55.310490
1960.171905	55.654545
1961.899637	51.066434
1963.628742	53.301399
1965.357493	50.585315
1967.084160	54.765734
1968.810473	51.004895
1970.538159	51.891608
1972.260309	49.728671
1973.985561	46.654545
1975.707005	46.860140
1977.431549	46.826573
1979.154014	45.039161
1980.872675	45.757343
1982.594435	45.615385
1984.312393	46.565734
1986.031725	45.987413
1987.747256	50.109091
1989.467609	49.255944
1991.184162	51.158741
1992.896920	50.746154
1994.612773	52.325874
1996.326554	49.425175
1998.039984	50.632867
1999.751344	50.809091
2001.464077	50.415385
2003.173018	46.802098
2004.885053	42.148951
2006.591578	44.055944
2008.301196	46.936364
2010.008746	47.255245
2011.715949	48.516084
2013.421086	52.195105
2015.125876	54.053846
2016.832038	48.746853
2018.534418	52.707692
2020.238170	51.239161
2021.939859	47.041958
2023.641202	43.459441
2025.342200	40.881818
2027.041138	40.727972
2028.741447	39.482517
2030.437980	38.376923
2032.135885	41.828671
2033.831732	40.327972
2035.530664	41.611888
2037.224110	39.411888
2038.918927	44.807692
2040.613401	45.388811
2042.304107	46.565734
2043.997897	47.088112
2045.687920	50.765734
2047.379314	49.275524
2049.068655	50.272028
2050.759366	48.904895
2052.446315	51.816084
2054.132923	49.997203
2055.820902	51.812587
2057.505121	48.372727
2059.190710	52.144755
2060.875960	47.936364
2062.559162	48.709091
2064.243734	48.386713
2065.922842	51.057343
2067.606736	50.780420
2069.285170	50.730769
2070.966681	50.908392
2072.644440	54.344755
2074.321863	55.644755
2076.000655	54.761538
2077.677404	53.353147
2079.352112	53.361538
2081.028189	49.155944
2082.702226	49.030769
2084.375927	47.537762
2086.049293	50.099301
2087.720621	51.108392
2089.391614	49.246154
2091.062273	49.561538
2092.732598	46.277622
2094.402588	44.993007
2096.070543	43.296503
2097.738165	45.474825
2099.403753	47.107692
2101.070709	47.970629
2102.735632	51.134266
2104.400222	54.395804
2106.062781	56.581119
2107.726709	57.944755
2109.388605	55.518881
2111.050170	53.683217
2112.711405	51.210490
2114.370610	52.423776
2116.029486	51.773427
2117.688031	52.569231
2119.346247	52.089510
2121.000739	52.798601
2122.658297	53.806993
2124.315524	52.383916
2125.969031	50.910490
2127.623905	52.174126
2129.275060	49.211888
2130.929278	48.756643
2132.579778	49.692308
2134.231646	49.993007
2135.878105	50.181119
2137.529318	48.481119
2139.176818	51.422378
2140.825686	51.383217
2142.472534	49.313287
2144.119056	46.813287
2145.765254	46.108392
2147.407742	43.783217
2149.053289	44.364336
2150.695129	42.285315
2152.340026	41.984615
2153.981218	41.911189
2155.622086	44.304196
2157.262631	44.590210
2158.901163	47.976923
2160.541061	45.399301
2162.177259	45.610490
2163.814823	42.126573
2165.452065	42.831469
2167.087297	44.264336
2168.722207	49.490909
2170.356796	46.985315
2171.991064	47.613986
2173.621638	47.250350
2175.255263	48.865035
2176.885197	49.948951
2178.516496	50.382517
2180.145791	46.274825
2181.774765	44.191608
2183.403421	40.707692
2185.031757	42.249650
2186.658090	43.767133
2188.284105	45.120979
2189.908119	46.025175
2191.533498	47.427972
2193.156876	48.716084
2194.781619	49.929371
2196.402680	52.121678
2198.023426	52.324476
2199.645535	49.667133
2201.265647	49.091608
2202.883763	45.867832
2204.501563	42.874126
2206.119047	38.865734
2207.736216	39.053846
2209.353070	40.601399
2210.969609	42.807692
2212.584154	43.677622
2214.196707	47.092308
2215.810625	50.483916
2217.422550	53.160839
2219.035840	54.686014
2220.647138	55.968531
2222.256448	50.232867
2223.867120	49.816783
2225.475804	45.227273
2227.084176	43.749650
2228.690560	43.113986
2230.298308	44.654545
2231.904069	42.241958
2233.509519	46.270629
2235.112985	44.739161
2236.717813	44.275524
2238.320657	43.309790
2239.921518	45.248252
2241.523742	42.204895
2243.123983	44.003497
2244.725588	42.338462
2246.323539	41.076923
2247.922853	41.608392
2249.520187	44.341958
2251.117213	43.913986
2252.715600	48.440559
2254.310339	49.218881
2255.903102	50.191608
2257.497226	47.852448
2259.092712	46.128671
2260.684554	42.432168
2262.276089	44.372028
2263.868985	45.460839
2265.456572	44.279720
2267.048856	45.206993
2268.635832	45.589510
2270.225837	44.079021
2271.810537	45.312587
2273.399931	46.632168
2274.984022	48.175524
2276.569475	47.337762
2278.152959	49.782517
2279.739468	54.032867
2281.322344	60.903497
2282.904916	64.341958
2284.487186	66.478322
2286.065825	63.837063
2287.647488	60.389510
2289.225524	55.834965
2290.806582	52.928671
2292.384013	48.490210
2293.959481	47.948252
2295.537971	46.141259
2297.112836	48.300699
2298.687401	46.877622
2300.261666	50.223077
2301.835630	52.303497
2303.409294	49.990909
2304.982657	47.624476
2306.552402	47.594406
2308.121848	46.642657
2309.694313	46.086014
2311.261503	43.394406
2312.831710	41.205594
2314.398303	37.762238
2315.966256	37.594406
2317.532254	35.800000
2319.097954	41.289510
2320.663356	42.726573
2322.226805	46.225874
2323.791613	52.623776
2325.352812	57.419580
2326.917026	55.627972
2328.475979	57.807692
2330.037945	55.332867
2331.597961	51.616783
2333.157681	47.490210
2334.715452	44.455944
2336.272929	41.945455
2337.830110	43.293007
2339.385345	43.205594
2340.940285	51.204895
2342.494932	52.006993
2344.049285	51.940559
2345.603344	48.166434
2347.157110	52.018182
2348.708931	49.831469
2350.258809	54.765734
2351.811695	52.600000
2353.359339	53.006294
2354.909990	51.755944
2356.457051	52.116084
2358.005469	54.022378
2359.553595	55.184615
2361.098134	48.830070
2362.644030	43.285315
2364.187987	40.197203
2365.733302	40.279021
2367.275032	38.813986
2368.818120	44.059441
2370.359271	42.288112
2371.900133	44.883217
2373.440706	45.216783
2374.980990	46.307692
2376.520985	47.326573
2378.057401	45.963636
2379.596819	45.693007
2381.132660	46.227273
2382.669857	46.573427
2384.203480	44.688112
2385.740102	39.118881
2387.274793	42.645455
2388.807555	39.483916
2390.340031	40.407692
2391.870578	38.256643
2393.404123	37.408392
2394.932457	41.575524
2396.462147	46.589510
2397.991552	50.601399
2399.520672	52.754545
2401.049506	53.020979
2402.573136	52.914685
2404.101401	51.451049
2405.624463	54.365035
2407.152160	53.623077
2408.673016	56.038462
2410.198506	52.100699
2411.720436	53.733566
2413.243720	50.695804
2414.765084	44.676224
2416.284528	40.288112
2417.805327	40.316084
2419.324207	43.768531
2420.842805	47.453147
2422.359486	48.862937
2423.877522	50.118881
2425.395276	53.218182
2426.909478	57.123776
2428.423400	55.608392
2429.937043	57.196503
2431.452039	49.798601
2432.963487	47.648252
2434.476290	48.603497
2435.987180	53.230070
2437.497790	54.615385
2439.006489	58.287413
2440.518175	58.112587
2442.026317	56.069231
2443.534180	50.293706
2445.041766	50.423077
2446.545812	44.332867
2448.052842	43.846154
2449.557964	41.588112
2451.062809	38.170629
2452.565747	39.262937
2454.068408	41.090210
2455.570793	40.857343
2457.071273	47.942657
2458.573106	51.584615
2460.073035	54.955245
2461.572688	54.823776
2463.072066	56.538462
2464.569541	53.737762
2466.065114	55.813986
2467.563667	51.509091
2469.058691	46.173427
2470.555069	44.913986
2472.047920	41.172727
2473.542123	41.486713
2475.036053	43.370629
2476.526460	43.767133
2478.019844	47.195105
2479.511329	45.620280
2481.000918	44.081818
2482.490236	43.558042
2483.977657	46.884615
2485.468054	44.655944
2486.954932	43.919580
2488.443162	49.163636
2489.927876	53.747552
2491.412319	56.817483
2492.898114	54.501399
2494.382016	51.925874
2495.867270	51.495804
2497.347390	48.418881
2498.830482	47.873427
2500.311684	44.910490
2501.792617	47.872727
2503.271661	47.564336
2504.750437	49.145455
2506.228944	53.148252
2507.707182	54.068531
2509.185152	55.447552
2510.659618	54.071329
2512.137052	52.448252
2513.610983	50.295804
2515.086265	48.996503
2516.561279	46.120979
2518.032792	43.118182
2519.505656	46.186014
2520.976637	46.304196
2522.448967	45.220979
2523.916185	44.244755
2525.386369	45.600000
2526.854671	49.472028
2528.322709	51.125175
2529.790482	46.716084
2531.257990	42.169231
2532.725233	39.031469
2534.188985	36.702098
2535.654086	35.612587
2537.117310	36.859441
2538.581883	37.153846
2540.042967	38.904895
2541.505402	43.019580
2542.967573	48.165734
2544.426257	52.513986
2545.889514	54.227972
2547.347674	51.458042
2548.807183	50.313986
2550.261599	44.552448
2551.720585	44.882517
2553.177698	41.885315
2554.632941	40.525874
2556.087923	39.089510
2557.541035	40.476923
2558.995496	40.737762
2560.448088	45.365035
2561.900420	43.556643
2563.350884	45.090909
2564.804304	46.416783
2566.252642	46.930769
2567.703936	46.153846
2569.153363	52.139161
2570.599319	51.131469
2572.048229	52.393706
2573.493668	48.508392
2574.940456	45.198601
2576.385380	41.807692
2577.830047	36.939161
2579.276061	31.109091
2580.718608	30.955944
2582.162503	30.095105
2583.602933	36.341259
2585.044711	39.863636
2586.484629	47.953147
2587.925894	50.351049
2589.363697	52.761538
2590.804450	52.283217
2592.240140	53.284615
2593.678780	55.179021
2595.115563	53.855944
2596.550489	55.360839
2597.988364	55.486713
2599.421181	53.689510
2600.855345	57.146853
2602.287654	54.192308
2603.721310	54.627972
2605.153113	50.032168
2606.584663	50.323776
2608.015959	50.874126
2609.445404	49.539161
2610.874596	48.826573
2612.301937	49.716783
2613.730625	50.389510
2615.159060	53.691608
2616.584049	53.651748
2618.010383	56.685315
2619.434869	55.598601
2620.860701	55.246853
2622.283089	56.461538
2623.706823	58.569231
2625.128711	62.081818
2626.550348	61.346853
2627.970140	60.150350
2629.391278	62.886014
2630.812166	64.648951
2632.229616	67.853846
2633.650005	66.486014
2635.066957	68.127972
2636.483661	62.644755
2637.900116	60.746154
2639.316323	57.525874
2640.732281	54.672727
2642.146399	56.041259
2643.560270	56.050350
2644.972301	56.271329
2646.385677	59.262937
2647.795623	59.119580
2649.208505	62.535664
2650.617958	61.961538
2652.027165	64.909091
2653.434536	60.151049
2654.844841	58.856643
2656.253310	53.485315
2657.659944	54.961538
2659.066333	57.302797
2660.470888	62.007692
2661.876787	59.453147
2663.280853	59.413287
2664.684675	58.342657
2666.088252	59.702098
2667.489997	58.266434
2668.893086	62.985315
2670.292758	59.432867
2671.693773	64.508392
2673.091371	64.805594
2674.491900	66.950350
2675.889014	65.181818
2677.287471	67.239161
2678.684100	62.432867
2680.080488	63.329371
2681.476633	58.631469
2682.870952	58.672727
2684.266614	56.613986
2685.658866	57.701399
2687.052462	56.987413
2688.444233	64.804196
2689.837346	64.227972
2691.228636	63.388811
2692.618103	62.007692
2694.007331	65.769930
2695.396318	65.769930
2696.786648	64.911189
2698.171993	58.944056
2699.560263	63.464336
2700.946712	58.179720
2702.332922	57.715385
2703.718893	60.656643
2705.101466	61.813287
2706.485380	58.853846
2707.869057	56.688811
2709.252496	52.674126
2710.632539	51.671329
2712.013924	48.880420
2713.393493	49.265734
2714.774404	48.540559
2716.153500	54.965734
2717.530781	51.095105
2718.909404	54.895804
2720.286214	57.948951
2721.662788	55.832867
2723.039126	56.567133
2724.413652	58.068531
2725.789519	53.330769
2727.161999	55.157343
2728.537396	53.007692
2729.907831	54.104895
2731.279608	53.636364
2732.651151	56.299301
2734.020885	54.806294
2735.391959	53.693007
2736.761226	53.559441
2738.130259	57.023077
2739.497485	55.495804
2740.864479	56.377622
2742.231240	56.159441
2743.597768	56.336364
2744.962492	51.083217
2746.326983	50.088811
2747.691242	46.539860
2749.055270	44.336364
2750.419065	40.942657
2751.779487	43.022378
2753.142820	42.970629
2754.501210	45.337063
2755.862510	41.566434
2757.220439	48.825874
2758.581278	49.362937
2759.940316	48.027972
2761.295986	46.884615
2762.654565	48.289510
2764.009776	40.119580
2765.364758	40.790210
2766.717943	41.874126
2768.074035	43.769930
2769.426763	40.923077
2770.779262	43.906993
2772.131533	41.283217
2773.485143	45.825874
2774.835391	45.365734
2776.183846	48.910490
2777.535205	49.607692
2778.883205	51.453846
2780.232544	49.946154
2781.580090	51.396503
2782.927409	51.297203
2784.274502	47.824476
2785.619804	51.358042
2786.964880	52.422378
2788.309730	49.381119
2789.654354	53.609091
2790.995625	55.829371
2792.338235	56.890909
2793.680620	56.294406
2795.022779	58.402797
2796.361589	54.541259
2797.703299	51.137762
2799.041660	49.469930
2800.381359	46.377622
2801.719272	45.468531
2803.055401	45.495105
2804.391307	45.937063
2805.728549	50.334266
2807.064008	53.983217
2808.399244	54.667832
2809.732698	56.610490
2811.067488	59.065035
2812.398937	55.363636
2813.733282	56.862238
2815.062729	56.674825
2816.393513	53.202797
2817.724075	52.135664
2819.052858	51.921678
2820.382978	48.188811
2821.711318	49.630769
2823.039438	49.043357
2824.365781	46.169930
2825.693459	44.655944
2827.017805	49.266434
2828.343486	47.601399
2829.667393	49.923776
2830.991079	49.916783
2832.316101	49.009091
2833.637794	48.485315
2834.959267	46.775524
2836.280522	43.927273
2837.601558	42.555245
2838.920822	38.417483
2840.241421	38.352448
2841.560248	41.852448
2842.878857	47.561538
2844.195696	43.793007
2845.512317	49.102797
2846.828720	50.955944
2848.143355	50.962238
2849.459324	52.613986
2850.771973	54.130769
2852.085958	51.127273
2853.399726	47.260140
2854.713277	42.746853
2856.025061	42.692308
2857.335080	41.961538
2858.646433	37.205594
2859.954470	32.773427
2861.263843	36.490909
2862.573000	36.432867
2863.881942	40.120979
2865.189121	45.646853
2866.494536	46.255245
2867.801286	48.152448
2869.106273	49.042657
2870.411047	47.663636
2871.714059	52.150350
2873.019953	50.172028
2874.320992	48.832867
2875.623364	50.419580
2876.923977	58.077622
2878.225924	58.739161
2879.527658	62.505594
2880.826088	61.008392
2882.125851	61.414685
2883.423857	60.267832
2884.721651	54.225874
2886.017688	49.551748
2887.315059	49.705594
2888.610674	40.241958
2889.906079	41.123077
2891.201272	41.679021
2892.493167	47.346853
2893.787939	45.648252
2895.079415	46.120979
2896.372223	45.333566
2897.664821	48.939161
2898.954124	47.209790
2900.244760	41.064336
2901.533646	40.334965
2902.823863	40.300000
2904.110789	37.337762
2905.399047	43.549650
2906.685556	46.311888
2907.971856	51.809790
2909.257948	53.867832
2910.542292	56.302797
2911.829508	55.651748
2913.111897	59.714685
2914.395618	55.020979
2915.677592	50.632867
2916.959360	48.141958
2918.239382	44.732867
2919.522274	42.774825
2920.803421	43.039860
2922.081286	41.893007
2923.362020	45.410490
2924.639473	44.390909
2925.916721	49.223077
2927.192226	48.189510
2928.470599	50.085315
2929.744157	49.030769
2931.020583	48.281119
2932.295268	47.032867
2933.568213	47.772028
2934.842488	47.452448
2936.115024	47.864336
2937.387356	48.494406
2938.656415	52.478322
2939.928339	52.300699
2941.198525	56.334266
2942.468507	52.718182
2943.738286	52.451748
2945.006328	53.255245
2946.272635	47.571329
2947.538739	47.845455
2948.806174	48.379720
2950.071873	47.581119
2951.337370	47.718881
2952.602665	48.135664
2953.864696	49.625874
2955.128056	48.184615
2956.391215	49.651748
2957.652641	47.947552
2958.915397	50.158042
2960.176422	47.441259
2961.435716	46.519580
2962.694809	47.568531
2963.953702	46.037762
2965.212395	46.195105
2966.470888	44.836364
2967.727652	42.268531
2968.984217	38.832168
2970.239053	37.100000
2971.495219	41.273427
2972.748129	36.076224
2974.002369	39.046853
2975.256410	34.270629
2976.508725	38.213287
2977.760842	42.593007
2979.011234	43.051748
2980.264481	45.954545
2981.512951	47.760140
2982.764275	46.083916
2984.012351	47.537762
2985.260229	45.376224
2986.507910	48.652448
2987.755395	41.930769
2989.001158	42.129371
2990.246724	36.413287
2991.493619	40.598601
2992.737268	42.493706
2993.982246	41.798601
2995.223981	42.686713
2996.468567	44.913287
2997.711434	43.734965
2998.951059	44.241958
3000.193536	43.048252
3001.432772	48.427273
3002.673336	44.107692
3003.912183	44.711189
3005.150836	43.592308
3006.387773	44.779021
3007.626037	41.837762
3008.862587	41.504895
3010.098943	37.780420
3011.335105	36.424476
3012.569553	36.115385
3013.803808	38.800000
3015.037870	42.380420
3016.270220	43.534266
3017.500858	43.230769
3018.734342	46.369231
3019.966115	43.316783
3021.196176	41.478322
3022.426046	34.931469
3023.654206	33.656643
3024.883693	28.743357
3026.111470	29.125175
3027.339056	29.732168
3028.567968	34.862238
3029.792138	37.398601
3031.019151	37.879021
3032.242941	39.857343
3033.468056	39.761538
3034.691465	38.662238
3035.914685	39.909091
3037.136199	37.226573
3038.360554	41.072727
3039.580174	40.105594
3040.801120	38.343357
3042.021876	34.305594
3043.240929	34.068531
3044.461308	34.086713
3045.678470	36.642657
3046.896957	33.427273
3048.113743	33.334965
3049.330340	35.307692
3050.546750	37.590909
3051.759946	42.818881
3052.975980	44.223776
3054.188802	42.342657
3055.404461	40.347552
3056.615397	36.631469
3057.827659	36.666434
3059.039733	38.997902
3060.251621	37.986014
3061.461811	29.770629
3062.671816	29.012587
3063.881634	28.500000
3065.089756	31.978322
3066.297692	34.390909
3067.503934	32.846853
3068.711500	34.937762
3069.917371	36.495804
3071.123057	34.030070
3072.328559	36.510490
3073.532367	35.621678
3074.737499	33.185315
3075.940938	32.828671
3077.142685	34.686713
3078.344249	34.538462
3079.545629	37.593706
3080.746825	38.515385
3081.946331	40.870629
3083.145653	42.964336
3084.346299	41.205594
3085.545256	37.400000
3086.741017	37.026573
3087.939608	33.897203
3089.135005	33.564336
3090.331726	30.576923
3091.525254	31.929371
3092.721610	29.744056
3093.916279	30.524476
3095.107758	26.948951
3096.303568	26.650350
3097.494685	25.729371
3098.687125	26.606294
3099.876376	28.674825
3101.068454	31.752448
3102.258848	35.262937
3103.446055	37.666434
3104.634586	36.366434
3105.824439	41.231469
3107.011107	39.759441
3108.197596	41.349650
3109.383905	35.545455
3110.571537	32.462937
3111.755986	26.463636
3112.938755	27.177622
3114.124348	24.273427
3115.308260	24.124476
3116.490494	25.564336
3117.672550	26.360140
3118.854427	25.553147
3120.036126	28.886713
3121.216148	27.935664
3122.394492	30.786713
3123.575658	28.449650
3124.753648	28.858042
3125.931461	31.073427
3127.109097	35.159441
3128.285058	35.312587
3129.460843	36.252448
3130.637948	37.248951
3131.813380	38.910490
3132.987138	37.304196
3134.159223	36.670629
3135.332629	31.294406
3136.505860	31.272028
3137.677418	32.104196
3138.850298	34.479021
3140.020010	36.425874
3141.191043	38.292308
3142.360405	41.755944
3143.528098	39.925175
3144.698606	40.934965
3145.864455	40.938462
3147.034614	38.148951
3148.200115	38.508392
3149.365443	36.927972
3150.530597	36.300699
3151.695578	36.618182
3152.861878	38.352448
3154.023525	38.120280
3155.186493	39.220280
3156.349287	39.660140
3157.511909	39.998601
3158.672866	37.864336
3159.833650	37.334266
3160.994263	35.255245
3162.153211	37.397902
3163.311987	32.822378
3164.470592	29.045455
3165.629025	26.493706
3166.787286	27.535664
3167.943885	25.489510
3169.098823	25.297203
3170.255080	25.414685
3171.409677	30.496503
3172.564102	32.128671
3173.716868	40.204895
3174.869464	41.525175
3176.021890	44.165035
3177.174145	41.093007
3178.326231	39.584615
3179.475170	37.532867
3180.626916	37.264336
3181.777005	33.542657
3182.925436	30.792308
3184.073699	26.891608
3185.221793	26.872028
3186.369717	26.297203
3187.515987	28.704895
3188.662088	25.587413
3189.806535	26.807692
3190.950813	28.778322
3192.094924	33.548951
3193.240353	35.879021
3194.382643	39.503497
3195.524765	41.118182
3196.666721	44.006294
3197.808509	42.327972
3198.950130	43.734965
3200.088615	45.190909
3201.228419	46.955944
3202.369539	44.071329
3203.507525	42.262937
3204.643862	38.591608
3205.780033	39.567832
3206.917522	34.584615
3208.053362	33.844755
3209.190518	32.989510
3210.323063	32.555245
3211.459888	29.660140
3212.592102	30.843357
3213.725634	35.237063
3214.859000	35.596503
3215.989239	35.037063
3217.122277	33.551049
3218.252187	30.888112
3219.383415	30.401399
3220.511517	29.474126
3221.642417	29.014685
3222.771672	30.674825
3223.899283	29.104196
3225.023773	26.100699
3226.152538	25.203497
3227.278181	27.002098
3228.403661	24.646154
3229.527500	23.058042
3230.654134	22.157343
3231.776169	20.296503
3232.899521	21.242657
3234.022711	28.120979
3235.145739	31.632867
3236.267127	35.876923
3237.388354	36.146853
3238.507942	33.474825
3239.627369	33.928671
3240.745159	33.207692
3241.865740	32.587413
3242.983208	29.916783
3244.100515	31.426573
3245.217661	29.640559
3246.333172	30.450350
3247.449998	33.051049
3248.563713	33.633566
3249.680219	34.617483
3250.795089	34.491608
3251.906851	32.285315
3253.018454	33.810490
3254.131372	31.952448
3255.244130	36.968531
3256.353782	34.612587
3257.464749	34.487413
3258.575557	29.309091
3259.684733	27.160839
3260.792278	24.301399
3261.901138	24.646154
3263.009839	25.567832
3264.115438	29.183916
3265.222352	31.906993
3266.327636	33.962238
3267.434234	36.451049
3268.537732	41.962238
3269.642544	37.883916
3270.747199	37.920280
3271.848756	38.237063
3272.950156	40.789510
3274.052870	41.072028
3275.155427	43.711189
3276.254889	42.465734
3277.357133	42.996503
3278.456283	42.672028
3279.553807	40.411189
3280.651176	40.776923
3281.751328	40.116084
3282.848386	37.438462
3283.945290	39.045455
3285.042038	39.695105
3286.134227	40.856643
3287.230666	37.097902
3288.325482	34.645455
3289.420143	30.497203
3290.513183	26.776923
3291.606069	31.430769
3292.697334	29.644755
3293.789912	31.318881
3294.880870	31.972028
3295.970208	32.704196
3297.059393	33.862937
3298.149890	36.115385
3299.237303	40.104196
3300.324564	39.560140
3301.413137	41.571329
3302.501557	41.283916
3303.585430	38.788112
3304.673545	40.559441
3305.758579	35.679720
3306.841997	33.183916
3307.926727	30.870629
3309.009841	27.630769
3310.094267	28.162937
3311.175615	29.154545
3312.258275	32.815385
3313.339321	32.881119
3314.420216	36.664336
3315.499498	36.859441
3316.578629	36.302098
3317.659072	33.192308
3318.736440	32.414685
3319.815120	32.575524
3320.892188	33.621678
3321.969106	30.484615
3323.044414	33.249650
3324.119572	32.497203
3325.196041	34.800699
3326.269439	34.778322
3327.342689	38.115385
3328.417250	33.515385
3329.490201	31.091608
3330.561545	27.339860
3331.634199	28.234965
3332.703786	26.422378
3333.774684	27.144755
3334.843975	27.180420
3335.914577	29.364336
3336.983572	30.281818
3338.050961	31.278322
3339.116745	30.725175
3340.186755	31.325175
3341.253702	24.660839
3342.317587	26.294406
3343.384240	25.379720
3344.449289	26.704196
3345.512734	24.420979
3346.576032	28.109790
3347.639185	28.255944
3348.702191	31.039860
3349.765050	32.258741
3350.826308	33.597902
3351.884509	31.714685
3352.946931	33.758741
3354.006296	30.231469
3355.065517	32.963636
3356.126046	31.073427
3357.182066	32.373427
3358.240851	31.165035
3359.295128	34.429371
3360.352169	33.099301
3361.407611	35.951748
3362.464362	34.776224
3363.519516	32.679021
3364.573072	28.469231
3365.625031	30.802098
3366.679752	31.441958
3367.731425	32.990909
3368.782953	32.199301
3369.835791	34.286014
3370.885581	35.277622
3371.936680	37.723077
3372.984732	38.165734
3374.035545	35.699301
3375.083312	32.395105
3376.130937	29.815385
3377.178420	30.209790
3378.224309	31.274825
3379.271508	30.412587
3380.315663	30.026573
3381.362577	27.917483
3382.407899	30.362238
3383.450181	34.200000
3384.492321	36.794406
3385.535770	36.460140
3386.579077	35.875524
3387.620794	36.847552
3388.662370	37.949650
3389.703806	34.844056
3390.743653	30.470629
3391.781911	27.374825
3392.821477	28.162238
3393.860903	25.576224
3394.898741	31.020979
3395.934992	34.370629
3396.971103	34.302098
3398.008522	33.434266
3399.042908	35.321678
3400.078602	35.047552
3401.114156	32.272028
3402.146678	29.000000
3403.181954	29.003497
3404.214199	29.879021
3405.246306	30.614685
3406.276829	28.917483
3407.308660	33.996503
3408.340352	34.469930
3409.369016	34.937762
3410.397542	35.818182
3411.427376	37.274825
3412.457072	35.880420
3413.483741	35.211189
3414.511718	35.309091
3415.536670	35.005594
3416.564372	38.486014
3417.589051	38.118182
3418.615036	35.646154
3419.639442	35.148951
3420.663710	32.955944
3421.686400	32.127972
3422.708955	31.720280
3423.732814	33.754545
3424.753654	32.215385
3425.774359	34.477522
3426.796369	36.070829
3427.815361	36.179221
3428.834218	33.986613
3429.854381	28.676923
3430.871526	19.434066
