-118.385087	10.969780
-115.715486	10.676923
-113.048821	10.192408
-110.382909	9.626374
-107.719928	9.088961
-105.055517	8.690310
-102.394037	8.540559
-99.731128	9.356643
-97.073326	10.609091
-94.414093	11.847552
-91.755609	13.637762
-89.100050	13.320979
-86.443062	15.794406
-83.791171	15.568531
-81.137851	12.508392
-78.487451	8.054545
-75.835621	9.415385
-73.188882	7.483217
-70.540713	6.142657
-67.893288	1.944056
-65.248776	2.088112
-62.602835	0.172028
-59.961977	1.664336
-57.319688	2.365035
-54.680309	5.774126
-52.039501	2.795105
-49.399432	4.998601
-46.764437	8.139860
-44.128012	13.890909
-41.494491	15.551748
-38.859540	17.244056
-36.229656	16.825175
-33.596178	20.960839
-30.967763	20.153147
-28.340082	18.206993
-25.710973	7.609790
-23.086920	-42.222378
-20.459278	-213.923776
-17.836689	-541.888811
-15.214831	-284.326573
-12.593704	830.946853
-9.973308	2369.178322
-7.355799	3580.638462
-4.736862	4391.925175
-2.120811	4797.344056
0.494512	4795.748951
3.109108	4387.451049
5.720822	3584.650350
8.333963	2417.443357
10.942071	1002.353846
13.553761	-277.439860
16.160420	-663.393007
18.768507	-371.775524
21.375870	-21.586713
23.978208	11.014685
26.584124	12.353147
29.185019	11.244755
31.787341	10.810490
34.384645	7.172727
36.985525	6.516084
39.581391	5.793706
42.178684	1.688112
44.775258	4.940559
47.366823	5.298601
49.959816	8.018182
52.549948	9.802797
55.141508	11.502797
57.730208	14.597902
60.320336	15.360839
62.905464	15.276224
65.492020	14.105594
68.077861	14.865734
70.660849	13.178322
73.245264	10.106993
75.822549	13.758741
78.403401	12.206294
80.981404	12.838462
83.558697	11.954545
86.137416	11.974126
88.711154	14.211888
91.286318	10.232168
93.858639	8.669231
96.430253	9.773427
98.999026	8.885315
101.569226	7.502797
104.136587	6.326573
106.705375	6.783217
109.271325	3.942657
111.834441	5.457343
114.401114	9.497902
116.958564	15.458741
119.521700	25.252448
122.079877	37.311888
124.641607	57.326573
127.198382	91.111888
129.756582	136.189510
132.309830	196.979720
134.862379	268.308392
137.418480	348.341259
139.969632	428.270629
142.520086	506.882517
145.069844	580.393706
147.616782	636.197902
150.163024	676.869231
152.710693	699.858042
155.257665	708.824476
157.799701	714.650350
160.341044	714.811189
162.881695	710.616783
165.423770	703.176224
167.963035	697.262238
170.499490	686.259441
173.035255	678.716084
175.572445	678.041958
178.108943	670.232168
180.642636	668.923077
183.173526	668.218881
185.703727	667.674126
188.235353	669.728671
190.764179	670.160839
193.290205	669.255245
195.815545	669.967133
198.342310	669.304196
200.866279	664.265734
203.389562	661.195804
205.912161	657.841958
208.431967	653.455944
210.951090	656.652448
213.469530	657.458042
215.989394	659.441958
218.502257	663.708392
221.018651	669.263636
223.534364	676.762937
226.045186	683.544056
228.557433	685.784615
231.066897	687.001399
233.575683	689.788112
236.083791	686.659441
238.593323	690.362937
241.097974	691.872028
243.601949	689.752448
246.107348	693.323077
248.607872	698.599301
251.111919	700.707692
253.608996	701.764336
256.109595	705.071329
258.607423	708.087413
261.104578	712.387413
263.601060	716.430769
266.092680	715.693706
268.587818	718.865035
271.080191	719.276224
273.571893	718.853147
276.060832	721.934965
278.551194	721.725175
281.038795	721.534266
283.523636	721.774126
286.011991	726.629371
288.493408	729.495804
290.978338	734.225175
293.458422	738.368531
295.942019	740.365734
298.420774	740.301399
300.900951	744.693706
303.378377	749.965035
305.855139	765.818881
308.331237	795.322378
310.804587	845.334266
313.277276	899.011888
315.749303	948.808392
318.220668	986.043357
320.689290	1005.548252
323.157252	1008.413287
325.626637	990.152448
328.091199	954.349650
330.559264	911.762937
333.022510	868.875524
335.485099	833.228671
337.947030	816.426573
340.408305	815.731469
342.866846	816.621678
345.326809	817.711888
347.784040	815.803497
350.240616	817.793706
352.696537	823.715385
355.149730	821.405594
357.604345	818.652448
360.054158	815.199301
362.507467	815.458042
364.955977	814.734965
367.403837	818.609790
369.853118	818.345455
372.297606	818.194406
374.743516	818.556643
377.188777	816.151748
379.631319	823.755944
382.073213	823.660140
384.514459	818.693007
386.952990	817.412587
389.392943	810.885315
391.830182	810.168531
394.264709	808.592308
396.702724	813.408392
399.135962	808.623077
401.570622	809.623077
404.000509	805.725175
406.433881	808.286014
408.862482	811.545455
411.290443	810.381818
413.719824	810.985315
416.144441	813.739161
418.570478	811.627273
420.995876	814.193706
423.420633	814.702098
425.840631	822.242657
428.262051	820.648252
430.680774	824.058042
433.100918	823.545455
435.518367	829.710490
437.937236	831.406294
440.353412	832.021678
442.764841	829.097203
445.179746	832.574825
447.591961	832.048951
450.003542	830.358042
452.414489	824.900000
454.822750	821.930070
457.230379	813.794406
459.637375	805.853147
462.043739	798.020979
464.447422	789.526573
466.850474	781.555944
469.252896	773.437063
471.654688	765.830769
474.053802	767.549650
476.454336	767.976224
478.854241	770.200000
481.249423	772.555944
483.648072	773.996503
486.042001	774.490909
488.435304	771.420280
490.827981	760.277622
493.220033	743.371329
495.613504	722.969231
498.002262	698.733566
500.388354	671.134266
502.775866	640.551748
505.162754	612.600000
507.546979	588.755245
509.932623	567.273427
512.315604	546.239860
514.695925	531.686014
517.077665	516.655245
519.456746	501.453147
521.837246	489.274825
524.215088	481.257343
526.590275	473.329371
528.964844	466.704895
531.340832	454.683916
533.714166	449.304895
536.088919	447.530769
538.458985	443.740559
540.828436	438.374825
543.199306	434.248252
545.565494	429.604895
547.933101	424.973427
550.298062	423.671329
552.662410	422.348252
555.026146	422.295804
557.391299	419.179021
559.751780	413.581818
562.113678	409.578322
564.472937	409.562937
566.829557	403.956643
569.189623	400.644755
571.542997	396.395804
573.899816	398.934266
576.254000	397.813986
578.607575	398.849650
580.960542	395.138462
583.310878	394.093706
585.662630	390.777622
588.007706	387.031469
590.358246	383.379021
592.702113	382.790210
595.051441	380.095804
597.396120	381.405594
599.738175	383.508392
602.081647	386.769930
604.422496	385.054545
606.762742	383.140559
609.100368	379.831469
611.441429	375.595804
613.777853	369.581119
616.115693	360.906993
618.450915	353.119580
620.783522	346.065035
623.117546	341.602797
625.448955	341.313287
627.779766	339.344755
630.109979	337.288811
632.439595	337.968531
634.764587	340.176224
637.095021	339.430769
639.420833	335.960140
641.744039	331.776923
644.068661	328.549650
646.390677	324.649650
648.712099	321.002797
651.030918	318.054545
653.351153	318.054545
655.670795	315.472028
657.987836	317.674126
660.304286	316.634266
662.618137	315.458741
664.933403	311.804895
667.246073	311.468531
669.560158	311.339860
671.869644	313.008392
674.180544	309.370629
676.488852	303.781119
678.796572	301.571329
681.105707	304.189510
683.410249	301.753846
685.714205	299.631469
688.017574	290.879720
690.322358	286.860140
692.622556	284.135664
694.924169	282.548252
697.225196	279.435664
699.521642	279.611888
701.819502	274.983916
704.116780	273.753147
706.413473	273.955245
708.705591	275.241958
711.001120	273.307692
713.292076	276.246853
715.584446	277.795804
717.874240	282.480420
720.163455	283.108392
722.452089	287.706993
724.738152	289.965734
727.025628	294.010490
729.310534	293.011189
731.594861	292.523776
733.876621	288.681119
736.159794	286.517483
738.442390	287.876923
740.720430	291.373427
742.999884	290.909091
745.278763	291.520280
747.557066	292.756643
749.830820	295.431469
752.105988	297.180420
754.380582	301.611189
756.652617	304.069930
758.926065	306.435664
761.196955	305.567832
763.465288	307.734965
765.735036	312.817483
768.002228	316.755944
770.268850	316.448252
772.534903	320.663636
774.798404	323.748951
777.063317	322.780420
779.327662	324.917483
781.587476	328.246154
783.848704	329.836364
786.109364	327.930070
788.367477	324.363636
790.623046	321.492308
792.882006	319.967133
795.134467	318.102098
797.392295	313.420280
799.645604	314.888811
801.896372	311.154545
804.148553	308.696503
806.398196	308.234965
808.649250	307.813287
810.895793	305.708392
813.143749	302.911189
815.389169	300.320979
817.636002	298.946154
819.882272	297.225874
822.124039	297.177622
824.369188	297.916783
826.607865	303.101399
828.849925	297.909091
831.087486	298.813287
833.326458	293.846853
835.562904	288.888112
837.800762	286.922378
840.036094	281.574825
842.268902	278.675524
844.503122	272.482517
846.734820	271.074126
848.965963	269.664336
851.196551	269.553846
853.426585	269.572727
855.656064	264.434965
857.881063	263.731469
860.109435	258.309091
862.333329	260.002098
864.558633	265.048252
866.779462	263.794406
869.003663	268.224476
871.223391	270.778322
873.444530	277.765734
875.665118	277.146853
877.883197	277.341958
880.102685	278.655944
882.317707	277.778322
884.532181	275.223776
886.746108	273.695804
888.959487	275.248252
891.172320	277.546154
893.384605	274.944755
895.594389	276.306993
897.803627	274.896503
900.012319	272.990909
902.218513	275.862238
904.426116	277.769930
906.631222	280.282517
908.835784	277.537063
911.037851	275.723776
913.241327	276.885315
915.442309	276.695105
917.642749	279.975524
919.844598	280.486713
922.040056	279.338462
924.238872	277.569930
926.433251	272.841259
928.630987	275.123776
930.824287	272.222378
933.018995	269.816084
935.211218	265.906294
937.402903	266.128671
939.594050	269.569231
941.782714	270.836364
943.970841	276.732168
946.156488	285.887413
948.345487	293.795105
950.530063	304.885315
952.714104	305.843357
954.901495	308.267832
957.080583	311.542657
959.263020	314.467133
961.444924	313.681818
963.624354	317.517483
965.801311	318.362937
967.979676	316.335664
970.159447	322.322378
972.332870	335.158042
974.509639	346.127273
976.682002	362.301399
978.855771	369.318881
981.025138	373.980420
983.197848	380.714685
985.368092	384.650350
987.537808	386.869930
989.706995	391.327273
991.871785	384.535664
994.039917	389.523776
996.203653	394.088112
998.368797	399.900000
1000.531481	401.709091
1002.693640	409.370629
1004.853341	406.985315
1007.012519	407.289510
1009.173103	416.488811
1011.331232	426.358042
1013.488837	433.822378
1015.645919	435.962937
1017.802478	431.019580
1019.954657	436.245455
1022.108243	433.476224
1024.261306	440.886713
1026.411922	440.115385
1028.563943	434.464336
1030.711591	433.960839
1032.862571	436.406993
1035.009181	456.806294
1037.155271	465.580420
1039.300843	475.883217
1041.447819	475.880420
1043.588508	471.414685
1045.732525	480.947552
1047.874103	487.528671
1050.015163	497.981818
1052.157628	495.463636
1054.293814	489.230769
1056.433326	499.623776
1058.568482	502.869231
1060.706963	515.367133
1062.841091	506.208392
1064.974705	499.011888
1067.109723	487.656643
1069.240392	479.009091
1071.372467	476.450350
1073.502111	472.371329
1075.631244	461.360140
1077.759866	457.035664
1079.887976	454.781119
1082.013660	463.204196
1084.138834	463.257343
1086.265411	460.546853
1088.387652	448.541259
1090.511297	438.609790
1092.630607	427.001399
1094.755146	416.321678
1096.873441	405.680420
1098.993139	400.214685
1101.110419	385.576224
1103.227193	389.746154
1105.343460	386.205594
1107.457312	389.794406
1109.572567	388.857343
1111.683500	383.975524
1113.797744	378.099301
1115.907669	376.415385
1118.018996	371.397902
1120.129820	366.386713
1122.236327	360.653147
1124.346143	358.907692
1126.451645	355.365035
1128.558551	367.416783
1130.659240	361.041259
1132.765142	358.647552
1134.866735	354.896503
1136.969731	352.522378
1139.072226	352.630769
1141.168515	352.437063
1143.270010	347.479021
1145.367203	338.881119
1147.463897	335.430769
1149.560094	341.374126
1151.655792	346.378322
1153.750993	349.881818
1155.843797	342.018881
1157.938003	342.400000
1160.026018	351.365035
1162.119231	350.423077
1164.206256	353.546853
1166.296581	347.707692
1168.382617	341.963636
1170.471951	336.735664
1172.555104	334.058042
1174.639660	337.849650
1176.725616	340.207692
1178.807291	335.641259
1180.890368	338.422378
1182.971059	340.244056
1185.051259	343.862937
1187.130967	338.383217
1189.210183	337.636364
1191.287018	327.848252
1193.361472	320.904196
1195.439218	317.002098
1197.512693	314.646853
1199.587570	314.640559
1201.658179	320.269930
1203.730189	320.855944
1205.799823	324.270629
1207.870858	324.039860
1209.941405	321.170629
1212.007691	316.474825
1214.075378	313.132168
1216.140693	312.653846
1218.207408	310.120979
1220.269867	307.586014
1222.335612	306.849650
1224.397102	307.852448
1226.459992	311.565734
1228.520515	308.730769
1230.580555	308.312587
1232.640111	306.978322
1234.697303	302.795105
1236.754012	304.176224
1238.808359	312.010490
1240.865986	312.332867
1242.921251	312.425175
1244.972275	308.381818
1247.024699	307.113986
1249.076644	308.205594
1251.126230	309.200699
1253.175337	308.041958
1255.223965	308.881119
1257.272115	309.782517
1259.319787	315.176224
1261.363228	319.440559
1263.409944	322.219580
1265.454308	321.714685
1267.498194	320.841958
1269.539730	314.832867
1271.578916	316.002098
1273.621374	318.305594
1275.659611	320.973427
1277.699245	324.519580
1279.738405	329.865734
1281.773347	336.341259
1283.809687	345.404196
1285.843682	348.219580
1287.879076	354.223776
1289.910256	363.034965
1291.942835	363.007692
1293.974941	369.536364
1296.004707	380.730769
1298.035871	385.867133
1300.062827	395.318881
1302.091181	402.933566
1304.115331	412.423776
1306.142746	421.660839
1308.165958	431.534965
1310.190568	438.221678
1312.212843	452.128671
1314.236516	467.879720
1316.257856	481.873427
1318.278729	500.187413
1320.299134	516.781119
1322.315345	532.673427
1324.332955	548.862238
1326.348236	559.776923
1328.366776	572.895804
1330.381126	584.579720
1332.393151	594.088112
1334.408434	602.774126
1336.419531	605.513986
1338.432024	604.930070
1340.440335	605.550350
1342.451902	600.496503
1344.457430	591.037063
1346.466212	577.786713
1348.470818	561.281119
1350.478677	545.170629
1352.486073	527.061538
1354.487439	509.755245
1356.490202	491.158741
1358.492505	477.634965
1360.494347	456.219580
1362.495731	439.762937
1364.494800	429.072028
1366.493411	413.870629
1368.491564	401.038462
1370.489259	387.414685
1372.482790	377.965035
1374.477718	367.830070
1376.472189	358.858042
1378.466203	354.125175
1380.457910	349.379021
1382.449161	347.312587
1384.438107	343.683916
1386.428448	339.068531
1388.418334	335.589510
1390.405917	333.020280
1392.393046	332.865734
1394.377873	331.104895
1396.364095	325.557343
1398.348016	321.897203
1400.331485	313.533566
1402.314502	308.462238
1404.295221	302.907692
1406.277334	295.617483
1408.257150	295.480420
1410.236516	289.611189
1412.211743	286.016783
1414.190208	285.887413
1416.166380	288.828671
1418.142102	290.487413
1420.117375	288.636364
1422.090357	290.566434
1424.062892	286.255245
1426.034978	289.764336
1428.006616	292.940559
1429.974127	292.218881
1431.946711	296.151049
1433.911489	294.827972
1435.881340	295.173427
1437.847066	296.167832
1439.814186	293.230769
1441.779022	289.310490
1443.739738	286.986713
1445.705522	290.469231
1447.665351	288.785315
1449.626573	294.407692
1451.589188	295.759441
1453.547688	294.465035
1455.505746	298.174126
1457.463361	299.827273
1459.420535	299.530769
1461.375433	301.773427
1463.331723	298.134965
1465.285739	298.916084
1467.239315	298.372028
1469.190618	299.114685
1471.143313	298.804895
1473.093737	300.253846
1475.043722	298.193706
1476.993267	293.825175
1478.940544	291.834266
1480.885554	290.616084
1482.831956	291.800000
1484.777920	293.673427
1486.723446	295.070629
1488.666708	296.020979
1490.609533	298.069231
1492.550095	297.137762
1494.492048	302.125175
1496.431740	299.723776
1498.370996	299.216783
1500.309818	296.194406
1502.246380	294.853147
1504.184332	298.436364
1506.120027	299.180420
1508.055288	305.899301
1509.988292	311.376224
1511.920864	312.539860
1513.853004	315.301399
1515.784712	315.195804
1517.714167	321.571329
1519.645011	323.006993
1521.575425	322.086713
1523.501766	320.203497
1525.429497	319.749650
1527.354978	323.551748
1529.280030	321.029371
1531.204653	329.673427
1533.128847	333.297902
1535.050794	336.586713
1536.974130	345.192308
1538.895221	350.718182
1540.814067	361.446853
1542.734303	372.332867
1544.652295	381.435664
1546.569861	396.337762
1548.485185	411.819580
1550.401899	429.498601
1552.314558	442.380420
1554.230421	457.080420
1556.144045	468.874825
1558.055430	480.046853
1559.968204	486.702797
1561.876929	488.358042
1563.787044	491.710490
1565.696735	493.923776
1567.606002	500.809790
1569.513036	499.476923
1571.417837	503.305594
1573.324027	506.341259
1575.227985	500.863636
1577.131523	495.265734
1579.034639	490.295105
1580.935527	488.317483
1582.837803	478.833566
1584.737850	475.109091
1586.639286	467.795804
1588.536687	459.551748
1590.433671	462.113287
1592.330236	444.309790
1594.228188	443.448252
1596.120306	438.418182
1598.015618	436.167832
1599.910511	437.013986
1601.803183	432.665734
1603.695439	426.586014
1605.585475	423.811888
1607.475095	417.093007
1609.364300	406.765035
1611.253089	398.396503
1613.139662	382.398601
1615.027621	357.211888
1616.911565	344.369930
1618.796895	339.116084
1620.681812	335.434965
1622.564515	329.420979
1624.448604	325.560839
1626.328683	313.865035
1628.210148	312.925874
1630.089403	308.342657
1631.970044	301.082517
1633.844881	298.890909
1635.724700	287.448951
1637.600513	279.811888
1639.475917	278.025874
1641.352706	280.251748
1643.223698	278.440559
1645.097872	274.360140
1646.968048	265.832867
1648.841404	257.994406
1650.712557	260.019580
1652.581508	261.711189
1654.451845	262.551748
1656.318188	267.497902
1658.185918	267.149650
1660.051448	262.192308
1661.918363	264.958741
1663.781290	262.995804
1665.645602	259.942657
1667.507719	254.454545
1669.369430	240.854545
1671.232526	242.295804
1673.093428	238.659441
1674.952136	239.595105
1676.810441	246.198601
1678.670131	241.972028
1680.524054	243.599301
1682.381149	243.627273
1684.237842	251.648252
1686.090559	256.747552
1687.946447	255.406294
1689.798361	260.262238
1691.649873	255.795105
1693.500986	260.669231
1695.351697	260.218881
1697.202008	263.246853
1699.050135	259.888811
1700.899645	251.161538
1702.743407	243.853846
1704.592119	237.920979
1706.435084	235.400699
1708.281215	233.005594
1710.123385	230.570629
1711.968719	239.299301
1713.808313	243.916783
1715.649291	239.004196
1717.491652	239.376923
1719.330057	245.709091
1721.169845	240.209790
1723.007458	239.309091
1724.844675	231.364336
1726.679719	235.227273
1728.516146	240.030769
1730.350401	237.846853
1732.184262	242.862937
1734.017728	245.358741
1735.847248	246.753846
1737.679927	243.039860
1739.508662	241.255944
1741.340555	248.946154
1743.168505	247.586014
1744.996063	250.431469
1746.823230	237.153846
1748.650004	240.633566
1750.476388	246.360140
1752.298835	235.461538
1754.124436	242.955944
1755.946103	242.451049
1757.769152	251.543357
1759.590040	254.037762
1761.410538	245.784615
1763.232418	251.917483
1765.048598	247.154545
1766.867930	241.815385
1768.683335	220.481119
1770.501891	218.967133
1772.316521	219.035664
1774.130764	213.516084
1775.944621	225.614685
1777.758091	234.264336
1779.569407	250.666434
1781.382105	251.783217
1783.194416	257.960140
1785.002810	259.400000
1786.812585	256.736364
1788.618444	256.581119
1790.427450	248.658741
1792.232542	240.575524
1794.039014	234.758741
1795.845103	230.814685
1797.647282	237.273427
1799.452604	235.383217
1801.254018	237.635664
1803.056812	232.788811
1804.855701	238.375524
1806.655969	229.483217
1808.455857	235.460140
1810.253602	240.856643
1812.050967	239.844056
1813.847951	236.119580
1815.644555	244.573427
1817.439020	254.128671
1819.234865	260.558741
1821.025054	260.864336
1822.820140	265.466434
1824.609573	262.013986
1826.402144	263.251049
1828.192579	251.017483
1829.980879	244.109091
1831.772315	229.616084
1833.558105	221.875524
1835.345275	222.548252
1837.130313	226.220979
1838.918485	227.173427
1840.702771	226.128671
1842.484928	226.837762
1844.268463	230.975524
1846.049871	237.700000
1847.832656	246.700699
1849.611562	241.467832
1851.391846	236.179021
1853.170005	230.657343
1854.949541	233.988112
1856.726953	231.286713
1858.502241	230.542657
1860.278908	230.797902
1862.053452	230.018881
1863.829373	232.197203
1865.599675	236.435664
1867.373104	242.603497
1869.144413	248.158042
1870.915351	248.260839
1872.687666	250.003497
1874.454369	244.516783
1876.224196	242.709790
1877.990160	238.209091
1879.759248	235.186014
1881.524474	234.634266
1883.289332	232.351748
1885.055566	229.409790
1886.817942	229.055944
1888.579951	229.670629
1890.341593	233.743357
1892.102867	237.220280
1893.863775	245.415385
1895.624315	247.109790
1897.382746	247.927273
1899.140812	250.527972
1900.896770	250.460839
1902.654104	249.255245
1904.411072	248.879720
1906.165935	239.992308
1907.918692	237.622378
1909.671086	236.526573
1911.424856	233.816783
1913.176522	235.163636
1914.926085	239.139860
1916.677025	240.870629
1918.427601	239.112587
1920.174339	241.157343
1921.922452	241.302098
1923.668466	238.550350
1925.415856	237.939161
1927.161147	232.260839
1928.904341	233.249650
1930.648911	236.751049
1932.391384	238.841259
1934.133497	242.712587
1935.875251	246.720280
1937.616644	251.152448
1939.355944	251.365734
1941.094885	248.015385
1942.833467	246.370629
1944.569957	238.351748
1946.306090	235.184615
1948.043597	234.201399
1949.777283	234.867133
1951.512343	238.487413
1953.245314	240.896503
1954.977929	245.394406
1956.710187	251.386014
1958.442089	255.593007
1960.171905	257.360140
1961.899637	253.202098
1963.628742	250.144056
1965.357493	241.247552
1967.084160	240.773427
1968.810473	236.499301
1970.538159	241.559441
1972.260309	239.683217
1973.985561	240.288811
1975.707005	245.299301
1977.431549	247.617483
1979.154014	246.213986
1980.872675	249.188112
1982.594435	253.262937
1984.312393	256.046853
1986.031725	251.882517
1987.747256	250.941259
1989.467609	247.353147
1991.184162	251.115385
1992.896920	248.069930
1994.612773	254.476923
1996.326554	254.584615
1998.039984	253.372727
1999.751344	248.237063
2001.464077	252.351049
2003.173018	252.261538
2004.885053	251.953147
2006.591578	250.207692
2008.301196	248.734266
2010.008746	244.227972
2011.715949	244.900000
2013.421086	248.102797
2015.125876	253.390210
2016.832038	252.344056
2018.534418	252.346154
2020.238170	252.429371
2021.939859	252.839860
2023.641202	248.170629
2025.342200	249.724476
2027.041138	254.993706
2028.741447	257.230070
2030.437980	252.239860
2032.135885	251.192308
2033.831732	256.262937
2035.530664	257.684615
2037.224110	252.711888
2038.918927	251.939860
2040.613401	255.398601
2042.304107	256.100699
2043.997897	258.015385
2045.687920	262.288112
2047.379314	265.425175
2049.068655	261.071329
2050.759366	251.261538
2052.446315	252.099301
2054.132923	253.944056
2055.820902	247.261538
2057.505121	241.821678
2059.190710	241.526573
2060.875960	241.644755
2062.559162	241.577622
2064.243734	244.613287
2065.922842	248.498601
2067.606736	246.980420
2069.285170	244.230769
2070.966681	244.440559
2072.644440	251.482517
2074.321863	247.398601
2076.000655	245.765035
2077.677404	245.695105
2079.352112	249.037762
2081.028189	242.841259
2082.702226	245.065734
2084.375927	246.642657
2086.049293	251.405594
2087.720621	252.386713
2089.391614	251.858741
2091.062273	251.614685
2092.732598	253.562238
2094.402588	248.702098
2096.070543	250.739161
2097.738165	250.286014
2099.403753	254.420280
2101.070709	251.388112
2102.735632	252.381119
2104.400222	251.237063
2106.062781	254.887413
2107.726709	255.418182
2109.388605	251.951049
2111.050170	250.997902
2112.711405	248.962238
2114.370610	241.360140
2116.029486	240.430769
2117.688031	239.608392
2119.346247	242.593007
2121.000739	242.356643
2122.658297	242.130769
2124.315524	245.706294
2125.969031	249.551748
2127.623905	250.832168
2129.275060	252.641259
2130.929278	254.532168
2132.579778	255.137063
2134.231646	255.454545
2135.878105	257.084615
2137.529318	251.617483
2139.176818	254.234965
2140.825686	251.111189
2142.472534	255.393007
2144.119056	254.367832
2145.765254	253.958741
2147.407742	248.993706
2149.053289	248.426573
2150.695129	252.641958
2152.340026	259.550350
2153.981218	261.695804
2155.622086	255.646853
2157.262631	251.491608
2158.901163	253.178322
2160.541061	251.751748
2162.177259	255.252448
2163.814823	248.699301
2165.452065	248.333566
2167.087297	243.400699
2168.722207	241.276923
2170.356796	244.938462
2171.991064	244.332867
2173.621638	237.618182
2175.255263	237.393007
2176.885197	240.165734
2178.516496	243.467832
2180.145791	246.666434
2181.774765	247.137063
2183.403421	252.177622
2185.031757	255.704895
2186.658090	255.516084
2188.284105	256.065734
2189.908119	258.606993
2191.533498	259.371329
2193.156876	254.330769
2194.781619	255.020979
2196.402680	251.814685
2198.023426	248.464336
2199.645535	238.118881
2201.265647	235.237762
2202.883763	237.797902
2204.501563	234.406993
2206.119047	239.387413
2207.736216	248.272028
2209.353070	256.495804
2210.969609	263.644755
2212.584154	264.151049
2214.196707	267.421678
2215.810625	264.731469
2217.422550	260.684615
2219.035840	254.083916
2220.647138	250.670629
2222.256448	246.010490
2223.867120	243.766434
2225.475804	243.930769
2227.084176	247.757343
2228.690560	248.626573
2230.298308	248.358042
2231.904069	254.997902
2233.509519	261.368531
2235.112985	264.080420
2236.717813	272.284615
2238.320657	270.538462
2239.921518	268.152448
2241.523742	264.119580
2243.123983	260.732867
2244.725588	254.829371
2246.323539	246.683916
2247.922853	241.813986
2249.520187	237.546853
2251.117213	236.186713
2252.715600	236.158741
2254.310339	243.388811
2255.903102	253.683217
2257.497226	255.046853
2259.092712	261.243357
2260.684554	268.004895
2262.276089	278.555245
2263.868985	277.848252
2265.456572	275.446853
2267.048856	277.023077
2268.635832	264.761538
2270.225837	258.359441
2271.810537	253.046154
2273.399931	246.893706
2274.984022	243.806294
2276.569475	240.460839
2278.152959	242.123077
2279.739468	242.397902
2281.322344	249.277622
2282.904916	250.995804
2284.487186	256.772028
2286.065825	256.623077
2287.647488	254.017483
2289.225524	256.292308
2290.806582	251.654545
2292.384013	248.678322
2293.959481	246.602797
2295.537971	242.120280
2297.112836	241.013287
2298.687401	237.300000
2300.261666	244.758042
2301.835630	248.224476
2303.409294	254.602797
2304.982657	248.050350
2306.552402	247.361538
2308.121848	243.823776
2309.694313	243.210490
2311.261503	238.408392
2312.831710	231.085315
2314.398303	228.090210
2315.966256	227.906294
2317.532254	233.234965
2319.097954	238.484615
2320.663356	250.290909
2322.226805	260.226573
2323.791613	257.309091
2325.352812	263.307692
2326.917026	267.000699
2328.475979	264.444056
2330.037945	255.963636
2331.597961	252.405594
2333.157681	245.568531
2334.715452	239.592308
2336.272929	238.836364
2337.830110	237.826573
2339.385345	245.895804
2340.940285	246.941958
2342.494932	245.809091
2344.049285	251.890210
2345.603344	252.602797
2347.157110	245.696503
2348.708931	240.218881
2350.258809	235.706294
2351.811695	231.146154
2353.359339	223.358042
2354.909990	221.371329
2356.457051	222.048951
2358.005469	225.016783
2359.553595	237.597203
2361.098134	245.601399
2362.644030	252.052448
2364.187987	251.853846
2365.733302	248.434266
2367.275032	246.494406
2368.818120	245.789510
2370.359271	240.466434
2371.900133	239.060839
2373.440706	243.673427
2374.980990	247.618881
2376.520985	250.155245
2378.057401	265.072727
2379.596819	266.527273
2381.132660	266.134965
2382.669857	265.964336
2384.203480	271.472727
2385.740102	270.050350
2387.274793	268.705594
2388.807555	260.766434
2390.340031	265.000699
2391.870578	262.537762
2393.404123	258.662238
2394.932457	254.838462
2396.462147	255.300000
2397.991552	247.606993
2399.520672	249.950350
2401.049506	249.558741
2402.573136	256.906294
2404.101401	254.399301
2405.624463	259.500699
2407.152160	264.000699
2408.673016	273.246154
2410.198506	275.165035
2411.720436	281.160140
2413.243720	282.755245
2414.765084	284.084615
2416.284528	285.573427
2417.805327	290.883916
2419.324207	286.609790
2420.842805	284.613986
2422.359486	279.434266
2423.877522	275.816084
2425.395276	271.758741
2426.909478	267.906993
2428.423400	256.919580
2429.937043	261.474126
2431.452039	260.379021
2432.963487	267.812587
2434.476290	265.476224
2435.987180	271.993007
2437.497790	268.418881
2439.006489	264.406294
2440.518175	257.851748
2442.026317	247.379720
2443.534180	249.830070
2445.041766	240.078322
2446.545812	233.529371
2448.052842	249.420280
2449.557964	254.395804
2451.062809	263.278322
2452.565747	271.118881
2454.068408	288.674126
2455.570793	288.930070
2457.071273	289.424476
2458.573106	285.458741
2460.073035	280.777622
2461.572688	282.109790
2463.072066	263.500000
2464.569541	259.360839
2466.065114	263.490210
2467.563667	255.257343
2469.058691	258.198601
2470.555069	262.461538
2472.047920	260.567832
2473.542123	251.920979
2475.036053	260.509091
2476.526460	259.460839
2478.019844	261.239161
2479.511329	259.488811
2481.000918	260.072727
2482.490236	265.726573
2483.977657	268.767133
2485.468054	261.330070
2486.954932	259.173427
2488.443162	259.260839
2489.927876	252.474825
2491.412319	248.500000
2492.898114	259.937063
2494.382016	253.493007
2495.867270	252.540559
2497.347390	251.539161
2498.830482	252.051748
2500.311684	247.455944
2501.792617	245.746853
2503.271661	241.907692
2504.750437	239.797203
2506.228944	246.620979
2507.707182	250.211189
2509.185152	252.493706
2510.659618	260.918182
2512.137052	261.366434
2513.610983	259.620280
2515.086265	257.516084
2516.561279	252.131469
2518.032792	250.466434
2519.505656	247.578322
2520.976637	251.637063
2522.448967	249.541958
2523.916185	259.469930
2525.386369	264.646853
2526.854671	263.297203
2528.322709	267.749650
2529.790482	268.416783
2531.257990	264.316783
2532.725233	259.990210
2534.188985	254.256643
2535.654086	254.255245
2537.117310	251.855944
2538.581883	252.553147
2540.042967	253.043357
2541.505402	258.934965
2542.967573	261.375524
2544.426257	259.915385
2545.889514	263.788112
2547.347674	262.383217
2548.807183	255.606993
2550.261599	250.853846
2551.720585	247.694406
2553.177698	247.471329
2554.632941	246.514685
2556.087923	239.246154
2557.541035	242.058741
2558.995496	246.190909
2560.448088	247.629371
2561.900420	240.486713
2563.350884	241.844755
2564.804304	240.825874
2566.252642	243.877622
2567.703936	250.607692
2569.153363	257.162238
2570.599319	257.348951
2572.048229	260.501399
2573.493668	262.243357
2574.940456	269.916084
2576.385380	271.616783
2577.830047	271.759441
2579.276061	266.468531
2580.718608	269.083217
2582.162503	263.753147
2583.602933	261.245455
2585.044711	258.276224
2586.484629	254.540559
2587.925894	246.039161
2589.363697	241.804196
2590.804450	238.630769
2592.240140	244.227972
2593.678780	252.757343
2595.115563	265.810490
2596.550489	271.292308
2597.988364	280.390909
2599.421181	281.504895
2600.855345	285.512587
2602.287654	283.093007
2603.721310	278.025175
2605.153113	271.898601
2606.584663	262.651049
2608.015959	257.475524
2609.445404	266.236364
2610.874596	271.939161
2612.301937	269.887413
2613.730625	266.941259
2615.159060	269.220280
2616.584049	270.604895
2618.010383	276.853147
2619.434869	275.448951
2620.860701	276.638462
2622.283089	281.318881
2623.706823	282.895105
2625.128711	283.524476
2626.550348	285.867832
2627.970140	282.901399
2629.391278	281.418182
2630.812166	279.464336
2632.229616	273.304196
2633.650005	269.972727
2635.066957	273.265734
2636.483661	275.300000
2637.900116	269.030769
2639.316323	263.658042
2640.732281	262.516783
2642.146399	260.512587
2643.560270	261.934965
2644.972301	274.327972
2646.385677	287.944056
2647.795623	297.313986
2649.208505	306.874126
2650.617958	306.282517
2652.027165	312.815385
2653.434536	317.887413
2654.844841	306.240559
2656.253310	297.588811
2657.659944	292.607692
2659.066333	289.707692
2660.470888	287.206993
2661.876787	295.065734
2663.280853	297.152448
2664.684675	302.488112
2666.088252	309.457343
2667.489997	306.600699
2668.893086	318.820280
2670.292758	327.239161
2671.693773	324.158042
2673.091371	321.805594
2674.491900	321.444755
2675.889014	323.245455
2677.287471	318.788112
2678.684100	317.697203
2680.080488	309.803497
2681.476633	303.723776
2682.870952	305.291608
2684.266614	302.018182
2685.658866	311.194406
2687.052462	308.246853
2688.444233	308.358042
2689.837346	311.960140
2691.228636	312.517483
2692.618103	314.069930
2694.007331	311.868531
2695.396318	310.764336
2696.786648	305.029371
2698.171993	301.388811
2699.560263	291.700000
2700.946712	281.227273
2702.332922	283.060839
2703.718893	274.281119
2705.101466	274.032168
2706.485380	270.332867
2707.869057	266.245455
2709.252496	273.911888
2710.632539	277.678322
2712.013924	279.599301
2713.393493	285.931469
2714.774404	293.752448
2716.153500	288.913986
2717.530781	290.134965
2718.909404	295.854545
2720.286214	295.415385
2721.662788	291.410490
2723.039126	282.645455
2724.413652	276.983916
2725.789519	282.076923
2727.161999	277.367832
2728.537396	276.480420
2729.907831	279.762238
2731.279608	282.450350
2732.651151	277.691608
2734.020885	274.211189
2735.391959	272.709790
2736.761226	266.648951
2738.130259	259.203497
2739.497485	255.325175
2740.864479	249.963636
2742.231240	253.139161
2743.597768	247.965035
2744.962492	244.039860
2746.326983	242.373427
2747.691242	243.246154
2749.055270	239.551049
2750.419065	238.418182
2751.779487	235.376224
2753.142820	234.476923
2754.501210	237.553147
2755.862510	247.784615
2757.220439	251.421678
2758.581278	258.490210
2759.940316	256.394406
2761.295986	247.034266
2762.654565	247.895105
2764.009776	249.720979
2765.364758	248.122378
2766.717943	245.229371
2768.074035	241.362937
2769.426763	243.674825
2770.779262	248.972028
2772.131533	257.712587
2773.485143	258.672028
2774.835391	260.286713
2776.183846	259.879021
2777.535205	255.134965
2778.883205	259.806294
2780.232544	264.293007
2781.580090	262.805594
2782.927409	254.281818
2784.274502	250.659441
2785.619804	248.877622
2786.964880	249.055245
2788.309730	244.712587
2789.654354	242.060140
2790.995625	245.148951
2792.338235	242.786713
2793.680620	243.774825
2795.022779	240.032168
2796.361589	234.916783
2797.703299	227.958042
2799.041660	225.968531
2800.381359	223.787413
2801.719272	231.555944
2803.055401	236.669930
2804.391307	237.873427
2805.728549	242.551049
2807.064008	240.074825
2808.399244	237.400699
2809.732698	237.837063
2811.067488	233.227273
2812.398937	230.014685
2813.733282	235.772028
2815.062729	240.388811
2816.393513	239.584615
2817.724075	247.674825
2819.052858	249.396503
2820.382978	247.944755
2821.711318	245.791608
2823.039438	239.140559
2824.365781	239.362937
2825.693459	238.260839
2827.017805	243.019580
2828.343486	244.674126
2829.667393	255.044056
2830.991079	253.072727
2832.316101	254.351748
2833.637794	249.219580
2834.959267	243.420280
2836.280522	227.976224
2837.601558	223.341259
2838.920822	215.158042
2840.241421	213.903497
2841.560248	217.818881
2842.878857	228.948951
2844.195696	237.251748
2845.512317	250.947552
2846.828720	253.626573
2848.143355	259.230070
2849.459324	255.662937
2850.771973	251.760140
2852.085958	247.592308
2853.399726	248.246154
2854.713277	246.186014
2856.025061	254.381119
2857.335080	255.437762
2858.646433	255.521678
2859.954470	254.445455
2861.263843	254.993706
2862.573000	252.627972
2863.881942	247.750350
2865.189121	245.627972
2866.494536	247.390210
2867.801286	244.335664
2869.106273	241.232168
2870.411047	243.096503
2871.714059	245.606294
2873.019953	233.948951
2874.320992	229.492308
2875.623364	226.295105
2876.923977	222.645455
2878.225924	229.222378
2879.527658	233.574126
2880.826088	251.199301
2882.125851	260.075524
2883.423857	259.509091
2884.721651	262.709091
2886.017688	261.365734
2887.315059	256.995804
2888.610674	249.948951
2889.906079	244.561538
2891.201272	238.477622
2892.493167	239.020979
2893.787939	242.942657
2895.079415	242.461538
2896.372223	249.772028
2897.664821	243.234965
2898.954124	243.055245
2900.244760	239.734965
2901.533646	236.625175
2902.823863	233.938462
2904.110789	238.265734
2905.399047	238.029371
2906.685556	237.027273
2907.971856	242.238462
2909.257948	237.662238
2910.542292	242.576224
2911.829508	244.765035
2913.111897	240.344755
2914.395618	242.388811
2915.677592	237.790210
2916.959360	237.225175
2918.239382	237.457343
2919.522274	233.275524
2920.803421	226.918182
2922.081286	220.829371
2923.362020	219.231469
2924.639473	219.190909
2925.916721	226.025175
2927.192226	224.839161
2928.470599	231.947552
2929.744157	239.141958
2931.020583	244.262238
2932.295268	249.702098
2933.568213	250.735664
2934.842488	244.290909
2936.115024	239.616084
2937.387356	235.441958
2938.656415	229.269231
2939.928339	222.791608
2941.198525	219.496503
2942.468507	219.312587
2943.738286	223.352448
2945.006328	222.180420
2946.272635	221.352448
2947.538739	219.083217
2948.806174	222.025874
2950.071873	224.013287
2951.337370	226.960140
2952.602665	228.548951
2953.864696	230.834965
2955.128056	225.067133
2956.391215	225.433566
2957.652641	227.293706
2958.915397	226.709790
2960.176422	228.844755
2961.435716	230.120979
2962.694809	229.278322
2963.953702	228.693007
2965.212395	228.477622
2966.470888	232.656643
2967.727652	229.302098
2968.984217	229.788811
2970.239053	226.624476
2971.495219	225.904895
2972.748129	227.403497
2974.002369	225.893007
2975.256410	230.749650
2976.508725	231.491608
2977.760842	229.253147
2979.011234	224.076923
2980.264481	222.044056
2981.512951	225.193706
2982.764275	223.304895
2984.012351	220.428671
2985.260229	223.941958
2986.507910	219.021678
2987.755395	217.737762
2989.001158	216.839860
2990.246724	219.261538
2991.493619	222.653846
2992.737268	225.999301
2993.982246	226.431469
2995.223981	219.731469
2996.468567	216.604895
2997.711434	210.610490
2998.951059	210.339860
3000.193536	212.316084
3001.432772	209.325874
3002.673336	208.439860
3003.912183	208.797203
3005.150836	210.864336
3006.387773	214.194406
3007.626037	218.295804
3008.862587	218.190909
3010.098943	214.999301
3011.335105	217.377622
3012.569553	222.288811
3013.803808	228.462238
3015.037870	228.444056
3016.270220	230.626573
3017.500858	228.237762
3018.734342	226.765035
3019.966115	221.414685
3021.196176	221.346154
3022.426046	219.423776
3023.654206	212.735664
3024.883693	209.358741
3026.111470	206.854545
3027.339056	205.734266
3028.567968	200.203497
3029.792138	194.314685
3031.019151	195.114685
3032.242941	197.951748
3033.468056	200.845455
3034.691465	203.051748
3035.914685	219.361538
3037.136199	219.299301
3038.360554	217.287413
3039.580174	211.501399
3040.801120	213.281119
3042.021876	213.011189
3043.240929	208.765734
3044.461308	202.843357
3045.678470	203.981119
3046.896957	205.731469
3048.113743	209.246853
3049.330340	212.988112
3050.546750	220.852448
3051.759946	213.452448
3052.975980	213.780420
3054.188802	206.139161
3055.404461	214.114685
3056.615397	210.802098
3057.827659	209.742657
3059.039733	201.249650
3060.251621	197.004895
3061.461811	191.165734
3062.671816	191.845455
3063.881634	191.531469
3065.089756	184.676923
3066.297692	178.651049
3067.503934	180.410490
3068.711500	182.335664
3069.917371	189.679021
3071.123057	193.155944
3072.328559	195.672727
3073.532367	196.597203
3074.737499	204.269930
3075.940938	213.662238
3077.142685	221.465734
3078.344249	227.662238
3079.545629	226.975524
3080.746825	224.694406
3081.946331	221.312587
3083.145653	216.858741
3084.346299	212.446853
3085.545256	208.100699
3086.741017	208.889510
3087.939608	214.436364
3089.135005	216.716783
3090.331726	217.230769
3091.525254	218.236364
3092.721610	215.516084
3093.916279	210.289510
3095.107758	205.737063
3096.303568	194.344755
3097.494685	185.823776
3098.687125	187.456643
3099.876376	188.101399
3101.068454	197.262937
3102.258848	199.442657
3103.446055	201.330769
3104.634586	201.313986
3105.824439	209.247552
3107.011107	210.052448
3108.197596	214.681119
3109.383905	216.030769
3110.571537	207.916084
3111.755986	205.504895
3112.938755	210.050350
3114.124348	211.794406
3115.308260	214.693007
3116.490494	212.100000
3117.672550	212.668531
3118.854427	210.211189
3120.036126	208.812587
3121.216148	208.536364
3122.394492	206.000699
3123.575658	201.199301
3124.753648	198.113986
3125.931461	197.462238
3127.109097	200.558042
3128.285058	203.767133
3129.460843	208.770629
3130.637948	210.991608
3131.813380	210.294406
3132.987138	211.993706
3134.159223	207.886014
3135.332629	207.638462
3136.505860	205.249650
3137.677418	197.663636
3138.850298	194.851748
3140.020010	192.424476
3141.191043	191.025874
3142.360405	187.625175
3143.528098	189.606993
3144.698606	190.215385
3145.864455	189.196503
3147.034614	192.854545
3148.200115	193.490210
3149.365443	193.363636
3150.530597	193.057343
3151.695578	189.769930
3152.861878	195.506993
3154.023525	201.326573
3155.186493	203.055245
3156.349287	204.459441
3157.511909	208.439161
3158.672866	209.166434
3159.833650	206.262238
3160.994263	202.996503
3162.153211	199.036364
3163.311987	195.627273
3164.470592	197.320979
3165.629025	196.014685
3166.787286	198.128671
3167.943885	195.058042
3169.098823	195.420280
3170.255080	199.092308
3171.409677	192.781119
3172.564102	187.592308
3173.716868	183.950350
3174.869464	183.395804
3176.021890	180.132867
3177.174145	188.560140
3178.326231	198.493007
3179.475170	198.718881
3180.626916	200.250350
3181.777005	199.691608
3182.925436	202.684615
3184.073699	196.159441
3185.221793	184.406993
3186.369717	178.029371
3187.515987	181.186014
3188.662088	177.894406
3189.806535	180.606993
3190.950813	187.065734
3192.094924	190.046853
3193.240353	191.948951
3194.382643	196.365035
3195.524765	203.651049
3196.666721	207.605594
3197.808509	208.500000
3198.950130	208.049650
3200.088615	209.847552
3201.228419	206.623077
3202.369539	201.817483
3203.507525	201.125175
3204.643862	192.834266
3205.780033	188.961538
3206.917522	187.929371
3208.053362	192.950350
3209.190518	196.386713
3210.323063	197.091608
3211.459888	202.141259
3212.592102	201.146853
3213.725634	199.029371
3214.859000	189.544056
3215.989239	189.790909
3217.122277	186.422378
3218.252187	185.704895
3219.383415	190.349650
3220.511517	189.480420
3221.642417	192.325175
3222.771672	189.471329
3223.899283	182.612587
3225.023773	181.950350
3226.152538	174.234965
3227.278181	168.175524
3228.403661	156.821678
3229.527500	159.309790
3230.654134	157.419580
3231.776169	165.890210
3232.899521	174.461538
3234.022711	177.308392
3235.145739	186.563636
3236.267127	194.276923
3237.388354	202.011888
3238.507942	204.265734
3239.627369	205.206993
3240.745159	204.166434
3241.865740	202.282517
3242.983208	205.954545
3244.100515	198.609091
3245.217661	198.363636
3246.333172	190.362937
3247.449998	184.393706
3248.563713	186.051049
3249.680219	188.444056
3250.795089	194.562238
3251.906851	191.706294
3253.018454	191.686713
3254.131372	194.076923
3255.244130	196.567133
3256.353782	190.561538
3257.464749	181.325175
3258.575557	177.055944
3259.684733	168.762937
3260.792278	164.948951
3261.901138	164.072727
3263.009839	164.820280
3264.115438	168.004196
3265.222352	169.358042
3266.327636	172.467133
3267.434234	182.427972
3268.537732	186.105594
3269.642544	185.190909
3270.747199	190.704895
3271.848756	195.711189
3272.950156	198.265035
3274.052870	193.030070
3275.155427	186.017483
3276.254889	184.015385
3277.357133	185.741958
3278.456283	187.286014
3279.553807	189.684615
3280.651176	194.437762
3281.751328	194.274825
3282.848386	193.820979
3283.945290	194.117483
3285.042038	194.337762
3286.134227	191.415385
3287.230666	183.039860
3288.325482	179.486014
3289.420143	183.279021
3290.513183	184.024476
3291.606069	186.238462
3292.697334	186.821678
3293.789912	185.741259
3294.880870	186.834965
3295.970208	181.488811
3297.059393	179.439161
3298.149890	177.183217
3299.237303	178.847552
3300.324564	177.013986
3301.413137	179.609790
3302.501557	181.066434
3303.585430	179.248252
3304.673545	180.542657
3305.758579	174.874126
3306.841997	168.460140
3307.926727	169.889510
3309.009841	167.897203
3310.094267	175.611189
3311.175615	178.500699
3312.258275	183.194406
3313.339321	187.318881
3314.420216	195.289510
3315.499498	198.546154
3316.578629	195.434965
3317.659072	195.744056
3318.736440	192.174126
3319.815120	187.553147
3320.892188	183.018182
3321.969106	177.578322
3323.044414	175.621678
3324.119572	171.558741
3325.196041	166.419580
3326.269439	170.654545
3327.342689	170.578322
3328.417250	173.851049
3329.490201	177.144755
3330.561545	185.419580
3331.634199	190.439161
3332.703786	194.836364
3333.774684	192.152448
3334.843975	193.323776
3335.914577	195.999301
3336.983572	195.968531
3338.050961	193.549650
3339.116745	187.931469
3340.186755	188.608392
3341.253702	188.318182
3342.317587	181.580420
3343.384240	172.485315
3344.449289	174.015385
3345.512734	173.866434
3346.576032	170.773427
3347.639185	175.878322
3348.702191	177.523776
3349.765050	177.448951
3350.826308	175.786014
3351.884509	174.081119
3352.946931	178.070629
3354.006296	174.275524
3355.065517	168.501399
3356.126046	166.758042
3357.182066	171.123077
3358.240851	169.327273
3359.295128	168.467832
3360.352169	171.774825
3361.407611	168.764336
3362.464362	171.545455
3363.519516	171.217483
3364.573072	173.219580
3365.625031	174.441958
3366.679752	173.778322
3367.731425	173.347552
3368.782953	175.756643
3369.835791	178.609790
3370.885581	176.421678
3371.936680	179.302098
3372.984732	179.732168
3374.035545	175.448951
3375.083312	173.692308
3376.130937	179.666434
3377.178420	176.734965
3378.224309	173.473427
3379.271508	170.770629
3380.315663	172.552448
3381.362577	173.268531
3382.407899	177.827273
3383.450181	178.989510
3384.492321	182.206294
3385.535770	177.527273
3386.579077	175.060839
3387.620794	174.341259
3388.662370	174.383217
3389.703806	164.711189
3390.743653	168.470629
3391.781911	166.569930
3392.821477	166.825874
3393.860903	169.098601
3394.898741	177.808392
3395.934992	180.588811
3396.971103	182.534965
3398.008522	182.729371
3399.042908	185.213986
3400.078602	184.647552
3401.114156	179.551748
3402.146678	178.890909
3403.181954	179.332168
3404.214199	172.594406
3405.246306	171.660839
3406.276829	175.979021
3407.308660	174.207692
3408.340352	170.990210
3409.369016	167.636364
3410.397542	161.664336
3411.427376	162.460140
3412.457072	163.097203
3413.483741	158.375524
3414.511718	160.788811
3415.536670	161.762238
3416.564372	161.790909
3417.589051	171.500000
3418.615036	174.173427
3419.639442	172.268531
3420.663710	170.314685
3421.686400	168.559441
3422.708955	166.176224
3423.732814	170.440559
3424.753654	170.295804
3425.774359	169.769830
3426.796369	168.673826
3427.815361	166.875624
3428.834218	164.243057
3429.854381	160.643956
3430.871526	155.946154
