-118.702670	89.600000
-116.033069	73.000000
-113.366404	70.000000
-110.700491	93.400000
-108.037511	74.600000
-105.373100	91.800000
-102.711620	89.000000
-100.048711	83.800000
-97.390908	82.400000
-94.731676	85.400000
-92.073192	88.800000
-89.417633	77.800000
-86.760644	83.000000
-84.108754	72.400000
-81.455434	81.400000
-78.805033	56.600000
-76.153204	83.800000
-73.506465	89.200000
-70.858296	72.200000
-68.210870	74.600000
-65.566359	59.000000
-62.920418	81.600000
-60.279559	100.200000
-57.637271	71.800000
-54.997892	95.200000
-52.357084	104.800000
-49.717015	69.600000
-47.082020	77.600000
-44.445595	88.800000
-41.812073	79.400000
-39.177123	98.600000
-36.547239	51.000000
-33.913761	69.400000
-31.285346	86.400000
-28.657665	80.000000
-26.028555	82.600000
-23.404503	80.400000
-20.776860	83.000000
-18.154272	94.600000
-15.532414	84.400000
-12.911287	116.000000
-10.290891	163.000000
-7.673382	309.800000
-5.054445	934.000000
-2.438394	2126.400000
0.176930	2308.200000
2.791525	1403.200000
5.403239	240.400000
8.016381	91.400000
10.624489	69.800000
13.236178	85.600000
15.842837	73.200000
18.450925	83.400000
21.058287	96.400000
23.660625	109.600000
26.266542	81.200000
28.867436	92.600000
31.469758	84.600000
34.067062	72.800000
36.667943	88.800000
39.263808	90.000000
41.861101	87.000000
44.457675	98.200000
47.049240	84.200000
49.642234	91.800000
52.232366	103.400000
54.823925	100.600000
57.412626	107.800000
60.002753	82.800000
62.587881	107.800000
65.174437	88.800000
67.760278	104.000000
70.343266	106.800000
72.927681	116.000000
75.504967	121.200000
78.085818	117.800000
80.663822	100.400000
83.241114	116.000000
85.819834	107.800000
88.393571	122.400000
90.968735	135.600000
93.541056	110.800000
96.112670	108.600000
98.681443	110.400000
101.251643	149.800000
103.819004	110.800000
106.387792	147.600000
108.953743	145.400000
111.516859	173.200000
114.083531	200.600000
116.640981	276.200000
119.204117	325.800000
121.762294	455.400000
124.324025	603.000000
126.880799	869.000000
129.438999	1279.400000
131.992247	1878.000000
134.544797	2757.600000
137.100897	3882.400000
139.652049	5093.000000
142.202504	6484.800000
144.752261	7446.600000
147.299199	8232.800000
149.845442	8682.800000
152.393110	8980.200000
154.940082	9075.800000
157.482118	9034.600000
160.023462	9042.000000
162.564112	9131.200000
165.106187	9105.000000
167.645452	9197.200000
170.181907	9110.000000
172.717672	9029.200000
175.254862	9130.000000
177.791361	9108.800000
180.325054	9134.600000
182.855943	9134.000000
185.386144	9095.000000
187.917771	9072.200000
190.446596	9097.600000
192.972622	9278.600000
195.497962	9146.400000
198.024727	9138.400000
200.548696	9091.600000
203.071979	9153.800000
205.594578	9151.400000
208.114384	9192.000000
210.633507	9096.800000
213.151947	9103.000000
215.671812	9186.000000
218.184674	9162.600000
220.701068	9258.600000
223.216781	9286.800000
225.727603	9258.600000
228.239850	9135.400000
230.749314	9370.200000
233.258100	9295.600000
235.766208	9319.600000
238.275740	9310.000000
240.780391	9263.600000
243.284366	9225.600000
245.789765	9230.600000
248.290289	9385.600000
250.794336	9296.000000
253.291413	9313.200000
255.792012	9266.400000
258.289840	9283.000000
260.786995	9284.400000
263.283478	9388.800000
265.775097	9352.000000
268.270236	9256.000000
270.762608	9358.600000
273.254310	9327.400000
275.743249	9232.200000
278.233611	9230.400000
280.721212	9196.600000
283.206053	9222.000000
285.694409	9264.800000
288.175825	9253.000000
290.660755	9239.200000
293.140839	9271.000000
295.624436	9145.800000
298.103191	9248.400000
300.583368	9298.000000
303.060794	9254.400000
305.537556	9303.000000
308.013654	9348.600000
310.487004	9312.600000
312.959693	9240.200000
315.431720	9251.800000
317.903085	9424.800000
320.371707	9346.800000
322.839669	9444.400000
325.309054	9312.000000
327.773616	9433.800000
330.241682	9354.800000
332.704927	9362.600000
335.167516	9374.200000
337.629448	9408.200000
340.090723	9459.800000
342.549263	9377.200000
345.009226	9363.800000
347.466457	9357.000000
349.923033	9418.600000
352.378955	9414.400000
354.832147	9326.000000
357.286762	9315.800000
359.736575	9302.400000
362.189884	9252.200000
364.638394	9245.600000
367.086254	9156.800000
369.535536	9269.000000
371.980023	9243.400000
374.425933	9238.800000
376.871194	9163.400000
379.313736	9170.600000
381.755630	9320.200000
384.196876	9234.200000
386.635408	9269.400000
389.075360	9228.600000
391.512599	9162.200000
393.947127	9123.000000
396.385141	9144.200000
398.818380	9259.800000
401.253039	9190.400000
403.682926	9229.200000
406.116298	9211.000000
408.544900	9252.400000
410.972860	9139.200000
413.402241	9225.400000
415.826858	9259.000000
418.252895	9249.600000
420.678293	9265.200000
423.103050	9215.400000
425.523048	9274.600000
427.944468	9292.600000
430.363192	9359.600000
432.783335	9309.400000
435.200784	9354.200000
437.619654	9414.200000
440.035829	9316.000000
442.447258	9344.600000
444.862163	9398.400000
447.274378	9293.400000
449.685960	9436.400000
452.096907	9416.200000
454.505167	9376.600000
456.912796	9288.400000
459.319792	9340.400000
461.726157	9353.800000
464.129839	9373.200000
466.532891	9262.600000
468.935313	9480.200000
471.337105	9376.600000
473.736219	9413.400000
476.136753	9401.000000
478.536658	9330.200000
480.931841	9374.800000
483.330489	9413.400000
485.724418	9431.000000
488.117721	9270.800000
490.510399	9296.000000
492.902451	9320.600000
495.295921	9225.800000
497.684679	9315.800000
500.070771	9287.200000
502.458283	9264.200000
504.845172	9275.600000
507.229396	9298.000000
509.615040	9368.600000
511.998022	9151.000000
514.378342	9234.600000
516.760083	9329.600000
519.139164	9297.200000
521.519663	9276.400000
523.897506	9272.800000
526.272692	9318.000000
528.647261	9317.400000
531.023249	9346.400000
533.396584	9288.800000
535.771336	9333.200000
538.141402	9338.200000
540.510854	9372.000000
542.881723	9366.400000
545.247911	9309.200000
547.615518	9437.200000
549.980479	9293.400000
552.344828	9409.600000
554.708563	9377.600000
557.073716	9514.400000
559.434197	9391.200000
561.796095	9471.400000
564.155354	9445.800000
566.511974	9417.200000
568.872040	9380.200000
571.225414	9363.600000
573.582233	9427.000000
575.936417	9400.600000
578.289992	9389.600000
580.642960	9354.400000
582.993295	9305.600000
585.345048	9437.800000
587.690124	9434.600000
590.040663	9174.400000
592.384530	9458.800000
594.733858	9338.600000
597.078537	9369.400000
599.420592	9309.000000
601.764064	9310.600000
604.104913	9455.800000
606.445159	9394.000000
608.782785	9439.200000
611.123846	9379.600000
613.460270	9414.400000
615.798110	9272.200000
618.133333	9306.200000
620.465939	9335.200000
622.799963	9370.000000
625.131372	9388.200000
627.462183	9352.200000
629.792396	9347.200000
632.122012	9376.400000
634.447004	9404.200000
636.777438	9392.400000
639.103251	9373.800000
641.426456	9436.200000
643.751078	9450.600000
646.073094	9372.600000
648.394516	9357.400000
650.713335	9432.000000
653.033571	9465.200000
655.353212	9415.000000
657.670254	9487.400000
659.986703	9390.800000
662.300554	9429.400000
664.615821	9461.400000
666.928491	9517.000000
669.242576	9354.400000
671.552061	9459.600000
673.862962	9519.600000
676.171270	9450.800000
678.478989	9479.600000
680.788124	9472.000000
683.092666	9479.200000
685.396622	9367.200000
687.699991	9341.800000
690.004776	9401.000000
692.304973	9469.800000
694.606586	9466.600000
696.907613	9351.000000
699.204059	9430.400000
701.501920	9448.800000
703.799197	9401.400000
706.095891	9332.600000
708.388009	9394.200000
710.683538	9346.200000
712.974493	9398.000000
715.266863	9448.600000
717.556657	9451.800000
719.845872	9395.200000
722.134507	9475.800000
724.420569	9357.200000
726.708045	9416.400000
728.992951	9434.200000
731.277279	9389.600000
733.559038	9475.400000
735.842211	9525.600000
738.124807	9559.600000
740.402847	9469.000000
742.682301	9619.200000
744.961180	9480.800000
747.239484	9542.200000
749.513237	9635.800000
751.788405	9636.400000
754.062999	9619.600000
756.335034	9579.600000
758.608482	9611.400000
760.879372	9511.000000
763.147706	9634.600000
765.417453	9695.400000
767.684645	9570.000000
769.951268	9553.000000
772.217320	9680.000000
774.480821	9600.800000
776.745734	9555.200000
779.010079	9653.000000
781.269893	9614.800000
783.531121	9622.000000
785.791781	9581.000000
788.049895	9555.800000
790.305464	9600.400000
792.564423	9573.000000
794.816884	9579.600000
797.074712	9666.200000
799.328021	9593.000000
801.578790	9603.400000
803.830971	9475.400000
806.080613	9598.800000
808.331667	9625.800000
810.578210	9545.200000
812.826166	9561.400000
815.071586	9637.400000
817.318419	9521.800000
819.564689	9563.800000
821.806456	9541.800000
824.051605	9577.400000
826.290283	9431.000000
828.532342	9430.400000
830.769903	9551.600000
833.008876	9604.600000
835.245322	9433.200000
837.483179	9555.600000
839.718511	9420.800000
841.951320	9562.600000
844.185539	9554.600000
846.417237	9467.600000
848.648380	9466.000000
850.878968	9497.600000
853.109002	9567.200000
855.338481	9551.200000
857.563480	9552.800000
859.791852	9611.200000
862.015746	9517.000000
864.241051	9523.800000
866.461880	9605.000000
868.686081	9550.200000
870.905809	9528.400000
873.126947	9547.400000
875.347535	9567.200000
877.565614	9692.400000
879.785102	9580.200000
882.000124	9541.400000
884.214598	9612.000000
886.428525	9539.400000
888.641904	9553.400000
890.854737	9430.400000
893.067022	9545.400000
895.276806	9502.600000
897.486044	9587.800000
899.694737	9595.200000
901.900930	9536.400000
904.108533	9506.200000
906.313639	9374.000000
908.518201	9621.000000
910.720268	9590.200000
912.923744	9572.400000
915.124726	9558.600000
917.325166	9636.200000
919.527015	9620.600000
921.722473	9553.400000
923.921289	9568.600000
926.115668	9524.600000
928.313404	9591.200000
930.506704	9552.000000
932.701413	9606.800000
934.893635	9593.400000
937.085320	9750.400000
939.276467	9627.800000
941.465131	9703.200000
943.653259	9743.000000
945.838905	9674.600000
948.027905	9799.200000
950.212480	9737.400000
952.396521	9768.200000
954.583913	9836.400000
956.763000	9731.200000
958.945438	9845.200000
961.127342	9834.600000
963.306771	9989.600000
965.483728	9922.600000
967.662093	9781.000000
969.841865	9968.200000
972.015288	9921.600000
974.192057	9915.800000
976.364419	9941.400000
978.538189	9969.200000
980.707555	9899.000000
982.880265	10045.200000
985.050510	10010.800000
987.220225	10082.400000
989.389412	10074.600000
991.554202	10028.000000
993.722334	10032.000000
995.886070	10058.200000
998.051214	10043.600000
1000.213898	10043.800000
1002.376057	10125.600000
1004.535759	10194.400000
1006.694936	10042.200000
1008.855520	10033.200000
1011.013649	10086.800000
1013.171255	10065.600000
1015.328337	10055.200000
1017.484895	9976.400000
1019.637074	10071.400000
1021.790660	9980.600000
1023.943724	10018.000000
1026.094339	10009.400000
1028.246360	10007.600000
1030.394009	9914.400000
1032.544989	10076.400000
1034.691598	10020.400000
1036.837688	10076.600000
1038.983260	10001.800000
1041.130237	10009.600000
1043.270925	10062.600000
1045.414942	9956.000000
1047.556520	9951.600000
1049.697580	9938.200000
1051.840046	9930.200000
1053.976231	10062.400000
1056.115743	9941.400000
1058.250899	10012.800000
1060.389380	10043.200000
1062.523508	9869.600000
1064.657122	9983.000000
1066.792140	9907.400000
1068.922810	10104.400000
1071.054884	10105.600000
1073.184528	10003.000000
1075.313661	9957.000000
1077.442283	9958.200000
1079.570393	10040.200000
1081.696077	10043.400000
1083.821251	9981.400000
1085.947829	10170.400000
1088.070069	10145.600000
1090.193714	10061.800000
1092.313024	10151.800000
1094.437563	9997.800000
1096.555858	10124.800000
1098.675556	10078.800000
1100.792837	10200.400000
1102.909610	10156.200000
1105.025877	10125.800000
1107.139729	10149.800000
1109.254984	10170.200000
1111.365917	10100.400000
1113.480162	10187.400000
1115.590086	10186.600000
1117.701413	10225.000000
1119.812237	10224.200000
1121.918744	10189.000000
1124.028560	10199.600000
1126.134062	10356.400000
1128.240968	10142.600000
1130.341658	10283.200000
1132.447560	10312.400000
1134.549153	10223.000000
1136.652148	10345.800000
1138.754644	10293.400000
1140.850932	10379.600000
1142.952427	10171.800000
1145.049620	10456.000000
1147.146314	10417.800000
1149.242511	10267.600000
1151.338209	10415.400000
1153.433410	10361.200000
1155.526214	10272.400000
1157.620420	10407.200000
1159.708435	10440.400000
1161.801648	10256.200000
1163.888674	10385.000000
1165.978998	10483.400000
1168.065034	10402.400000
1170.154368	10483.200000
1172.237521	10343.000000
1174.322077	10450.600000
1176.408034	10504.000000
1178.489709	10511.800000
1180.572785	10392.000000
1182.653476	10497.600000
1184.733676	10517.800000
1186.813384	10356.400000
1188.892601	10542.000000
1190.969435	10342.400000
1193.043889	10686.200000
1195.121635	10481.600000
1197.195110	10571.000000
1199.269987	10600.000000
1201.340596	10476.400000
1203.412606	10596.000000
1205.482240	10641.600000
1207.553275	10667.200000
1209.623822	10561.800000
1211.690109	10717.200000
1213.757796	10876.600000
1215.823110	10543.200000
1217.889825	10802.400000
1219.952284	10640.000000
1222.018029	10807.600000
1224.079519	10718.200000
1226.142410	10818.600000
1228.202932	10764.200000
1230.262972	10877.600000
1232.322528	10872.600000
1234.379720	10852.800000
1236.436429	11066.400000
1238.490776	10925.800000
1240.548403	10867.400000
1242.603668	11037.400000
1244.654693	10972.400000
1246.707117	10927.200000
1248.759061	11048.800000
1250.808647	11196.800000
1252.857754	11036.200000
1254.906382	11115.000000
1256.954532	11381.400000
1259.002204	11481.800000
1261.045645	11269.200000
1263.092362	11418.800000
1265.136725	11381.600000
1267.180611	11470.800000
1269.222147	11493.200000
1271.261333	11452.600000
1273.303792	11578.800000
1275.342028	11678.200000
1277.381663	11867.000000
1279.420822	11569.000000
1281.455764	12216.200000
1283.492104	11847.200000
1285.526100	12095.600000
1287.561493	12175.800000
1289.592673	12563.600000
1291.625252	12643.400000
1293.657359	12908.000000
1295.687125	13061.200000
1297.718288	13462.400000
1299.745244	13733.400000
1301.773599	14098.800000
1303.797748	14525.600000
1305.825163	15396.000000
1307.848375	15938.200000
1309.872985	17000.800000
1311.895260	18555.200000
1313.918933	20761.400000
1315.940273	23834.200000
1317.961146	29063.400000
1319.981551	36743.400000
1321.997763	52043.000000
1324.015372	64596.000000
1326.030653	64592.000000
1328.049193	64611.600000
1330.063543	64591.400000
1332.075568	64576.600000
1334.090851	64597.600000
1336.101948	64584.800000
1338.114441	64569.800000
1340.122752	57540.000000
1342.134319	34067.200000
1344.139847	25381.000000
1346.148630	20662.200000
1348.153235	18175.200000
1350.161094	16557.200000
1352.168491	15641.400000
1354.169857	14606.600000
1356.172619	13795.200000
1358.174922	13398.600000
1360.176765	13114.600000
1362.178148	12666.000000
1364.177217	12627.200000
1366.175828	12552.600000
1368.173981	12113.600000
1370.171676	12017.400000
1372.165208	11972.000000
1374.160135	11897.200000
1376.154606	11879.800000
1378.148620	11614.600000
1380.140327	11649.800000
1382.131578	11481.000000
1384.120524	11586.200000
1386.110865	11391.600000
1388.100752	11317.000000
1390.088334	11474.000000
1392.075463	11427.600000
1394.060290	11559.600000
1396.046512	11386.000000
1398.030433	11323.600000
1400.013902	11409.600000
1401.996919	11565.000000
1403.977638	11520.000000
1405.959751	11411.800000
1407.939567	11345.000000
1409.918933	11435.400000
1411.894160	11670.400000
1413.872625	11460.800000
1415.848797	11511.400000
1417.824519	11594.200000
1419.799792	11690.800000
1421.772775	11563.200000
1423.745309	11757.400000
1425.717395	11742.600000
1427.689034	11799.600000
1429.656544	11660.800000
1431.629128	11849.200000
1433.593906	11752.400000
1435.563757	11751.600000
1437.529483	11890.000000
1439.496603	11832.000000
1441.461439	11813.800000
1443.422155	11840.000000
1445.387939	11951.600000
1447.347768	11913.600000
1449.308991	11882.000000
1451.271605	11867.200000
1453.230105	11862.400000
1455.188163	11992.200000
1457.145779	11963.200000
1459.102952	11719.200000
1461.057850	11922.800000
1463.014141	11859.200000
1464.968157	11844.000000
1466.921732	11826.000000
1468.873035	11778.000000
1470.825730	11806.800000
1472.776154	11795.600000
1474.726139	11512.200000
1476.675685	11720.200000
1478.622962	11680.800000
1480.567971	11657.000000
1482.514373	11465.200000
1484.460337	11510.400000
1486.405864	11603.200000
1488.349125	11473.800000
1490.291950	11782.600000
1492.232512	11492.600000
1494.174466	11746.800000
1496.114157	11701.800000
1498.053413	11569.000000
1499.992235	11711.800000
1501.928797	11672.800000
1503.866750	11601.200000
1505.802444	11852.000000
1507.737705	11778.600000
1509.670709	11405.600000
1511.603281	11789.000000
1513.535421	11708.000000
1515.467129	11761.400000
1517.396584	11759.800000
1519.327429	11785.200000
1521.257842	11878.000000
1523.184183	11685.400000
1525.111914	11861.000000
1527.037396	11955.800000
1528.962448	11823.400000
1530.887070	11933.600000
1532.811264	11974.600000
1534.733211	12029.600000
1536.656548	11908.600000
1538.577638	12055.800000
1540.496484	11894.800000
1542.416720	12138.000000
1544.334712	11950.200000
1546.252278	11964.000000
1548.167603	11973.400000
1550.084317	11918.400000
1551.996975	12004.800000
1553.912838	11911.600000
1555.826462	11810.200000
1557.737847	11964.800000
1559.650622	11787.200000
1561.559347	12011.400000
1563.469461	11994.600000
1565.379152	11914.600000
1567.288420	11809.400000
1569.195453	11723.200000
1571.100254	11756.000000
1573.006444	11865.200000
1574.910403	11969.200000
1576.813940	11582.000000
1578.717057	11850.200000
1580.617944	11976.200000
1582.520220	11802.800000
1584.420267	11780.000000
1586.321703	11727.200000
1588.219104	11758.600000
1590.116088	11629.800000
1592.012653	11601.200000
1593.910605	11683.600000
1595.802723	11722.000000
1597.698035	11665.400000
1599.592928	11847.400000
1601.485601	11788.400000
1603.377856	11685.000000
1605.267892	11610.200000
1607.157512	11821.200000
1609.046717	11858.800000
1610.935506	11751.200000
1612.822079	11699.800000
1614.710039	11642.800000
1616.593982	11676.400000
1618.479312	11958.600000
1620.364229	11851.800000
1622.246932	11802.800000
1624.131022	11754.800000
1626.011100	11806.800000
1627.892566	11927.000000
1629.771820	11734.400000
1631.652462	11789.000000
1633.527299	11800.200000
1635.407117	11982.600000
1637.282930	11788.800000
1639.158334	11638.200000
1641.035123	11743.200000
1642.906115	11972.400000
1644.780290	11767.400000
1646.650465	11877.600000
1648.523821	11825.800000
1650.394974	11871.800000
1652.263925	11911.200000
1654.134262	11958.200000
1656.000606	11817.800000
1657.868335	11809.600000
1659.733865	11996.200000
1661.600781	11867.000000
1663.463707	11775.800000
1665.328020	11798.200000
1667.190136	11945.200000
1669.051847	11694.200000
1670.914943	11816.600000
1672.775845	11873.800000
1674.634554	11798.200000
1676.492859	11817.000000
1678.352548	11892.800000
1680.206471	11696.000000
1682.063567	11871.200000
1683.920259	11786.800000
1685.772976	11975.400000
1687.628864	11890.800000
1689.480778	11954.800000
1691.332291	12059.600000
1693.183403	11763.000000
1695.034114	11716.800000
1696.884425	11889.000000
1698.732552	11911.600000
1700.582063	11888.200000
1702.425824	11951.600000
1704.274536	11842.000000
1706.117501	11861.200000
1707.963632	12042.400000
1709.805802	11745.200000
1711.651137	11917.400000
1713.490730	11905.400000
1715.331709	11954.600000
1717.174070	12014.000000
1719.012474	11848.000000
1720.852262	12090.200000
1722.689875	11815.600000
1724.527093	11836.800000
1726.362137	12018.400000
1728.198564	11917.200000
1730.032818	11897.000000
1731.866679	11903.400000
1733.700145	12106.000000
1735.529665	11996.800000
1737.362345	12038.400000
1739.191079	11952.200000
1741.022972	11995.200000
1742.850922	11967.000000
1744.678480	11895.000000
1746.505647	12059.000000
1748.332422	12118.600000
1750.158805	12014.400000
1751.981252	12010.000000
1753.806854	12107.000000
1755.628520	12008.400000
1757.451569	12238.600000
1759.272457	12187.200000
1761.092955	12106.400000
1762.914835	12331.400000
1764.731015	12009.200000
1766.550347	12259.200000
1768.365752	12257.200000
1770.184308	12129.200000
1771.998938	12298.200000
1773.813181	12397.400000
1775.627038	12229.400000
1777.440508	12297.600000
1779.251824	12378.200000
1781.064522	12371.800000
1782.876834	12489.000000
1784.685227	12407.000000
1786.495002	12326.200000
1788.300861	12525.800000
1790.109867	12415.800000
1791.914959	12378.000000
1793.721432	12404.000000
1795.527520	12508.600000
1797.329699	12542.600000
1799.135021	12517.200000
1800.936435	12491.600000
1802.739230	12550.200000
1804.538118	12568.000000
1806.338387	12778.200000
1808.138274	12388.200000
1809.936019	12693.800000
1811.733384	12542.200000
1813.530368	12683.200000
1815.326972	12565.800000
1817.121437	12612.400000
1818.917282	12574.000000
1820.707471	12721.000000
1822.502557	12799.000000
1824.291990	12779.400000
1826.084561	12684.400000
1827.874996	12704.200000
1829.663296	12785.600000
1831.454732	12803.600000
1833.240523	12820.200000
1835.027692	12819.800000
1836.812731	12901.000000
1838.600902	12829.000000
1840.385188	12672.200000
1842.167345	12961.800000
1843.950881	13007.200000
1845.732288	13063.600000
1847.515073	12986.800000
1849.293979	13055.200000
1851.074263	13041.200000
1852.852422	13004.800000
1854.631958	13045.200000
1856.409370	13102.800000
1858.184659	13212.800000
1859.961325	13141.400000
1861.735869	13204.600000
1863.511790	13149.600000
1865.282092	13153.000000
1867.055521	13164.600000
1868.826830	13252.200000
1870.597768	13257.800000
1872.370084	13368.800000
1874.136786	13334.000000
1875.906613	13299.800000
1877.672577	13352.200000
1879.441665	13283.200000
1881.206891	13391.000000
1882.971749	13452.600000
1884.737983	13302.400000
1886.500359	13322.600000
1888.262368	13243.400000
1890.024010	13458.400000
1891.785284	13517.800000
1893.546192	13408.400000
1895.306732	13435.000000
1897.065164	13518.400000
1898.823229	13418.800000
1900.579187	13479.000000
1902.336521	13481.400000
1904.093490	13531.600000
1905.848352	13565.800000
1907.601109	13568.600000
1909.353503	13613.400000
1911.107273	13463.000000
1912.858939	13584.000000
1914.608502	13625.200000
1916.359442	13486.800000
1918.110018	13680.800000
1919.856756	13870.200000
1921.604869	13644.000000
1923.350883	13810.600000
1925.098273	13762.000000
1926.843564	13771.000000
1928.586758	13869.200000
1930.331328	13870.600000
1932.073801	13817.000000
1933.815914	13913.200000
1935.557668	13924.600000
1937.299061	14014.200000
1939.038361	14038.400000
1940.777302	14022.400000
1942.515884	14144.000000
1944.252375	14101.800000
1945.988507	14168.300000
1947.726015	14234.800000
1949.459700	14222.800000
1951.194760	14220.400000
1952.927731	14257.400000
1954.660346	14221.600000
1956.392604	14174.800000
1958.124506	14422.000000
1959.854323	14464.800000
1961.582054	14311.200000
1963.311160	14384.200000
1965.039910	14362.400000
1966.766577	14529.400000
1968.492890	14474.000000
1970.220577	14566.000000
1971.942727	14495.400000
1973.667978	14520.400000
1975.389422	14651.800000
1977.113966	14692.400000
1978.836431	14700.000000
1980.555092	14825.400000
1982.276852	14806.400000
1983.994811	14678.800000
1985.714142	14754.600000
1987.429674	14929.800000
1989.150026	14890.200000
1990.866580	14941.400000
1992.579337	14995.400000
1994.295190	14976.400000
1996.008971	14917.600000
1997.722402	15034.400000
1999.433762	15082.200000
2001.146494	15314.200000
2002.855435	15177.800000
2004.567470	15316.600000
2006.273995	15233.200000
2007.983613	15314.000000
2009.691163	15441.400000
2011.398366	15392.000000
2013.103503	15433.600000
2014.808293	15306.200000
2016.514456	15559.800000
2018.216835	15497.200000
2019.920587	15563.400000
2021.622276	15588.800000
2023.323619	15682.200000
2025.024618	15577.800000
2026.723555	15604.000000
2028.423864	15804.000000
2030.120397	15716.600000
2031.818302	15792.600000
2033.514149	15810.400000
2035.213081	15985.800000
2036.906527	15965.600000
2038.601344	15886.200000
2040.295818	15968.400000
2041.986525	15940.000000
2043.680314	16002.400000
2045.370338	16181.400000
2047.061731	15981.000000
2048.751072	16067.600000
2050.441784	15851.000000
2052.128732	15996.000000
2053.815340	15983.600000
2055.503319	15950.000000
2057.187538	15940.200000
2058.873127	15858.200000
2060.558377	16111.200000
2062.241579	15999.200000
2063.926151	15923.000000
2065.605259	15845.000000
2067.289154	15981.000000
2068.967587	15881.800000
2070.649098	15872.600000
2072.326857	15970.800000
2074.004280	16163.600000
2075.683072	16087.400000
2077.359821	16069.200000
2079.034529	16200.400000
2080.710607	16080.800000
2082.384643	16248.600000
2084.058345	16092.000000
2085.731711	16293.600000
2087.403038	16078.200000
2089.074031	16297.000000
2090.744690	16301.800000
2092.415015	16291.800000
2094.085006	16446.400000
2095.752960	16328.200000
2097.420582	16575.000000
2099.086170	16490.600000
2100.753126	16693.800000
2102.418049	16487.000000
2104.082640	16654.400000
2105.745199	16644.000000
2107.409126	16942.600000
2109.071022	16895.400000
2110.732587	17056.800000
2112.393822	16866.400000
2114.053027	16919.400000
2115.711903	17257.200000
2117.370448	16971.600000
2119.028664	17011.800000
2120.683157	17066.600000
2122.340714	17181.200000
2123.997941	17261.800000
2125.651448	17290.600000
2127.306322	17196.800000
2128.957477	17358.400000
2130.611695	17390.000000
2132.262195	17385.200000
2133.914063	17479.400000
2135.560522	17259.800000
2137.211735	17466.600000
2138.859236	17522.000000
2140.508103	17670.400000
2142.154951	17550.600000
2143.801474	17733.000000
2145.447671	17707.800000
2147.090159	17574.600000
2148.735706	17686.200000
2150.377546	17639.000000
2152.022443	17748.800000
2153.663635	17720.600000
2155.304503	17842.000000
2156.945048	17734.000000
2158.583580	17754.400000
2160.223478	17976.600000
2161.859676	17751.200000
2163.497240	17940.200000
2165.134482	17837.000000
2166.769714	18027.200000
2168.404624	18059.600000
2170.039213	18260.800000
2171.673481	18133.000000
2173.304055	18076.800000
2174.937681	18187.400000
2176.567614	18293.200000
2178.198914	18185.600000
2179.828208	18206.800000
2181.457183	18311.400000
2183.085838	18368.600000
2184.714174	18454.800000
2186.340507	18536.600000
2187.966522	18361.000000
2189.590536	18405.000000
2191.215915	18481.800000
2192.839293	18477.400000
2194.464036	18556.600000
2196.085098	18615.600000
2197.705843	18580.800000
2199.327952	18639.200000
2200.948064	18488.800000
2202.566180	18548.200000
2204.183980	18548.200000
2205.801464	18550.400000
2207.418634	18781.400000
2209.035487	18665.400000
2210.652026	18900.200000
2212.266571	18839.200000
2213.879125	18828.800000
2215.493042	19160.400000
2217.104968	19009.800000
2218.718257	19009.600000
2220.329555	19076.400000
2221.938865	19180.600000
2223.549537	19270.400000
2225.158221	19359.600000
2226.766593	19315.200000
2228.372978	19405.400000
2229.980725	19332.400000
2231.586487	19543.600000
2233.191937	19697.800000
2234.795402	19667.200000
2236.400230	19766.800000
2238.003074	19670.400000
2239.603935	19878.600000
2241.206159	19865.000000
2242.806401	20086.800000
2244.408005	20234.200000
2246.005956	20145.800000
2247.605270	20214.000000
2249.202604	20220.600000
2250.799630	20297.600000
2252.398017	20346.600000
2253.992757	20400.600000
2255.585519	20376.800000
2257.179644	20439.000000
2258.775130	20289.200000
2260.366971	20553.400000
2261.958506	20335.400000
2263.551402	20488.000000
2265.138990	20549.200000
2266.731273	20584.600000
2268.318249	20543.600000
2269.908254	20880.200000
2271.492954	20700.000000
2273.082348	20737.600000
2274.666439	20769.000000
2276.251892	20635.600000
2277.835376	20792.800000
2279.421885	20725.000000
2281.004761	20711.200000
2282.587334	20688.200000
2284.169603	20812.800000
2285.748242	20865.600000
2287.329906	20813.400000
2288.907941	20955.400000
2290.488999	20906.000000
2292.066430	20968.100000
2293.641898	21030.200000
2295.220388	20850.800000
2296.795254	21180.000000
2298.369819	21113.800000
2299.944083	21171.400000
2301.518047	21249.000000
2303.091711	21216.000000
2304.665075	21394.800000
2306.234820	21255.000000
2307.804266	21425.000000
2309.376730	21406.400000
2310.943920	21781.400000
2312.514127	21565.600000
2314.080721	21664.200000
2315.648673	21842.800000
2317.214671	21906.800000
2318.780371	21743.800000
2320.345773	21956.600000
2321.909222	21863.200000
2323.474030	22186.800000
2325.035229	22290.400000
2326.599443	22405.000000
2328.158396	22367.200000
2329.720362	22677.400000
2331.280378	22596.600000
2332.840098	22605.800000
2334.397870	22833.000000
2335.955346	22562.000000
2337.512528	22971.000000
2339.067762	22985.600000
2340.622702	23024.800000
2342.177349	23014.800000
2343.731702	23068.800000
2345.285761	23195.800000
2346.839527	23085.000000
2348.391348	23258.000000
2349.941226	23092.200000
2351.494113	23330.200000
2353.041756	23524.000000
2354.592407	23278.000000
2356.139468	23422.400000
2357.687886	23441.600000
2359.236013	23461.000000
2360.780551	23618.800000
2362.326447	23590.400000
2363.870404	23530.800000
2365.415719	23810.800000
2366.957449	23966.800000
2368.500537	23958.400000
2370.041688	24125.200000
2371.582550	24044.400000
2373.123123	24250.000000
2374.663407	24214.000000
2376.203402	24392.800000
2377.739818	24468.400000
2379.279236	24402.400000
2380.815077	24533.800000
2382.352275	24499.400000
2383.885897	24931.600000
2385.422519	24718.600000
2386.957211	24840.800000
2388.489972	25051.200000
2390.022448	24969.400000
2391.552995	25123.400000
2393.086540	25496.200000
2394.614874	25477.000000
2396.144564	25303.200000
2397.673969	25367.200000
2399.203089	25501.600000
2400.731923	25798.600000
2402.255553	25876.000000
2403.783818	26116.600000
2405.306880	26036.400000
2406.834577	26232.200000
2408.355434	26063.200000
2409.880923	26389.800000
2411.402853	26423.600000
2412.926137	26525.400000
2414.447501	26573.800000
2415.966945	26682.400000
2417.487744	26760.400000
2419.006624	26895.800000
2420.525223	26928.200000
2422.041903	26721.000000
2423.559939	27001.200000
2425.077693	27156.800000
2426.591895	27363.400000
2428.105818	27172.600000
2429.619460	27467.000000
2431.134456	27169.200000
2432.645905	27493.000000
2434.158707	27566.800000
2435.669597	27794.000000
2437.180208	27614.000000
2438.688907	27735.400000
2440.200592	27845.200000
2441.708734	27655.400000
2443.216598	28012.000000
2444.724183	28163.400000
2446.228229	28289.200000
2447.735259	28204.800000
2449.240381	28337.000000
2450.745226	28629.000000
2452.248164	28783.800000
2453.750825	28673.400000
2455.253211	28785.200000
2456.753690	28925.800000
2458.255524	28904.000000
2459.755452	29058.400000
2461.255105	29135.200000
2462.754483	29043.800000
2464.251958	29060.800000
2465.747531	29161.600000
2467.246084	29232.000000
2468.741109	29319.600000
2470.237486	29500.000000
2471.730337	29377.800000
2473.224541	29382.600000
2474.718471	29459.400000
2476.208877	29283.600000
2477.702261	29873.800000
2479.193747	29356.400000
2480.683336	29760.000000
2482.172653	29771.000000
2483.660074	29996.600000
2485.150471	30013.600000
2486.637350	29916.000000
2488.125580	29981.200000
2489.610293	30020.800000
2491.094736	29844.000000
2492.580531	30032.400000
2494.064434	30070.400000
2495.549687	29951.400000
2497.029807	29962.200000
2498.512899	30268.800000
2499.994102	30002.000000
2501.475035	30061.200000
2502.954078	30015.400000
2504.432854	30123.400000
2505.911361	29770.400000
2507.389599	30073.000000
2508.867570	29856.400000
2510.342035	29984.400000
2511.819470	29790.000000
2513.293400	29982.000000
2514.768682	29679.400000
2516.243696	29706.200000
2517.715209	29793.800000
2519.188073	29841.400000
2520.659054	29533.600000
2522.131385	29689.600000
2523.598602	29811.800000
2525.068786	29692.800000
2526.537089	29569.000000
2528.005126	29809.800000
2529.472899	29589.600000
2530.940407	29612.400000
2532.407651	29938.400000
2533.871402	29985.000000
2535.336503	30064.800000
2536.799727	30337.000000
2538.264300	30349.000000
2539.725385	30118.400000
2541.187819	30243.600000
2542.649990	30398.800000
2544.108674	30544.800000
2545.571931	30418.800000
2547.030091	30825.200000
2548.489601	30671.000000
2549.944016	30648.800000
2551.403002	30961.200000
2552.860116	30792.000000
2554.315358	30817.000000
2555.770340	30923.800000
2557.223452	31045.600000
2558.677913	30927.200000
2560.130505	31034.800000
2561.582837	31133.800000
2563.033301	31101.000000
2564.486722	31282.800000
2565.935060	31263.400000
2567.386353	31407.000000
2568.835780	31418.200000
2570.281736	31701.400000
2571.730646	31762.800000
2573.176085	31864.000000
2574.622873	32061.400000
2576.067797	31692.600000
2577.512464	32294.400000
2578.958478	32095.400000
2580.401025	32185.400000
2581.844920	32205.400000
2583.285350	32325.200000
2584.727128	32093.200000
2586.167046	32316.200000
2587.608311	32398.400000
2589.046114	32557.200000
2590.486867	32561.200000
2591.922558	32411.800000
2593.361197	32743.600000
2594.797980	32841.800000
2596.232907	33092.600000
2597.670781	32840.400000
2599.103598	33047.400000
2600.537762	33035.400000
2601.970071	33405.800000
2603.403728	33268.600000
2604.835530	33216.400000
2606.267080	33242.400000
2607.698376	33291.600000
2609.127821	33607.200000
2610.557013	33231.400000
2611.984354	33491.600000
2613.413042	33305.200000
2614.841477	33289.400000
2616.266466	33487.600000
2617.692800	33640.000000
2619.117287	33613.000000
2620.543118	33440.000000
2621.965507	33973.600000
2623.389240	33937.000000
2624.811128	33753.000000
2626.232765	33809.400000
2627.652558	33690.600000
2629.073696	33925.600000
2630.494584	33971.000000
2631.912033	33849.600000
2633.332422	34073.600000
2634.749374	34105.600000
2636.166078	34306.400000
2637.582533	34018.600000
2638.998740	34425.600000
2640.414699	34202.800000
2641.828817	34351.600000
2643.242687	34498.800000
2644.654718	34269.800000
2646.068094	34380.800000
2647.478040	34545.000000
2648.890922	34474.400000
2650.300375	34738.200000
2651.709582	34957.200000
2653.116953	34857.800000
2654.527258	35031.600000
2655.935727	34851.200000
2657.342362	35099.800000
2658.748750	34980.200000
2660.153306	35179.000000
2661.559205	35494.200000
2662.963270	35561.400000
2664.367092	35694.200000
2665.770669	35396.200000
2667.172415	36033.800000
2668.575504	35958.600000
2669.975175	35702.200000
2671.376190	35644.800000
2672.773789	35444.400000
2674.174317	35428.800000
2675.571431	35272.000000
2676.969888	35228.800000
2678.366517	35334.400000
2679.762905	35075.400000
2681.159050	35388.400000
2682.553369	35161.400000
2683.949031	35141.200000
2685.341284	35171.400000
2686.734879	35288.200000
2688.126650	35462.000000
2689.519764	35280.800000
2690.911053	35005.000000
2692.300521	35267.800000
2693.689748	35243.600000
2695.078735	35254.200000
2696.469065	35402.400000
2697.854411	35554.200000
2699.242680	35312.000000
2700.629129	35629.000000
2702.015339	35488.600000
2703.401310	35736.400000
2704.783883	35831.400000
2706.167798	35733.000000
2707.551474	35810.400000
2708.934913	36149.800000
2710.314956	35744.200000
2711.696341	36226.200000
2713.075910	36165.000000
2714.456821	36022.800000
2715.835917	36311.800000
2717.213199	36251.400000
2718.591822	36442.800000
2719.968631	36476.400000
2721.345205	36583.600000
2722.721543	36760.000000
2724.096069	36761.200000
2725.471936	36954.200000
2726.844416	36964.200000
2728.219813	36984.000000
2729.590249	36996.600000
2730.962025	37171.600000
2732.333568	37088.400000
2733.703302	37442.200000
2735.074376	37331.200000
2736.443643	37653.400000
2737.812676	37456.400000
2739.179903	37827.800000
2740.546896	37885.200000
2741.913657	37883.600000
2743.280185	37848.800000
2744.644909	38222.400000
2746.009400	38397.600000
2747.373659	38240.600000
2748.737687	38545.600000
2750.101482	38414.400000
2751.461905	38670.600000
2752.825237	38829.800000
2754.183627	38624.400000
2755.544927	38688.800000
2756.902857	38939.800000
2758.263695	38492.200000
2759.622733	38594.400000
2760.978403	38968.800000
2762.336982	38684.000000
2763.692193	39061.400000
2765.047175	38864.400000
2766.400360	39066.000000
2767.756452	39236.600000
2769.109180	39330.800000
2770.461679	39421.000000
2771.813951	39497.400000
2773.167560	39336.200000
2774.517808	39539.800000
2775.866263	39789.600000
2777.217622	39525.200000
2778.565622	39642.400000
2779.914961	39795.400000
2781.262507	39785.600000
2782.609827	39984.400000
2783.956919	40024.000000
2785.302221	39708.000000
2786.647297	40007.600000
2787.992147	39909.600000
2789.336771	39877.600000
2790.678043	39960.000000
2792.020652	40197.400000
2793.363037	40164.000000
2794.705196	40570.800000
2796.044006	40473.800000
2797.385716	40738.400000
2798.724077	40829.000000
2800.063776	40725.000000
2801.401689	40860.200000
2802.737818	40996.600000
2804.073724	41410.200000
2805.410967	41159.000000
2806.746425	41417.600000
2808.081661	41425.000000
2809.415115	41459.600000
2810.749905	41843.200000
2812.081354	42077.800000
2813.415699	42073.800000
2814.745146	41886.600000
2816.075930	42557.600000
2817.406492	42240.600000
2818.735275	42282.400000
2820.065395	42267.000000
2821.393736	42425.800000
2822.721855	42826.200000
2824.048198	42610.400000
2825.375876	42670.200000
2826.700222	42854.400000
2828.025904	42603.200000
2829.349810	42625.200000
2830.673496	42856.800000
2831.998518	42474.000000
2833.320211	42739.800000
2834.641685	42746.000000
2835.962939	42720.400000
2837.283975	42902.800000
2838.603239	42939.600000
2839.923838	43275.600000
2841.242665	42941.800000
2842.561274	42980.600000
2843.878113	42713.200000
2845.194734	42727.000000
2846.511138	42881.800000
2847.825772	42840.600000
2849.141741	43018.800000
2850.454391	43407.200000
2851.768375	43268.400000
2853.082143	43525.000000
2854.395694	43250.200000
2855.707479	43560.200000
2857.017497	43578.200000
2858.328850	43768.200000
2859.636888	43876.600000
2860.946260	43967.600000
2862.255417	44403.200000
2863.564359	44259.600000
2864.871538	44770.200000
2866.176953	44628.600000
2867.483703	44725.800000
2868.788691	44694.000000
2870.093464	44841.600000
2871.396477	44950.600000
2872.702370	44794.200000
2874.003409	45163.600000
2875.305781	44911.000000
2876.606395	45414.600000
2877.908341	45245.200000
2879.210075	45041.800000
2880.508505	45490.000000
2881.808268	45043.800000
2883.106274	45371.200000
2884.404068	45093.400000
2885.700105	45292.600000
2886.997476	45413.600000
2888.293092	45190.200000
2889.588496	45453.400000
2890.883689	45589.600000
2892.175585	45590.600000
2893.470356	45326.800000
2894.761832	45464.200000
2896.054640	45488.800000
2897.347238	45483.800000
2898.636541	45914.400000
2899.927178	45257.600000
2901.216063	45704.800000
2902.506280	45697.600000
2903.793206	45759.400000
2905.081464	46033.600000
2906.367973	45986.200000
2907.654273	45955.600000
2908.940365	46045.600000
2910.224709	45908.200000
2911.511925	46082.400000
2912.794314	46323.000000
2914.078035	46135.400000
2915.360009	46029.200000
2916.641777	46249.400000
2917.921799	46450.800000
2919.204691	46578.600000
2920.485838	46278.800000
2921.763703	46603.200000
2923.044437	46401.400000
2924.321890	46365.600000
2925.599138	46246.200000
2926.874643	46433.600000
2928.153016	46495.200000
2929.426575	46170.400000
2930.703001	46582.400000
2931.977685	46560.800000
2933.250630	46461.200000
2934.524906	46641.200000
2935.797441	46735.800000
2937.069773	46751.800000
2938.338832	46795.200000
2939.610756	46585.400000
2940.880942	47040.600000
2942.150924	46805.000000
2943.420703	46723.200000
2944.688746	46951.800000
2945.955052	46794.600000
2947.221156	46861.600000
2948.488591	47079.800000
2949.754290	47261.800000
2951.019788	47000.000000
2952.285083	47045.000000
2953.547113	46901.800000
2954.810473	47260.000000
2956.073632	46944.800000
2957.335058	47492.400000
2958.597815	47004.000000
2959.858839	47553.800000
2961.118133	47569.600000
2962.377226	47835.800000
2963.636120	47716.200000
2964.894812	47905.200000
2966.153305	47533.600000
2967.410069	47775.400000
2968.666634	47893.600000
2969.921470	47787.600000
2971.177636	47915.000000
2972.430547	48309.400000
2973.684786	48020.400000
2974.938827	48238.600000
2976.191142	48201.200000
2977.443259	48270.600000
2978.693651	48111.200000
2979.946898	48501.000000
2981.195368	48302.400000
2982.446693	48706.600000
2983.694768	48655.400000
2984.942646	48820.800000
2986.190328	48640.800000
2987.437812	48823.200000
2988.683575	48932.400000
2989.929141	48906.400000
2991.176036	49159.200000
2992.419686	49055.800000
2993.664663	49287.800000
2994.906398	49342.600000
2996.150984	49438.800000
2997.393851	49463.400000
2998.633477	49585.200000
2999.875953	49523.600000
3001.115189	49974.400000
3002.355753	49834.200000
3003.594600	49940.600000
3004.833253	49754.400000
3006.070190	50034.200000
3007.308455	50031.200000
3008.545004	50487.000000
3009.781360	50143.600000
3011.017522	50364.400000
3012.251970	50441.400000
3013.486225	50190.600000
3014.720287	50626.000000
3015.952637	50471.200000
3017.183275	50499.400000
3018.416759	50461.200000
3019.648532	50652.400000
3020.878593	50906.600000
3022.108463	50889.600000
3023.336623	50616.200000
3024.566110	50966.200000
3025.793887	50763.800000
3027.021473	51035.000000
3028.250385	51038.600000
3029.474555	50588.800000
3030.701568	50988.600000
3031.925358	51005.800000
3033.150473	51144.400000
3034.373883	51050.400000
3035.597102	51127.400000
3036.818616	51185.600000
3038.042971	50842.000000
3039.262591	51367.400000
3040.483537	51002.600000
3041.704293	51149.400000
3042.923347	51271.000000
3044.143725	51394.200000
3045.360887	51058.400000
3046.579374	51305.800000
3047.796160	51558.000000
3049.012757	51651.000000
3050.229167	51317.800000
3051.442363	51503.400000
3052.658397	51776.200000
3053.871219	51406.600000
3055.086878	51637.200000
3056.297814	51657.600000
3057.510076	51624.800000
3058.722150	51656.200000
3059.934038	51514.800000
3061.144229	51914.400000
3062.354233	51944.000000
3063.564051	51793.000000
3064.772173	51864.400000
3065.980110	51614.600000
3067.186351	51824.600000
3068.393917	52110.400000
3069.599788	51998.100000
3070.805474	51885.800000
3072.010976	52103.400000
3073.214784	51997.800000
3074.419916	52006.200000
3075.623355	52661.200000
3076.825102	52114.800000
3078.026666	52026.800000
3079.228046	52171.600000
3080.429242	51968.200000
3081.628748	52191.800000
3082.828071	52174.800000
3084.028717	51989.000000
3085.227673	52347.200000
3086.423434	52148.000000
3087.622025	52313.400000
3088.817422	51916.600000
3090.014143	52372.400000
3091.207671	52320.000000
3092.404027	52518.000000
3093.598696	52390.800000
3094.790175	52550.200000
3095.985986	52829.400000
3097.177102	52477.400000
3098.369542	52676.600000
3099.558793	52682.000000
3100.750871	52624.400000
3101.941265	52548.400000
3103.128473	53136.200000
3104.317003	52629.200000
3105.506856	52878.000000
3106.693524	52619.600000
3107.880013	52802.200000
3109.066323	52998.200000
3110.253954	52620.800000
3111.438403	52786.400000
3112.621173	52595.200000
3113.806765	52827.000000
3114.990678	52799.800000
3116.172911	53132.600000
3117.354967	52792.200000
3118.536844	53232.800000
3119.718543	53080.800000
3120.898565	53053.600000
3122.076910	53172.200000
3123.258075	53306.000000
3124.436065	53203.600000
3125.613878	53313.200000
3126.791514	52953.800000
3127.967475	53340.000000
3129.143260	53197.000000
3130.320365	53523.800000
3131.495797	53395.200000
3132.669555	53018.000000
3133.841640	53379.000000
3135.015046	53283.600000
3136.188277	53698.800000
3137.359836	53288.000000
3138.532715	53550.600000
3139.702427	53588.400000
3140.873460	53547.000000
3142.042822	53870.800000
3143.210515	53800.000000
3144.381023	53760.000000
3145.546872	53770.600000
3146.717031	53586.800000
3147.882532	53750.600000
3149.047860	53864.600000
3150.213014	53930.400000
3151.377995	53867.600000
3152.544295	53869.400000
3153.705942	53665.000000
3154.868910	53453.400000
3156.031705	53389.800000
3157.194326	53311.200000
3158.355283	52759.600000
3159.516068	52908.800000
3160.676680	52850.200000
3161.835628	52782.800000
3162.994405	52892.000000
3164.153009	53001.000000
3165.311442	52689.000000
3166.469703	53034.200000
3167.626303	53221.600000
3168.781241	53222.800000
3169.937498	52778.000000
3171.092094	53002.600000
3172.246520	53216.200000
3173.399285	53124.600000
3174.551881	53026.600000
3175.704307	53382.400000
3176.856562	53410.000000
3178.008648	53319.200000
3179.157587	53383.600000
3180.309333	53795.400000
3181.459422	53536.600000
3182.607853	53931.400000
3183.756116	53986.800000
3184.904210	54296.600000
3186.052135	54360.800000
3187.198404	54338.800000
3188.344505	54806.600000
3189.488952	54962.800000
3190.633230	54968.400000
3191.777341	54939.800000
3192.922770	54587.600000
3194.065060	55057.400000
3195.207182	54860.000000
3196.349138	55253.400000
3197.490926	54558.000000
3198.632547	54926.600000
3199.771033	55023.800000
3200.910836	54911.000000
3202.051956	54864.800000
3203.189943	55023.400000
3204.326279	54979.000000
3205.462451	55067.800000
3206.599939	54986.400000
3207.735779	54903.000000
3208.872936	55057.600000
3210.005480	54936.000000
3211.142305	55515.200000
3212.274520	55085.200000
3213.408051	55113.000000
3214.541417	54947.200000
3215.671657	55011.400000
3216.804694	54694.000000
3217.934605	54593.000000
3219.065832	54730.200000
3220.193934	54458.800000
3221.324834	54480.600000
3222.454089	54821.600000
3223.581701	54537.400000
3224.706190	54737.400000
3225.834955	55068.200000
3226.960598	54914.400000
3228.086078	54917.600000
3229.209917	54943.800000
3230.336551	55360.600000
3231.458587	55331.200000
3232.581939	55301.600000
3233.705128	55280.800000
3234.828156	55260.000000
3235.949544	55542.400000
3237.070771	55445.200000
3238.190359	55538.800000
3239.309786	55476.000000
3240.427576	55858.000000
3241.548157	55864.600000
3242.665625	56331.200000
3243.782932	56370.000000
3244.900079	56667.800000
3246.015589	56506.400000
3247.132415	57033.200000
3248.246130	56853.800000
3249.362636	57325.000000
3250.477506	57067.800000
3251.589268	57304.400000
3252.700871	57055.000000
3253.813789	57095.400000
3254.926547	57239.000000
3256.036199	57187.400000
3257.147166	57289.800000
3258.257974	57134.000000
3259.367150	57108.000000
3260.474695	57559.800000
3261.583555	57230.400000
3262.692256	57535.800000
3263.797855	57401.600000
3264.904769	57666.200000
3266.010053	57585.000000
3267.116651	58065.400000
3268.220149	57829.200000
3269.324961	58041.800000
3270.429616	57865.600000
3271.531173	58096.600000
3272.632573	58183.600000
3273.735287	58176.000000
3274.837845	57922.200000
3275.937306	58314.000000
3277.039551	58110.000000
3278.138700	57953.800000
3279.236224	58060.200000
3280.333594	58244.200000
3281.433745	58080.800000
3282.530804	58201.600000
3283.627707	58037.400000
3284.724455	58047.000000
3285.816644	57961.200000
3286.913083	57864.000000
3288.007899	57641.000000
3289.102560	58243.200000
3290.195600	57521.600000
3291.288486	58012.800000
3292.379751	57949.800000
3293.472329	57632.200000
3294.563287	57948.600000
3295.652625	57796.400000
3296.741810	57974.600000
3297.832307	57682.200000
3298.919721	57914.800000
3300.006981	58006.600000
3301.095554	57823.600000
3302.183974	58074.200000
3303.267848	57845.400000
3304.355963	58128.000000
3305.440996	58168.200000
3306.524414	58034.800000
3307.609144	57910.800000
3308.692258	58267.600000
3309.776684	58368.000000
3310.858033	58181.200000
3311.940693	58497.600000
3313.021738	57999.000000
3314.102633	58543.600000
3315.181915	58431.600000
3316.261046	58464.200000
3317.341489	58332.000000
3318.418857	58469.000000
3319.497537	58628.000000
3320.574605	58633.600000
3321.651523	58829.000000
3322.726831	58488.000000
3323.801989	58531.000000
3324.878458	58744.600000
3325.951857	58605.600000
3327.025106	58540.400000
3328.099667	58540.200000
3329.172619	58616.800000
3330.243962	58662.000000
3331.316616	58636.800000
3332.386203	58298.000000
3333.457101	58286.400000
3334.526393	58322.600000
3335.596994	58319.200000
3336.665989	58401.600000
3337.733379	58256.400000
3338.799163	58043.400000
3339.869173	58170.000000
3340.936120	58209.000000
3342.000005	58175.400000
3343.066657	58331.600000
3344.131706	57947.200000
3345.195151	58145.000000
3346.258450	58368.400000
3347.321602	58116.800000
3348.384608	58229.200000
3349.447468	58139.000000
3350.508725	58062.200000
3351.566926	58192.600000
3352.629348	58260.400000
3353.688714	58083.800000
3354.747934	58536.200000
3355.808463	58148.600000
3356.864484	58508.800000
3357.923268	58569.200000
3358.977545	58476.400000
3360.034586	58513.400000
3361.090028	58787.800000
3362.146780	58705.200000
3363.201933	58522.400000
3364.255489	58822.400000
3365.307448	58627.600000
3366.362170	58771.000000
3367.413842	58790.200000
3368.465370	58780.200000
3369.518208	58769.600000
3370.567998	58979.800000
3371.619097	58554.200000
3372.667149	58806.000000
3373.717962	58933.800000
3374.765729	59154.000000
3375.813354	58812.200000
3376.860837	58909.000000
3377.906727	59164.000000
3378.953925	58885.600000
3379.998080	58981.800000
3381.044995	58940.800000
3382.090317	58785.800000
3383.132598	58988.000000
3384.174738	59047.400000
3385.218187	58937.400000
3386.261494	58785.000000
3387.303211	58770.800000
3388.344788	59032.400000
3389.386223	58977.600000
3390.426070	59079.000000
3391.464328	58840.000000
3392.503894	59095.800000
3393.543320	59321.000000
3394.581158	59053.200000
3395.617409	58974.600000
3396.653520	59140.000000
3397.690939	59206.800000
3398.725325	58887.800000
3399.761019	59029.000000
3400.796573	58947.600000
3401.829095	59034.400000
3402.864371	59050.000000
3403.896617	58969.400000
3404.928723	59156.600000
3405.959247	59161.200000
3406.991077	59155.000000
3408.022769	58994.200000
3409.051433	59093.400000
3410.079960	58946.800000
3411.109793	59083.800000
3412.139489	59049.200000
3413.166159	59105.400000
3414.194135	59103.400000
3415.219087	58967.400000
3416.246790	59051.000000
3417.271468	59308.000000
3418.297453	59243.000000
3419.321859	59189.000000
3420.346128	59040.600000
3421.368818	59188.800000
3422.391372	59035.200000
3423.415232	59165.600000
3424.436072	59089.200000
3425.456776	58861.400000
3426.478786	59096.800000
3427.497778	58607.000000
3428.516635	58799.800000
3429.536798	58813.200000
3430.553944	59037.000000
