-118.077073	-2.146978
-115.407473	3.570330
-112.740808	6.880769
-110.074895	8.286613
-107.411914	8.290135
-104.747504	7.393606
-102.086024	6.099301
-99.423114	7.300699
-96.765312	8.341259
-94.106079	6.710490
-91.447596	3.783217
-88.792036	6.626573
-86.135048	5.995804
-83.483157	10.290909
-80.829837	9.057343
-78.179437	8.560140
-75.527607	8.657343
-72.880868	10.109790
-70.232699	13.449650
-67.585274	16.946154
-64.940762	17.310490
-62.294822	19.881818
-59.653963	19.439161
-57.011675	23.006993
-54.372295	23.967133
-51.731487	29.468531
-49.091419	28.780420
-46.456423	30.100699
-43.819999	34.458741
-41.186477	36.023077
-38.551527	41.373427
-35.921642	51.211888
-33.288165	56.353147
-30.659750	61.906993
-28.032069	65.295804
-25.402959	42.435664
-22.778906	-137.620280
-20.151264	-965.755245
-17.528675	-2980.982517
-14.906818	-3064.940559
-12.285691	2168.946154
-9.665294	12186.018881
-7.047786	20781.144056
-4.428848	26825.400000
-1.812797	30272.710490
0.802526	31117.351049
3.417122	29362.144755
6.028835	25029.406993
8.641977	18229.479021
11.250085	9419.413287
13.861775	466.441259
16.468434	-4226.644056
19.076521	-3399.716783
21.683884	-422.541259
24.286222	63.740559
26.892138	67.897902
29.493032	64.016084
32.095354	56.616084
34.692659	47.554545
37.293539	38.997203
39.889405	33.776923
42.486698	31.679720
45.083272	30.580420
47.674837	26.969231
50.267830	27.613287
52.857962	26.494406
55.449522	23.329371
58.038222	26.710490
60.628349	26.375524
63.213478	26.874126
65.800033	24.039860
68.385875	19.878322
70.968863	15.656643
73.553277	15.236364
76.130563	13.601399
78.711415	13.180420
81.289418	17.184615
83.866711	16.332867
86.445430	16.790210
89.019168	19.459441
91.594332	18.612587
94.166653	20.560839
96.738266	19.583916
99.307039	22.367832
101.877239	23.582517
104.444601	24.110490
107.013388	23.093706
109.579339	25.530070
112.142455	25.556643
114.709127	29.574825
117.266578	34.025874
119.829714	46.623776
122.387891	63.051748
124.949621	94.511888
127.506395	147.286713
130.064596	226.805594
132.617844	319.638462
135.170393	429.806993
137.726493	544.814685
140.277646	658.950350
142.828100	766.941958
145.377857	863.372028
147.924796	930.462238
150.471038	981.870629
153.018706	1001.239860
155.565678	1006.147552
158.107715	1007.095105
160.649058	1002.205594
163.189708	991.841259
165.731784	979.829371
168.271048	966.720979
170.807504	959.112587
173.343268	954.795804
175.880458	951.733566
178.416957	949.169930
180.950650	951.588811
183.481540	950.148951
186.011741	952.265035
188.543367	952.981818
191.072192	956.456643
193.598218	960.531469
196.123558	963.091608
198.650324	962.822378
201.174292	962.254545
203.697576	954.513986
206.220175	955.494406
208.739981	952.648951
211.259104	955.069231
213.777544	952.559441
216.297408	951.532867
218.810271	948.883217
221.326665	955.701399
223.842377	956.285315
226.353199	962.132168
228.865447	963.965734
231.374911	971.955944
233.883697	974.044056
236.391805	981.066434
238.901336	983.562937
241.405987	989.755944
243.909962	989.169930
246.415362	995.438462
248.915886	1003.152448
251.419933	1009.976224
253.917010	1011.979021
256.417609	1023.635664
258.915437	1028.112587
261.412592	1031.974825
263.909074	1038.446853
266.400693	1050.618881
268.895832	1052.566434
271.388205	1057.576923
273.879907	1062.281818
276.368845	1070.776224
278.859208	1078.581119
281.346808	1081.094406
283.831649	1082.126573
286.320005	1086.411189
288.801421	1083.013287
291.286351	1087.494406
293.766436	1091.055245
296.250033	1098.430070
298.728787	1095.891608
301.208965	1100.962937
303.686390	1105.314685
306.163152	1122.812587
308.639251	1163.636364
311.112601	1233.200000
313.585289	1313.166434
316.057316	1389.069231
318.528682	1442.774126
320.997304	1471.659441
323.465266	1474.158741
325.934650	1457.420280
328.399212	1414.258042
330.867278	1356.272028
333.330524	1290.109790
335.793112	1241.425874
338.255044	1214.900699
340.716319	1214.566434
343.174860	1222.621678
345.634823	1227.035664
348.092053	1220.931469
350.548629	1223.228671
353.004551	1225.971329
355.457744	1224.259441
357.912358	1225.292308
360.362171	1226.405594
362.815480	1226.611189
365.263991	1225.417483
367.711851	1223.028671
370.161132	1225.313287
372.605620	1226.751049
375.051530	1221.577622
377.496791	1216.783916
379.939332	1223.259441
382.381226	1218.411888
384.822473	1217.869231
387.261004	1218.774126
389.700957	1216.225874
392.138196	1213.402797
394.572723	1211.078322
397.010738	1216.038462
399.443976	1218.938462
401.878636	1220.918182
404.308522	1218.751748
406.741894	1218.955944
409.170496	1222.110490
411.598457	1221.037762
414.027838	1221.885315
416.452454	1219.790210
418.878492	1219.481119
421.303889	1217.109091
423.728646	1226.367133
426.148645	1231.987413
428.570065	1235.288112
430.988788	1238.457343
433.408932	1236.215385
435.826381	1233.113287
438.245250	1229.830070
440.661426	1233.193706
443.072855	1232.497203
445.487760	1229.751049
447.899975	1229.302098
450.311556	1224.368531
452.722503	1225.576923
455.130764	1218.167832
457.538392	1214.251049
459.945389	1208.251748
462.351753	1198.605594
464.755435	1185.360839
467.158487	1172.240559
469.560909	1167.508392
471.962701	1160.711189
474.361816	1159.244056
476.762350	1159.285315
479.162255	1160.469231
481.557437	1168.686014
483.956086	1169.639161
486.350015	1172.300000
488.743318	1165.277622
491.135995	1146.412587
493.528047	1114.882517
495.921517	1072.225175
498.310276	1027.566434
500.696368	983.573427
503.083879	939.319580
505.470768	895.586014
507.854993	856.389510
510.240637	824.076224
512.623618	787.791608
515.003939	765.137762
517.385679	747.934266
519.764760	729.817483
522.145260	713.709091
524.523102	696.405594
526.898289	687.135664
529.272858	678.302098
531.648846	671.590909
534.022180	661.997902
536.396932	651.762937
538.766999	643.256643
541.136450	632.743357
543.507319	629.336364
545.873508	625.890909
548.241115	620.781818
550.606076	614.336364
552.970424	608.894406
555.334160	605.372028
557.699312	598.958741
560.059793	592.415385
562.421692	586.056643
564.780950	579.853846
567.137571	577.964336
569.497636	572.683916
571.851011	570.099301
574.207830	562.111888
576.562013	558.441259
578.915589	551.997203
581.268556	551.100000
583.618892	544.806993
585.970644	540.653147
588.315720	541.202797
590.666260	543.182517
593.010126	543.232867
595.359454	549.438462
597.704134	550.088112
600.046188	552.206993
602.389660	547.281818
604.730509	543.616783
607.070756	536.441259
609.408382	530.723776
611.749443	519.843357
614.085866	512.647552
616.423706	507.983916
618.758929	503.155245
621.091536	499.753846
623.425559	496.805594
625.756969	494.559441
628.087780	492.620979
630.417993	489.176923
632.747608	486.654545
635.072601	481.015385
637.403035	477.235664
639.728847	471.348252
642.052053	467.763636
644.376674	463.297902
646.698690	462.962238
649.020113	457.373427
651.338932	452.471329
653.659167	450.025874
655.978809	446.411888
658.295850	442.808392
660.612299	441.734965
662.926150	441.063636
665.241417	436.774825
667.554087	432.589510
669.868172	431.883217
672.177657	428.778322
674.488558	430.027972
676.796866	427.260839
679.104586	423.444056
681.413721	419.419580
683.718263	414.796503
686.022218	410.571329
688.325588	408.705594
690.630372	408.087413
692.930570	402.467832
695.232182	401.026573
697.533210	402.404895
699.829655	401.218881
702.127516	402.546154
704.424793	403.476923
706.721487	398.344056
709.013605	395.672028
711.309134	393.178322
713.600090	389.044056
715.892460	387.631469
718.182254	390.652448
720.471468	393.694406
722.760103	395.914685
725.046166	402.223776
727.333642	404.397902
729.618547	408.886014
731.902875	416.494406
734.184634	421.518182
736.467807	424.086014
738.750403	422.780420
741.028444	422.625874
743.307898	419.228671
745.586777	417.762238
747.865080	416.939161
750.138834	412.109790
752.414002	413.648951
754.688596	408.507692
756.960630	409.423776
759.234078	414.084615
761.504968	417.798601
763.773302	421.583217
766.043049	425.702797
768.310242	434.020280
770.576864	435.911189
772.842916	444.018182
775.106417	450.910490
777.371331	454.800699
779.635675	457.993007
781.895490	452.300699
784.156717	457.997902
786.417377	460.341958
788.675491	459.492308
790.931060	455.599301
793.190020	450.220280
795.442481	449.814685
797.700309	449.211888
799.953617	447.964336
802.204386	450.093007
804.456567	446.089510
806.706210	445.486713
808.957264	439.441958
811.203807	441.343357
813.451762	448.588112
815.697183	438.757343
817.944015	436.537063
820.190286	436.805594
822.432053	439.005594
824.677202	435.076923
826.915879	431.872028
829.157938	428.339161
831.395499	420.048252
833.634472	415.021678
835.870918	404.349650
838.108775	401.922378
840.344107	396.414685
842.576916	392.456643
844.811136	398.804196
847.042834	392.672028
849.273976	388.129371
851.504565	387.192308
853.734598	387.485315
855.964078	385.611189
858.189076	383.016783
860.417449	374.296503
862.641343	369.868531
864.866647	371.875524
867.087476	364.437762
869.311677	377.241958
871.531405	375.714685
873.752544	379.112587
875.973132	389.833566
878.191210	398.586014
880.410698	397.555245
882.625720	399.202098
884.840195	389.186014
887.054121	380.537762
889.267501	374.603497
891.480333	377.153846
893.692619	372.377622
895.902402	378.437063
898.111640	365.623077
900.320333	377.742657
902.526527	374.393007
904.734130	367.530070
906.939235	370.411189
909.143797	377.533566
911.345864	370.522378
913.549340	373.209091
915.750322	378.112587
917.950763	390.076224
920.152611	387.649650
922.348069	389.962238
924.546886	378.252448
926.741264	392.369930
928.939000	373.537063
931.132300	367.145455
933.327009	384.974126
935.519232	389.457343
937.710917	392.372727
939.902064	409.743357
942.090728	427.626573
944.278855	427.392308
946.464502	430.201399
948.653501	438.313986
950.838077	445.320280
953.022118	447.043357
955.209509	440.941958
957.388596	450.586014
959.571034	461.212587
961.752938	466.323077
963.932368	482.818881
966.109324	510.039860
968.287689	521.204895
970.467461	517.206993
972.640884	523.962937
974.817653	525.634266
976.990015	543.667832
979.163785	538.692308
981.333151	542.066434
983.505861	529.990909
985.676106	555.215385
987.845822	571.133566
990.015009	564.596503
992.179799	572.676224
994.347930	570.050350
996.511667	586.798601
998.676810	577.216783
1000.839495	563.811888
1003.001653	555.906993
1005.161355	550.474825
1007.320533	534.465035
1009.481117	526.924476
1011.639246	565.827972
1013.796851	556.671329
1015.953933	561.453147
1018.110492	624.769231
1020.262671	650.490210
1022.416256	691.017483
1024.569320	669.692308
1026.719936	651.931469
1028.871957	620.789510
1031.019605	579.568531
1033.170585	522.183916
1035.317194	461.158741
1037.463285	426.571329
1039.608856	355.177622
1041.755833	323.674126
1043.896521	331.152448
1046.040539	303.840559
1048.182116	319.109091
1050.323177	309.816783
1052.465642	313.804196
1054.601828	320.237063
1056.741340	313.455944
1058.876496	324.275524
1061.014977	320.194406
1063.149104	336.646853
1065.282718	306.494406
1067.417737	315.023776
1069.548406	326.137063
1071.680480	334.876224
1073.810125	360.958042
1075.939258	392.932168
1078.067879	431.945455
1080.195989	466.306294
1082.321673	508.276224
1084.446847	530.065035
1086.573425	542.802797
1088.695666	558.580420
1090.819310	575.489510
1092.938621	586.400699
1095.063160	597.046853
1097.181454	598.561538
1099.301153	614.733566
1101.418433	629.913287
1103.535207	623.374126
1105.651474	606.339161
1107.765326	599.423776
1109.880581	573.977622
1111.991513	549.027972
1114.105758	559.490210
1116.215682	570.668531
1118.327010	560.799301
1120.437833	578.779720
1122.544340	559.779021
1124.654157	565.865734
1126.759659	551.463636
1128.866564	540.269231
1130.967254	510.204196
1133.073156	496.410490
1135.174749	516.051748
1137.277745	507.380420
1139.380240	516.485315
1141.476528	517.662937
1143.578024	514.630769
1145.675216	511.385315
1147.771911	498.953846
1149.868107	499.291608
1151.963806	508.244056
1154.059006	492.256643
1156.151811	466.425175
1158.246017	473.097902
1160.334032	481.966434
1162.427245	470.340559
1164.514270	460.885315
1166.604594	469.863636
1168.690631	459.109790
1170.779965	443.030769
1172.863118	435.000699
1174.947673	431.209790
1177.033630	430.059441
1179.115305	409.849650
1181.198382	419.420979
1183.279073	427.876224
1185.359272	429.984615
1187.438980	429.146154
1189.518197	432.644056
1191.595032	442.037762
1193.669486	429.771329
1195.747231	414.781818
1197.820707	413.017483
1199.895583	417.808392
1201.966192	405.639161
1204.038203	406.633566
1206.107837	415.015385
1208.178872	415.258741
1210.249419	414.877622
1212.315705	423.111888
1214.383392	440.188112
1216.448707	454.953147
1218.515422	452.403497
1220.577881	453.261538
1222.643625	454.874126
1224.705116	450.206294
1226.768006	437.477622
1228.828529	414.136364
1230.888568	396.924476
1232.948125	376.697902
1235.005316	363.501399
1237.062026	368.302797
1239.116373	368.620280
1241.174000	383.846154
1243.229265	373.984615
1245.280289	375.504895
1247.332713	372.442657
1249.384657	378.875524
1251.434243	371.308392
1253.483350	350.041259
1255.531979	344.499301
1257.580129	324.189510
1259.627800	333.594406
1261.671242	342.923776
1263.717958	338.981818
1265.762321	350.461538
1267.806208	346.202797
1269.847743	359.137762
1271.886929	359.050350
1273.929388	374.206993
1275.967624	365.594406
1278.007259	364.248951
1280.046419	357.446853
1282.081360	342.530070
1284.117700	341.216783
1286.151696	341.307692
1288.187090	333.613986
1290.218270	339.190210
1292.250848	334.468531
1294.282955	339.203497
1296.312721	348.781818
1298.343885	366.852448
1300.370841	362.670629
1302.399195	370.407692
1304.423345	363.011189
1306.450759	363.432168
1308.473971	359.237762
1310.498581	373.511189
1312.520857	368.921678
1314.544530	373.772028
1316.565870	362.969930
1318.586742	365.620280
1320.607147	362.921678
1322.623359	367.758741
1324.640968	349.563636
1326.656249	333.720979
1328.674789	319.017483
1330.689140	310.560839
1332.701165	298.494406
1334.716447	305.544755
1336.727544	307.613287
1338.740038	327.068531
1340.748349	331.677622
1342.759916	348.394406
1344.765443	351.318182
1346.774226	378.309091
1348.778831	374.311888
1350.786690	364.283916
1352.794087	357.267133
1354.795453	347.591608
1356.798216	347.241259
1358.800518	347.820280
1360.802361	341.526573
1362.803744	339.283916
1364.802814	343.518182
1366.801425	351.618881
1368.799578	355.016783
1370.797272	367.558042
1372.790804	360.976923
1374.785732	345.200699
1376.780202	352.336364
1378.774217	354.595105
1380.765923	357.682517
1382.757175	352.047552
1384.746121	353.290210
1386.736462	352.581818
1388.726348	356.923077
1390.713931	357.606993
1392.701059	363.955944
1394.685886	347.304895
1396.672108	335.442657
1398.656030	317.990909
1400.639499	316.843357
1402.622515	308.362238
1404.603234	304.216783
1406.585347	300.770629
1408.565164	301.353147
1410.544529	303.804895
1412.519756	311.697203
1414.498222	327.039161
1416.474393	341.006294
1418.450116	333.745455
1420.425389	326.237762
1422.398371	319.809091
1424.370905	327.078322
1426.342992	330.169231
1428.314630	326.962937
1430.282140	323.100000
1432.254724	328.811888
1434.219503	337.169231
1436.189353	340.142657
1438.155080	349.484615
1440.122199	353.046154
1442.087035	338.235664
1444.047751	330.255245
1446.013536	331.492308
1447.973365	333.148252
1449.934587	337.858042
1451.897202	336.521678
1453.855702	344.278322
1455.813759	350.990210
1457.771375	351.854545
1459.728549	354.790909
1461.683447	372.906294
1463.639737	378.260839
1465.593753	364.820280
1467.547329	375.466434
1469.498632	383.595105
1471.451327	389.526573
1473.401751	389.213986
1475.351735	367.558042
1477.301281	367.584615
1479.248558	372.616783
1481.193568	375.172727
1483.139969	378.918182
1485.085933	396.102098
1487.031460	394.911189
1488.974722	394.789510
1490.917547	407.109091
1492.858109	410.560140
1494.800062	401.838462
1496.739753	393.894406
1498.679010	400.069930
1500.617831	414.497203
1502.554393	437.890909
1504.492346	442.560140
1506.428040	447.630769
1508.363301	443.865035
1510.296306	426.728671
1512.228878	422.003497
1514.161018	404.217483
1516.092726	395.191608
1518.022180	386.869930
1519.953025	386.016783
1521.883438	409.774126
1523.809779	421.408392
1525.737511	443.216783
1527.662992	458.816084
1529.588044	464.083217
1531.512667	470.537762
1533.436861	481.865035
1535.358807	496.245455
1537.282144	511.150350
1539.203235	515.376224
1541.122081	520.138462
1543.042316	510.137762
1544.960309	523.850350
1546.877875	545.274126
1548.793199	586.265734
1550.709913	628.479720
1552.622572	656.650350
1554.538435	709.254545
1556.452058	771.705594
1558.363444	844.810490
1560.276218	903.429371
1562.184943	990.048951
1564.095058	1120.504895
1566.004748	1296.760140
1567.914016	1597.220280
1569.821050	2015.185315
1571.725851	2550.806993
1573.632041	3135.309091
1575.535999	3685.769930
1577.439537	4137.221678
1579.342653	4423.396503
1581.243540	4483.780420
1583.145816	4286.075524
1585.045864	3921.532168
1586.947299	3421.232867
1588.844701	2857.883217
1590.741684	2292.176224
1592.638249	1814.536364
1594.536202	1457.286014
1596.428320	1217.597902
1598.323631	1036.061538
1600.218525	920.977622
1602.111197	850.311189
1604.003453	776.381818
1605.893488	714.693706
1607.783109	695.100699
1609.672313	684.109091
1611.561103	640.932867
1613.447675	586.083916
1615.335635	546.606993
1617.219578	526.034266
1619.104909	527.549650
1620.989825	511.239161
1622.872528	528.476923
1624.756618	516.966434
1626.636697	484.912587
1628.518162	486.994406
1630.397417	489.851748
1632.278058	459.283916
1634.152895	422.511189
1636.032714	401.543357
1637.908527	382.759441
1639.783930	387.260140
1641.660719	390.602797
1643.531712	388.160140
1645.405886	387.951748
1647.276062	371.221678
1649.149418	357.745455
1651.020571	386.771329
1652.889522	408.000699
1654.759859	417.694406
1656.626202	420.341958
1658.493931	406.503497
1660.359461	401.106993
1662.226377	380.876224
1664.089304	373.356643
1665.953616	353.327972
1667.815732	332.286713
1669.677444	326.445455
1671.540540	324.814685
1673.401442	309.995804
1675.260150	315.815385
1677.118455	331.395804
1678.978145	328.656643
1680.832068	320.827972
1682.689163	334.362238
1684.545856	347.920280
1686.398573	365.879720
1688.254460	376.779021
1690.106374	396.082517
1691.957887	394.404895
1693.808999	386.309790
1695.659711	345.499301
1697.510022	353.452448
1699.358148	356.016783
1701.207659	371.918182
1703.051421	380.472028
1704.900132	385.852448
1706.743098	420.884615
1708.589229	425.135664
1710.431399	423.611189
1712.276733	431.583916
1714.116327	391.476224
1715.957305	375.830769
1717.799666	342.987413
1719.638071	321.240559
1721.477859	305.165734
1723.315472	308.992308
1725.152689	278.475524
1726.987733	275.569930
1728.824160	282.481818
1730.658415	298.248252
1732.492275	290.972028
1734.325742	295.365035
1736.155262	262.610490
1737.987941	287.767133
1739.816676	302.293706
1741.648568	323.956643
1743.476519	339.693007
1745.304077	352.941259
1747.131243	323.480420
1748.958018	340.632168
1750.784402	335.116084
1752.606848	366.845455
1754.432450	368.307692
1756.254117	374.346154
1758.077166	363.893706
1759.898053	359.976224
1761.718552	363.290909
1763.540432	370.699301
1765.356612	370.722378
1767.175944	347.898601
1768.991349	307.032867
1770.809904	308.383217
1772.624534	310.366434
1774.438778	342.332867
1776.252634	348.940559
1778.066104	361.751049
1779.877421	372.421678
1781.690119	377.079720
1783.502430	398.733566
1785.310824	417.866434
1787.120598	406.067133
1788.926458	416.044755
1790.735463	424.325175
1792.540555	421.872028
1794.347028	447.754545
1796.153117	456.499301
1797.955296	434.925874
1799.760618	431.900000
1801.562032	413.278322
1803.364826	401.555944
1805.163714	381.907692
1806.963983	364.685315
1808.763870	366.489510
1810.561616	380.662937
1812.358980	357.643357
1814.155965	342.142657
1815.952569	348.390210
1817.747034	309.379720
1819.542878	294.511888
1821.333068	278.453147
1823.128153	295.177622
1824.917587	321.558741
1826.710157	349.974126
1828.500592	365.966434
1830.288893	399.167133
1832.080329	417.160839
1833.866119	444.325874
1835.653289	435.559441
1837.438327	414.323077
1839.226499	357.266434
1841.010785	352.926573
1842.792942	341.763636
1844.576477	345.762238
1846.357884	337.846853
1848.140670	344.841958
1849.919575	319.325175
1851.699860	333.648252
1853.478018	372.937762
1855.257555	403.888811
1857.034967	382.751049
1858.810255	377.653846
1860.586922	371.695804
1862.361465	373.260140
1864.137387	351.165035
1865.907688	323.703497
1867.681117	328.410490
1869.452426	327.379720
1871.223365	309.243357
1872.995680	314.913986
1874.762382	330.881119
1876.532210	346.441259
1878.298174	331.469930
1880.067262	350.469930
1881.832488	354.483217
1883.597345	340.220979
1885.363580	325.097203
1887.125956	318.100000
1888.887965	347.195804
1890.649606	351.473427
1892.410881	364.662937
1894.171788	378.076224
1895.932329	382.106294
1897.690760	382.904196
1899.448826	384.313986
1901.204783	382.576923
1902.962117	353.186014
1904.719086	342.465734
1906.473949	337.465734
1908.226706	336.497902
1909.979100	356.069231
1911.732869	368.143357
1913.484535	394.973427
1915.234099	400.563636
1916.985038	410.370629
1918.735615	403.130769
1920.482352	392.364336
1922.230466	369.343357
1923.976480	354.432168
1925.723870	333.691608
1927.469161	332.652448
1929.212355	328.700000
1930.956924	329.474126
1932.699398	340.899301
1934.441511	350.409790
1936.183264	357.953497
1937.924658	373.918182
1939.663957	351.325524
1941.402898	356.125874
1943.141481	365.468182
1944.877971	371.461538
1946.614104	358.021329
1948.351611	374.409790
1950.085296	381.119930
1951.820356	378.600699
1953.553328	379.312937
1955.285942	375.566434
1957.018201	389.202448
1958.750103	378.034965
1960.479919	374.398601
1962.207650	383.622378
1963.936756	378.479021
1965.665507	380.161538
1967.392174	371.620979
1969.118487	381.278322
1970.846173	381.188811
1972.568323	371.474126
1974.293574	367.637063
1976.015019	360.313287
1977.739563	360.733566
1979.462028	334.272028
1981.180689	318.353846
1982.902449	316.479021
1984.620407	295.923077
1986.339738	300.774126
1988.055270	311.428671
1989.775622	340.386713
1991.492176	374.182517
1993.204933	395.148951
1994.920787	417.924476
1996.634567	423.290210
1998.347998	422.834266
2000.059358	431.764336
2001.772090	424.904895
2003.481032	429.426573
2005.193067	409.697203
2006.899592	415.372028
2008.609210	407.774825
2010.316760	395.983916
2012.023963	403.356643
2013.729100	394.774126
2015.433890	385.377622
2017.140052	381.393706
2018.842432	377.265035
2020.546184	392.270629
2022.247872	396.078322
2023.949216	411.223776
2025.650214	413.525175
2027.349151	420.100699
2029.049460	411.360140
2030.745994	391.133566
2032.443899	404.331469
2034.139745	398.269231
2035.838677	387.508392
2037.532123	401.394406
2039.226940	399.345455
2040.921415	389.532867
2042.612121	364.736364
2044.305911	361.494406
2045.995934	358.519580
2047.687328	366.725175
2049.376669	363.886014
2051.067380	356.030769
2052.754328	361.681119
2054.440937	372.497902
2056.128916	395.199301
2057.813135	418.406993
2059.498724	422.800000
2061.183974	398.211189
2062.867176	381.800699
2064.551747	374.023077
2066.230856	362.345455
2067.914750	354.038462
2069.593184	338.042657
2071.274694	323.402098
2072.952454	302.400699
2074.629876	315.430070
2076.308668	319.029371
2077.985418	320.278322
2079.660126	337.593007
2081.336203	337.030769
2083.010240	344.531469
2084.683941	343.789510
2086.357307	341.555944
2088.028635	347.648951
2089.699628	350.577622
2091.370287	332.525874
2093.040611	317.074126
2094.710602	321.894406
2096.378557	317.178322
2098.046179	322.323077
2099.711766	340.227972
2101.378723	340.602797
2103.043645	338.713986
2104.708236	350.513986
2106.370795	350.803497
2108.034722	356.816783
2109.696619	364.985315
2111.358184	362.472028
2113.019418	369.730070
2114.678624	371.735664
2116.337499	367.724476
2117.996045	356.534965
2119.654261	348.634266
2121.308753	347.857343
2122.966310	337.806993
2124.623538	340.069231
2126.277044	338.152448
2127.931918	330.584615
2129.583074	334.428671
2131.237291	335.247552
2132.887792	331.113287
2134.539659	318.309790
2136.186118	310.643357
2137.837332	299.570629
2139.484832	301.672727
2141.133699	315.246154
2142.780548	316.600000
2144.427070	330.204196
2146.073267	341.646853
2147.715756	348.950350
2149.361303	369.789510
2151.003143	376.262937
2152.648040	369.363636
2154.289232	367.398601
2155.930100	370.690909
2157.570644	367.975524
2159.209176	370.717483
2160.849074	372.091608
2162.485272	378.769930
2164.122837	385.781119
2165.760078	382.739161
2167.395310	386.470629
2169.030221	380.610490
2170.664810	356.670629
2172.299077	337.431469
2173.929651	335.602098
2175.563277	334.131469
2177.193211	320.153147
2178.824510	319.954545
2180.453804	322.700000
2182.082779	335.758042
2183.711434	342.222378
2185.339770	337.067133
2186.966104	338.434965
2188.592119	329.288112
2190.216133	316.714685
2191.841511	335.866434
2193.464890	356.068531
2195.089632	367.002098
2196.710694	357.167832
2198.331439	367.018881
2199.953549	369.005594
2201.573661	369.732168
2203.191776	360.530769
2204.809576	363.323776
2206.427061	355.655245
2208.044230	364.218881
2209.661084	359.676224
2211.277623	378.355245
2212.892168	396.720979
2214.504721	400.340559
2216.118638	383.146853
2217.730564	380.158042
2219.343853	368.304895
2220.955152	352.510490
2222.564461	344.583916
2224.175134	359.627273
2225.783818	355.544755
2227.392190	364.972028
2228.998574	373.420280
2230.606322	357.827972
2232.212083	362.639161
2233.817533	363.606993
2235.420998	347.998601
2237.025826	352.714685
2238.628670	350.435664
2240.229532	352.293706
2241.831755	379.702797
2243.431997	393.181119
2245.033601	398.604895
2246.631553	372.927273
2248.230867	366.051049
2249.828201	323.557343
2251.425226	326.747552
2253.023614	324.777622
2254.618353	331.036364
2256.211115	330.848252
2257.805240	334.272727
2259.400726	356.907692
2260.992568	384.499301
2262.584103	382.005594
2264.176999	391.644056
2265.764586	383.316084
2267.356870	393.667832
2268.943846	383.616783
2270.533851	391.504196
2272.118551	392.267832
2273.707944	402.858741
2275.292036	378.927972
2276.877489	381.229371
2278.460972	390.635664
2280.047482	390.538462
2281.630358	386.875524
2283.212930	394.725524
2284.795199	399.839860
2286.373839	384.060490
2287.955502	392.619580
2289.533537	398.396154
2291.114595	391.322378
2292.692026	361.644406
2294.267494	347.527972
2295.845984	331.274476
2297.420850	322.606294
2298.995415	315.046503
2300.569680	300.729371
2302.143644	287.017133
2303.717308	286.786014
2305.290671	288.827972
2306.860416	319.750350
2308.429862	318.884615
2310.002326	330.067832
2311.569516	335.928671
2313.139724	345.942657
2314.706317	334.739860
2316.274270	363.330769
2317.840267	339.448252
2319.405967	331.200000
2320.971370	362.063636
2322.534818	400.265734
2324.099626	414.977622
2325.660826	438.623776
2327.225040	461.109091
2328.783992	479.058741
2330.345959	490.282517
2331.905975	472.786713
2333.465695	431.784615
2335.023466	409.727273
2336.580942	346.120280
2338.138124	311.971329
2339.693358	307.629371
2341.248299	283.644755
2342.802946	279.548252
2344.357299	294.342657
2345.911358	307.819580
2347.465123	322.423776
2349.016945	363.770629
2350.566823	352.093706
2352.119709	364.240559
2353.667353	381.134965
2355.218004	376.719580
2356.765064	355.111888
2358.313483	334.453846
2359.861609	315.121678
2361.406147	336.491608
2362.952043	336.509790
2364.496001	339.923776
2366.041316	342.345455
2367.583046	344.304196
2369.126133	324.490210
2370.667285	341.083916
2372.208147	334.186014
2373.748719	331.926573
2375.289003	348.493007
2376.828998	331.253147
2378.365415	327.796503
2379.904833	341.709790
2381.440674	348.389510
2382.977871	364.831469
2384.511493	387.560140
2386.048116	380.881818
2387.582807	394.215385
2389.115569	398.408392
2390.648044	425.269231
2392.178591	434.112587
2393.712136	435.988811
2395.240470	369.548252
2396.770161	359.237063
2398.299566	325.763636
2399.828685	325.316084
2401.357520	324.473427
2402.881149	339.655245
2404.409415	341.449650
2405.932477	354.590210
2407.460173	361.632867
2408.981030	383.060140
2410.506520	385.002098
2412.028449	388.765734
2413.551734	365.051049
2415.073098	378.455944
2416.592542	368.663636
2418.113341	393.817483
2419.632221	417.011888
2421.150819	441.044755
2422.667500	472.141259
2424.185535	447.044056
2425.703289	435.379021
2427.217492	424.423077
2428.731414	419.339860
2430.245056	414.127972
2431.760053	407.123776
2433.271501	393.246853
2434.784304	409.466434
2436.295193	442.625175
2437.805804	481.379021
2439.314503	481.455944
2440.826188	483.293007
2442.334330	455.885315
2443.842194	450.833566
2445.349780	450.582517
2446.853825	439.029371
2448.360856	429.441958
2449.865978	405.695804
2451.370823	390.660839
2452.873760	417.029371
2454.376422	447.882517
2455.878807	463.513287
2457.379287	421.790909
2458.881120	413.195105
2460.381049	404.523077
2461.880702	438.241958
2463.380079	456.123077
2464.877554	445.350350
2466.373127	408.457343
2467.871680	389.217483
2469.366705	395.267133
2470.863082	405.230769
2472.355933	407.944056
2473.850137	435.132867
2475.344067	430.237063
2476.834473	448.943357
2478.327857	465.711189
2479.819343	507.465035
2481.308932	509.590909
2482.798249	478.964336
2484.285671	435.212587
2485.776068	430.407692
2487.262946	418.183217
2488.751176	387.808392
2490.235890	390.233566
2491.720333	403.551049
2493.206128	400.333566
2494.690030	414.413986
2496.175284	404.446154
2497.655403	408.110490
2499.138496	401.526573
2500.619698	394.713287
2502.100631	372.412587
2503.579675	393.505594
2505.058450	411.868531
2506.536957	422.713986
2508.015196	419.069930
2509.493166	414.962238
2510.967632	412.633566
2512.445066	432.241259
2513.918997	397.610490
2515.394278	376.372727
2516.869293	339.461538
2518.340806	341.554545
2519.813669	315.979021
2521.284650	312.497203
2522.756981	320.630769
2524.224199	327.897203
2525.694382	303.023776
2527.162685	338.758741
2528.630723	336.031469
2530.098496	360.388811
2531.566004	357.720280
2533.033247	365.403497
2534.496998	350.179720
2535.962099	373.788112
2537.425323	394.326573
2538.889897	396.218182
2540.350981	420.704895
2541.813415	412.466434
2543.275586	394.793007
2544.734271	391.120280
2546.197528	355.179021
2547.655688	347.717483
2549.115197	338.629371
2550.569613	307.462238
2552.028598	290.402797
2553.485712	299.840559
2554.940955	351.174825
2556.395937	368.401399
2557.849049	389.980420
2559.303510	371.839161
2560.756102	357.623077
2562.208434	357.785315
2563.658898	360.995804
2565.112318	374.825874
2566.560656	378.222378
2568.011950	389.591608
2569.461377	393.448252
2570.907332	403.848951
2572.356242	445.932867
2573.801682	447.041259
2575.248470	443.158741
2576.693394	419.655245
2578.138060	397.125874
2579.584075	394.955944
2581.026622	389.155944
2582.470517	372.690909
2583.910947	387.477622
2585.352724	413.497203
2586.792642	400.158042
2588.233907	433.309790
2589.671711	446.134965
2591.112464	483.256643
2592.548154	506.797203
2593.986794	502.904895
2595.423576	481.442657
2596.858503	442.227273
2598.296377	413.551049
2599.729194	379.158741
2601.163358	398.402098
2602.595668	414.072028
2604.029324	435.100000
2605.461127	455.937762
2606.892676	470.213986
2608.323973	500.988811
2609.753417	519.237762
2611.182609	501.862238
2612.609951	474.313986
2614.038638	452.541958
2615.467074	442.588112
2616.892062	438.856643
2618.318397	440.195105
2619.742883	455.216084
2621.168715	480.558741
2622.591103	492.942657
2624.014837	494.563636
2625.436724	498.253147
2626.858362	532.662238
2628.278154	513.503497
2629.699292	517.981119
2631.120180	538.515385
2632.537630	520.417483
2633.958019	528.054545
2635.374971	522.596503
2636.791674	519.458042
2638.208130	522.721678
2639.624336	533.981818
2641.040295	520.499301
2642.454413	523.897902
2643.868284	536.825175
2645.280315	534.365035
2646.693691	553.648252
2648.103637	549.407692
2649.516518	548.111189
2650.925971	581.596503
2652.335178	605.379720
2653.742549	626.250350
2655.152855	681.348252
2656.561324	711.986014
2657.967958	743.433566
2659.374347	780.964336
2660.778902	807.861538
2662.184801	812.603497
2663.588867	813.075524
2664.992688	789.620979
2666.396266	811.200699
2667.798011	833.104196
2669.201100	832.161538
2670.600771	833.208392
2672.001786	849.489510
2673.399385	868.347552
2674.799914	919.337762
2676.197028	941.381119
2677.595485	956.018182
2678.992114	973.909091
2680.388501	991.689510
2681.784647	1004.395105
2683.178966	1035.532168
2684.574628	1031.222378
2685.966880	1038.903497
2687.360475	997.717483
2688.752247	983.523776
2690.145360	995.625175
2691.536650	991.715385
2692.926117	985.955245
2694.315344	1002.830769
2695.704332	1039.255245
2697.094662	1058.965734
2698.480007	1090.373427
2699.868276	1128.627972
2701.254725	1152.247552
2702.640935	1195.616783
2704.026907	1216.132168
2705.409479	1263.226573
2706.793394	1289.002797
2708.177071	1308.051748
2709.560510	1352.257343
2710.940553	1399.806993
2712.321938	1440.110490
2713.701507	1464.054545
2715.082418	1490.272028
2716.461513	1477.335664
2717.838795	1468.923077
2719.217418	1443.769231
2720.594228	1443.856643
2721.970802	1400.309091
2723.347140	1343.321678
2724.721666	1302.781119
2726.097533	1279.604895
2727.470013	1242.240559
2728.845409	1216.681818
2730.215845	1188.411189
2731.587622	1169.806993
2732.959164	1111.086014
2734.328898	1079.170629
2735.699973	998.031469
2737.069239	971.189510
2738.438273	907.169231
2739.805499	855.527972
2741.172493	829.000699
2742.539254	830.049650
2743.905782	803.437063
2745.270505	777.665734
2746.634997	762.665035
2747.999256	742.518182
2749.363283	690.471329
2750.727079	658.987413
2752.087501	582.901399
2753.450834	583.620280
2754.809224	542.811888
2756.170524	525.881119
2757.528453	519.220280
2758.889291	515.824476
2760.248330	472.956643
2761.604000	466.000699
2762.962578	454.211888
2764.317789	422.288811
2765.672772	433.917483
2767.025957	448.435664
2768.382049	438.176923
2769.734777	463.515385
2771.087276	450.119580
2772.439547	442.781818
2773.793157	408.623077
2775.143405	397.987413
2776.491860	376.765734
2777.843219	387.378322
2779.191219	356.237063
2780.540557	364.156643
2781.888104	388.504196
2783.235423	398.725874
2784.582516	407.521678
2785.927818	402.507692
2787.272894	396.558741
2788.617743	394.578322
2789.962367	370.969930
2791.303639	407.274825
2792.646249	407.097203
2793.988633	428.174825
2795.330793	406.285315
2796.669603	413.849650
2798.011312	423.688811
2799.349674	439.865734
2800.689373	424.623077
2802.027286	418.490909
2803.363415	404.297203
2804.699320	402.453147
2806.036563	383.654545
2807.372022	406.912587
2808.707258	392.690909
2810.040711	412.118881
2811.375502	392.625874
2812.706951	397.075524
2814.041296	406.010490
2815.370743	393.813986
2816.701527	370.047552
2818.032089	357.773427
2819.360872	332.896503
2820.690991	314.279021
2822.019332	299.210490
2823.347452	308.896503
2824.673794	300.299301
2826.001473	321.585315
2827.325818	323.763636
2828.651500	327.950350
2829.975406	329.983916
2831.299093	328.813986
2832.624115	338.009790
2833.945807	343.353846
2835.267281	349.686014
2836.588536	346.684615
2837.909572	333.451049
2839.228836	340.691608
2840.549435	313.734965
2841.868262	305.967133
2843.186871	315.848951
2844.503709	319.788811
2845.820330	332.883217
2847.136734	339.686713
2848.451368	340.011888
2849.767338	352.937063
2851.079987	349.018182
2852.393972	332.007692
2853.707739	322.609790
2855.021291	322.097203
2856.333075	311.911189
2857.643093	323.290909
2858.954446	334.286014
2860.262484	337.056643
2861.571857	342.916084
2862.881014	334.481119
2864.189956	315.191608
2865.497134	291.145455
2866.802550	270.095105
2868.109300	270.045455
2869.414287	280.484615
2870.719061	280.734965
2872.022073	304.081119
2873.327967	316.413986
2874.629005	324.506993
2875.931378	338.000699
2877.231991	347.567832
2878.533938	346.197203
2879.835672	340.133566
2881.134101	317.802098
2882.433865	328.406294
2883.731870	340.697902
2885.029664	334.207692
2886.325702	340.066434
2887.623073	362.832867
2888.918688	379.216084
2890.214092	384.069231
2891.509285	379.303497
2892.801181	386.124476
2894.095953	368.360140
2895.387428	358.624476
2896.680236	339.493706
2897.972834	318.618182
2899.262138	291.696503
2900.552774	273.215385
2901.841659	298.655944
2903.131877	347.354545
2904.418802	340.353846
2905.707061	333.432867
2906.993569	347.258741
2908.279870	358.065035
2909.565962	334.843357
2910.850306	329.951049
2912.137521	311.753846
2913.419910	311.002098
2914.703631	285.732168
2915.985606	291.327273
2917.267373	304.894406
2918.547396	327.139161
2919.830288	310.486713
2921.111435	317.120280
2922.389300	314.112587
2923.670034	323.131469
2924.947487	326.981119
2926.224734	334.269930
2927.500240	328.289510
2928.778613	354.087413
2930.052171	339.832867
2931.328597	337.444755
2932.603282	320.090210
2933.876227	318.324476
2935.150502	306.615385
2936.423038	277.237762
2937.695370	270.134266
2938.964428	286.860839
2940.236352	279.111888
2941.506538	267.570629
2942.776521	263.482517
2944.046300	284.880420
2945.314342	290.113986
2946.580649	297.706993
2947.846753	299.704196
2949.114187	287.109091
2950.379887	279.866434
2951.645384	291.209091
2952.910679	314.862937
2954.172709	332.542657
2955.436070	315.936364
2956.699228	314.916783
2957.960655	302.685315
2959.223411	302.119580
2960.484436	281.168531
2961.743729	265.465734
2963.002823	257.200699
2964.261716	231.837762
2965.520409	222.140559
2966.778902	240.892308
2968.035666	255.776923
2969.292230	260.470629
2970.547067	254.839161
2971.803232	253.393007
2973.056143	263.093706
2974.310383	278.805594
2975.564424	288.479021
2976.816739	306.900699
2978.068856	337.290210
2979.319247	331.866434
2980.572494	317.753147
2981.820964	307.798601
2983.072289	315.906993
2984.320364	280.906294
2985.568243	282.318182
2986.815924	293.153147
2988.063409	315.273427
2989.309171	344.016084
2990.554738	370.701399
2991.801632	407.685315
2993.045282	420.797203
2994.290260	400.572028
2995.531994	384.412587
2996.776580	351.827273
2998.019447	321.744755
2999.259073	270.036364
3000.501549	268.165035
3001.740786	264.686014
3002.981350	235.131469
3004.220197	238.944755
3005.458850	236.676923
3006.695787	242.816084
3007.934051	230.441958
3009.170601	235.579021
3010.406956	246.832867
3011.643118	234.188811
3012.877567	256.993007
3014.111822	267.730769
3015.345884	278.446154
3016.578234	287.818881
3017.808872	283.341958
3019.042356	288.032168
3020.274128	298.218182
3021.504190	309.234965
3022.734060	308.097203
3023.962220	308.879720
3025.191706	309.560839
3026.419484	306.441259
3027.647070	330.604196
3028.875982	304.395105
3030.100152	294.774126
3031.327165	298.268531
3032.550954	287.002797
3033.776070	263.946853
3034.999479	285.558042
3036.222698	291.723776
3037.444212	262.498601
3038.668567	268.927972
3039.888187	295.487413
3041.109133	316.548951
3042.329890	314.031469
3043.548943	290.767832
3044.769322	282.224476
3045.986484	273.578322
3047.204971	268.013986
3048.421756	251.358042
3049.638354	260.583217
3050.854763	262.351748
3052.067960	253.393706
3053.283994	297.716783
3054.496816	306.944755
3055.712475	304.412587
3056.923411	278.929371
3058.135672	253.796503
3059.347747	231.679720
3060.559635	226.481119
3061.769825	245.172727
3062.979829	244.452797
3064.189647	252.128671
3065.397770	267.736713
3066.605706	293.188112
3067.811948	325.605944
3069.019513	341.125175
3070.225384	364.008042
3071.431071	381.877622
3072.636572	384.368182
3073.840380	382.554545
3075.045512	370.631818
3076.248952	343.381818
3077.450699	308.703147
3078.652263	278.370629
3079.853642	246.745455
3081.054839	244.782517
3082.254344	253.537063
3083.453667	257.603497
3084.654313	264.344755
3085.853269	284.320979
3087.049031	290.528671
3088.247622	292.175524
3089.443019	288.526573
3090.639739	291.954545
3091.833267	293.853147
3093.029623	309.061538
3094.224293	299.867133
3095.415772	316.865734
3096.611582	312.335664
3097.802699	295.223077
3098.995138	304.681818
3100.184390	315.608392
3101.376468	305.107692
3102.566861	291.104895
3103.754069	298.713287
3104.942600	297.867832
3106.132452	285.620280
3107.319121	295.316084
3108.505610	276.379720
3109.691919	275.886713
3110.879550	251.611888
3112.064000	260.766434
3113.246769	268.117483
3114.432361	259.625874
3115.616274	236.326573
3116.798508	235.634965
3117.980563	254.804196
3119.162441	249.100699
3120.344140	247.453147
3121.524161	238.186713
3122.702506	240.290210
3123.883672	258.685315
3125.061662	254.283916
3126.239475	273.588112
3127.417111	270.471329
3128.593072	260.205594
3129.768856	259.070629
3130.945962	265.276923
3132.121393	246.827972
3133.295151	210.062238
3134.467237	183.231469
3135.640643	161.260140
3136.813874	184.836364
3137.985432	193.518881
3139.158311	191.295804
3140.328024	199.953147
3141.499056	214.542657
3142.668419	213.525175
3143.836112	220.827972
3145.006620	239.061538
3146.172469	233.270629
3147.342628	231.925874
3148.508129	236.051748
3149.673457	246.098601
3150.838611	267.345455
3152.003591	247.533566
3153.169892	250.011888
3154.331539	245.259441
3155.494506	242.343357
3156.657301	236.893007
3157.819923	252.014685
3158.980880	291.873427
3160.141664	287.269930
3161.302276	291.602098
3162.461225	301.707692
3163.620001	312.738462
3164.778606	298.005594
3165.937039	269.580420
3167.095300	261.592308
3168.251899	253.183916
3169.406837	223.440559
3170.563094	222.860839
3171.717690	237.897203
3172.872116	242.238462
3174.024882	239.736364
3175.177478	253.722378
3176.329903	277.986713
3177.482159	285.707692
3178.634244	281.955944
3179.783184	287.427972
3180.934930	290.425874
3182.085018	306.396503
3183.233450	292.769930
3184.381713	296.231469
3185.529806	294.398601
3186.677731	287.641259
3187.824001	277.404196
3188.970102	259.027273
3190.114548	245.773427
3191.258827	222.802098
3192.402938	208.124476
3193.548367	198.370629
3194.690656	195.618881
3195.832779	217.181119
3196.974734	213.781119
3198.116523	220.641958
3199.258144	235.161538
3200.396629	261.597902
3201.536432	257.990909
3202.677553	254.379021
3203.815539	272.427273
3204.951876	247.159441
3206.088047	230.556643
3207.225536	239.062238
3208.361375	239.076923
3209.498532	258.786713
3210.631076	249.492308
3211.767902	255.564336
3212.900116	264.583217
3214.033647	269.355245
3215.167014	254.671329
3216.297253	241.446154
3217.430290	274.067133
3218.560201	248.846853
3219.691428	247.771329
3220.819531	257.969231
3221.950430	243.987413
3223.079685	248.437762
3224.207297	253.967133
3225.331787	254.824476
3226.460551	262.020979
3227.586194	265.065734
3228.711675	247.108392
3229.835514	259.114685
3230.962147	294.245455
3232.084183	292.477622
3233.207535	277.006294
3234.330725	280.504895
3235.453753	282.462937
3236.575141	299.935664
3237.696368	327.179021
3238.815956	333.104196
3239.935383	361.071329
3241.053172	368.905594
3242.173754	376.603497
3243.291221	384.735664
3244.408528	370.644755
3245.525675	361.490210
3246.641186	325.762238
3247.758012	333.212587
3248.871727	329.356643
3249.988232	327.114685
3251.103103	316.390909
3252.214865	309.037762
3253.326468	314.690210
3254.439385	307.320979
3255.552144	304.359441
3256.661796	254.898601
3257.772762	228.630769
3258.883570	208.195804
3259.992747	186.979021
3261.100292	192.925874
3262.209151	187.611888
3263.317853	190.345455
3264.423452	203.286014
3265.530365	228.062937
3266.635649	235.034266
3267.742248	265.383916
3268.845746	277.289510
3269.950558	260.266434
3271.055213	259.459441
3272.156769	250.697203
3273.258170	251.016783
3274.360884	244.999301
3275.463441	245.644755
3276.562902	241.613287
3277.665147	255.569231
3278.764296	253.283217
3279.861821	255.367133
3280.959190	263.653846
3282.059342	259.713287
3283.156400	250.758741
3284.253303	246.008392
3285.350051	243.009091
3286.442241	231.016783
3287.538679	211.848252
3288.633495	210.202797
3289.728157	189.420979
3290.821197	208.976224
3291.914083	205.568531
3293.005348	221.532168
3294.097926	222.865035
3295.188883	232.294406
3296.278221	247.562238
3297.367406	258.216783
3298.457904	260.283217
3299.545317	242.131469
3300.632578	230.693706
3301.721151	217.036364
3302.809571	198.427972
3303.893444	214.367133
3304.981559	213.932867
3306.066593	227.328671
3307.150010	236.309790
3308.234740	234.948252
3309.317855	262.939860
3310.402281	273.576224
3311.483629	271.590210
3312.566289	253.118881
3313.647335	252.430070
3314.728230	243.724476
3315.807511	239.551049
3316.886643	231.767832
3317.967085	234.920280
3319.044454	247.169930
3320.123133	268.655944
3321.200202	275.075524
3322.277120	293.755944
3323.352427	296.120979
3324.427585	289.336364
3325.504054	296.525874
3326.577453	303.578322
3327.650703	293.134266
3328.725263	270.336364
3329.798215	256.407692
3330.869558	259.610490
3331.942213	253.879021
3333.011800	248.753147
3334.082698	230.351049
3335.151989	228.094406
3336.222591	214.620280
3337.291586	213.211189
3338.358975	227.880420
3339.424759	232.541958
3340.494769	234.711888
3341.561716	233.837063
3342.625601	251.496503
3343.692254	250.708392
3344.757302	240.730769
3345.820747	233.832867
3346.884046	228.376224
3347.947198	217.033566
3349.010204	201.504895
3350.073064	202.958741
3351.134322	211.625175
3352.192523	224.769231
3353.254945	231.224476
3354.314310	225.268531
3355.373530	230.743357
3356.434060	214.993706
3357.490080	210.509091
3358.548865	196.693007
3359.603142	204.652448
3360.660182	207.905594
3361.715625	201.505594
3362.772376	212.263636
3363.827529	226.346154
3364.881086	247.793706
3365.933045	229.595804
3366.987766	233.005594
3368.039438	223.665035
3369.090967	218.744056
3370.143804	228.490909
3371.193594	231.058741
3372.244693	249.125874
3373.292746	267.864336
3374.343559	245.406294
3375.391326	255.625874
3376.438951	256.087413
3377.486433	270.691608
3378.532323	252.601399
3379.579521	261.481818
3380.623677	250.411888
3381.670591	248.175524
3382.715913	261.859441
3383.758194	258.986014
3384.800335	251.185315
3385.843783	259.274825
3386.887091	235.073427
3387.928808	237.893007
3388.970384	234.886713
3390.011820	234.577622
3391.051666	240.701399
3392.089924	230.162937
3393.129491	205.509790
3394.168916	194.763636
3395.206754	199.571329
3396.243005	194.402098
3397.279117	199.099301
3398.316536	220.509091
3399.350922	219.530070
3400.386615	230.034266
3401.422169	223.288112
3402.454692	235.795105
3403.489968	247.374126
3404.522213	219.111888
3405.554320	194.441259
3406.584843	202.092308
3407.616673	208.269231
3408.648365	230.344755
3409.677030	229.600000
3410.705556	233.700000
3411.735390	228.461538
3412.765085	228.376224
3413.791755	199.750350
3414.819732	214.058741
3415.844684	198.759441
3416.872386	187.194406
3417.897065	185.597902
3418.923050	219.736364
3419.947455	234.588112
3420.971724	235.530070
3421.994414	214.606993
3423.016968	214.081119
3424.040828	194.311189
3425.061668	177.418182
3426.082373	159.783117
3427.104383	149.599226
3428.123375	150.641159
3429.142232	166.683566
3430.162394	201.501099
3431.179540	258.868407
