-118.389184	-6.564286
-115.719584	-3.854945
-113.052919	-1.021279
-110.387006	1.795804
-107.724025	4.455395
-105.059615	6.816583
-102.398135	8.738462
-99.735225	11.710490
-97.077423	12.099301
-94.418190	7.956643
-91.759706	4.083916
-89.104147	6.095105
-86.447159	-0.660140
-83.795268	-2.177622
-81.141948	-6.310490
-78.491548	-6.669930
-75.839718	-7.237762
-73.192979	-5.446154
-70.544810	-4.707692
-67.897385	-2.248951
-65.252873	0.461538
-62.606933	1.730070
-59.966074	6.060140
-57.323786	6.630769
-54.684406	3.295105
-52.043598	3.730070
-49.403530	4.404196
-46.768534	3.576224
-44.132109	2.032168
-41.498588	2.267133
-38.863638	0.127273
-36.233753	-3.134266
-33.600276	-2.770629
-30.971861	-0.563636
-28.344179	-1.567832
-25.715070	-6.742657
-23.091017	-9.795804
-20.463375	-11.995804
-17.840786	-14.763636
-15.218928	-11.795804
-12.597802	2.208392
-9.977405	26.770629
-7.359896	45.376224
-4.740959	59.257343
-2.124908	69.923077
0.490415	75.833566
3.105011	72.342657
5.716724	61.507692
8.329866	41.941259
10.937974	20.482517
13.549664	0.990210
16.156323	-8.335664
18.764410	-9.286713
21.371773	-4.137063
23.974111	-6.517483
26.580027	-6.215385
29.180921	-1.655944
31.783243	2.307692
34.380548	3.713287
36.981428	6.089510
39.577294	7.665734
42.174587	9.029371
44.771161	12.565035
47.362726	7.324476
49.955719	4.981818
52.545851	4.965035
55.137411	-0.606993
57.726111	-2.359441
60.316238	-1.227972
62.901367	-4.177622
65.487922	-5.816783
68.073764	-2.539860
70.656752	0.027972
73.241167	2.551049
75.818452	3.355245
78.399304	1.362238
80.977307	4.565035
83.554600	7.051748
86.133319	2.704895
88.707057	3.479720
91.282221	5.349650
93.854542	6.134266
96.426155	4.848951
98.994928	7.097902
101.565128	5.384615
104.132490	3.851748
106.701277	1.062937
109.267228	2.660140
111.830344	0.258741
114.397016	-0.420979
116.954467	0.425175
119.517603	3.738462
122.075780	6.716084
124.637510	9.857343
127.194285	7.674126
129.752485	8.541259
132.305733	6.163636
134.858282	3.893706
137.414382	4.945455
139.965535	3.967832
142.515989	4.374825
145.065747	7.611189
147.612685	9.341259
150.158927	6.710490
152.706595	5.114685
155.253568	6.584615
157.795604	7.432168
160.336947	11.000000
162.877597	9.981818
165.419673	10.341259
167.958938	13.556643
170.495393	17.394406
173.031158	21.144056
175.568348	21.048951
178.104846	18.054545
180.638539	14.976224
183.169429	14.039161
185.699630	12.345455
188.231256	13.676923
190.760081	11.313287
193.286107	7.741259
195.811448	5.874126
198.338213	5.046154
200.862181	8.797203
203.385465	4.881119
205.908064	4.651748
208.427870	5.383217
210.946993	9.022378
213.465433	11.216783
215.985297	8.036364
218.498160	10.563636
221.014554	7.874126
223.530266	5.823776
226.041089	5.793007
228.553336	6.299301
231.062800	7.100699
233.571586	1.337063
236.079694	4.125874
238.589225	5.544056
241.093877	8.696503
243.597852	6.921678
246.103251	6.591608
248.603775	8.727273
251.107822	10.753846
253.604899	10.580420
256.105498	15.528671
258.603326	16.489510
261.100481	18.243357
263.596963	16.820979
266.088582	19.825175
268.583721	20.713287
271.076094	17.981818
273.567796	15.765035
276.056735	15.930070
278.547097	16.053147
281.034698	20.434965
283.519539	19.977622
286.007894	20.655944
288.489310	20.075524
290.974240	17.930070
293.454325	14.488112
295.937922	13.927273
298.416676	11.173427
300.896854	7.928671
303.374279	10.058741
305.851041	10.685315
308.327140	11.370629
310.800490	15.195804
313.273178	13.850350
315.745205	13.920280
318.216571	11.829371
320.685193	6.532867
323.153155	5.040559
325.622540	4.304895
328.087102	2.921678
330.555167	4.195804
333.018413	6.300699
335.481002	6.401399
337.942933	6.830769
340.404208	11.111888
342.862749	13.198601
345.322712	14.942657
347.779942	14.377622
350.236518	16.097902
352.692440	17.279720
355.145633	17.034965
357.600247	15.530070
360.050060	17.951049
362.503370	18.359441
364.951880	16.650350
367.399740	12.163636
369.849021	11.772028
372.293509	12.874126
374.739419	13.213986
377.184680	17.078322
379.627222	19.233566
382.069116	20.587413
384.510362	19.697902
386.948893	18.471329
389.388846	19.787413
391.826085	16.836364
394.260612	12.990210
396.698627	9.776224
399.131865	10.215385
401.566525	11.556643
403.996411	12.443357
406.429783	14.339860
408.858385	14.360839
411.286346	14.265734
413.715727	13.490909
416.140343	11.013986
418.566381	12.020979
420.991778	14.598601
423.416535	17.116084
425.836534	13.988811
428.257954	11.939860
430.676677	9.988811
433.096821	10.110490
435.514270	10.402797
437.933139	10.655944
440.349315	8.932867
442.760744	9.745455
445.175649	10.696503
447.587864	14.832168
449.999445	16.495105
452.410392	20.769231
454.818653	15.469930
457.226281	15.190210
459.633278	14.602797
462.039642	13.766434
464.443324	10.490909
466.846376	8.812587
469.248798	6.289510
471.650591	3.657343
474.049705	3.893706
476.450239	2.734266
478.850144	1.956643
481.245326	9.195804
483.643975	8.218182
486.037904	9.872727
488.431207	11.173427
490.823884	10.711888
493.215936	9.309091
495.609407	9.986014
497.998165	9.047552
500.384257	7.854545
502.771769	8.531469
505.158657	9.988811
507.542882	9.893706
509.928526	13.027972
512.311507	10.924476
514.691828	11.365035
517.073568	9.644755
519.452649	7.781818
521.833149	5.787413
524.210991	4.176224
526.586178	4.225175
528.960747	4.648951
531.336735	6.184615
533.710069	8.932867
536.084821	10.868531
538.454888	13.074126
540.824339	9.583217
543.195208	13.914685
545.561397	14.253147
547.929004	16.222378
550.293965	14.651748
552.658313	12.892308
555.022049	10.400000
557.387202	4.141259
559.747682	1.949650
562.109581	-0.255944
564.468840	-0.026573
566.825460	0.632168
569.185525	-3.262937
571.538900	2.560839
573.895719	4.151049
576.249902	6.878322
578.603478	3.869930
580.956445	3.404196
583.306781	2.523077
585.658533	1.762238
588.003609	2.932867
590.354149	1.655944
592.698016	4.174825
595.047343	5.966434
597.392023	4.723077
599.734077	9.240559
602.077549	10.499301
604.418398	6.608392
606.758645	5.254545
609.096271	4.709091
611.437332	7.404196
613.773756	10.731469
616.111596	8.629371
618.446818	6.763636
620.779425	8.525874
623.113448	8.092308
625.444858	8.752448
627.775669	10.267133
630.105882	7.247552
632.435497	3.082517
634.760490	3.549650
637.090924	3.165035
639.416736	5.240559
641.739942	4.942657
644.064563	1.634965
646.386580	0.815385
648.708002	3.363636
651.026821	5.527273
653.347056	8.725874
655.666698	12.002797
657.983739	13.893706
660.300188	15.765035
662.614040	16.605594
664.929306	20.184615
667.241976	19.268531
669.556061	17.046154
671.865546	14.773427
674.176447	13.728671
676.484755	13.669930
678.792475	14.834965
681.101610	13.549650
683.406152	11.029371
685.710107	10.281119
688.013477	9.746853
690.318261	10.994406
692.618459	15.132867
694.920071	14.394406
697.221099	10.039161
699.517544	9.380420
701.815405	6.300699
704.112682	4.942657
706.409376	3.959441
708.701494	1.952448
710.997023	4.062937
713.287979	7.248951
715.580349	4.137063
717.870143	6.622378
720.159358	7.609790
722.447992	4.751049
724.734055	-2.048951
727.021531	-3.633566
729.306437	-6.201399
731.590764	-3.823776
733.872523	-0.744056
736.155696	2.841958
738.438292	9.609790
740.716333	11.620979
742.995787	9.310490
745.274666	13.637762
747.552969	17.584615
749.826723	15.374825
752.101891	12.549650
754.376485	10.973427
756.648520	11.879720
758.921967	13.570629
761.192857	11.475524
763.461191	10.497902
765.730938	10.302098
767.998131	8.302098
770.264753	8.075524
772.530806	9.573427
774.794306	12.945455
777.059220	7.797203
779.323564	9.005594
781.583379	9.262937
783.844607	7.600000
786.105267	8.377622
788.363380	5.514685
790.618949	6.465734
792.877909	6.594406
795.130370	10.419580
797.388198	9.988811
799.641506	10.254545
801.892275	9.960839
804.144456	6.309091
806.394099	10.334266
808.645153	8.439161
810.891696	6.323077
813.139651	5.331469
815.385072	3.948252
817.631904	6.085315
819.878175	6.447552
822.119942	8.555245
824.365091	7.074126
826.603768	6.404196
828.845828	7.518881
831.083389	7.142657
833.322361	11.827972
835.558807	12.630769
837.796664	12.044755
840.031997	13.802797
842.264805	15.344056
844.499025	16.001399
846.730723	12.918881
848.961866	12.650350
851.192454	12.945455
853.422488	12.018182
855.651967	17.797203
857.876965	15.160839
860.105338	16.366434
862.329232	14.974825
864.554536	13.271329
866.775365	15.314685
868.999566	12.268531
871.219294	9.465734
873.440433	6.177622
875.661021	2.700699
877.879099	1.511888
880.098588	3.766434
882.313610	3.779021
884.528084	-2.521678
886.742011	-1.548252
888.955390	-2.279720
891.168222	-2.648951
893.380508	-0.806993
895.590291	3.068531
897.799529	5.314685
900.008222	7.886713
902.214416	9.255944
904.422019	12.044755
906.627125	19.479720
908.831687	21.061538
911.033753	20.914685
913.237229	21.109091
915.438211	14.855944
917.638652	9.841958
919.840501	7.867133
922.035958	5.327273
924.234775	0.784615
926.429153	-1.811189
928.626889	-4.755245
930.820189	-2.004196
933.014898	0.827972
935.207121	-0.850350
937.398806	-1.334266
939.589953	-1.581818
941.778617	-1.200000
943.966744	0.002797
946.152391	1.454545
948.341390	1.160839
950.525966	4.433566
952.710007	5.544056
954.897398	7.604196
957.076485	10.720280
959.258923	8.710490
961.440827	8.037762
963.620257	8.846154
965.797214	7.193007
967.975578	7.300699
970.155350	5.752448
972.328773	5.558042
974.505542	7.090909
976.677905	10.488112
978.851674	10.075524
981.021040	10.826573
983.193751	13.994406
985.363995	14.692308
987.533711	13.786014
989.702898	8.310490
991.867688	4.573427
994.035819	4.644755
996.199556	3.186014
998.364699	3.264336
1000.527384	2.240559
1002.689542	3.699301
1004.849244	4.723077
1007.008422	5.717483
1009.169006	10.590210
1011.327135	9.309091
1013.484740	7.839161
1015.641822	6.941259
1017.798381	7.890909
1019.950560	12.331469
1022.104145	11.952448
1024.257209	11.006993
1026.407825	10.025175
1028.559846	12.787413
1030.707494	11.693706
1032.858474	8.840559
1035.005083	9.166434
1037.151174	7.018182
1039.296745	6.530070
1041.443722	7.588811
1043.584411	10.335664
1045.728428	12.721678
1047.870005	11.050350
1050.011066	10.829371
1052.153531	11.998601
1054.289717	12.072727
1056.429229	11.413986
1058.564385	13.274126
1060.702866	15.349650
1062.836993	14.804196
1064.970607	16.511888
1067.105626	16.425175
1069.236295	17.153846
1071.368369	13.303497
1073.498014	11.067133
1075.627147	11.036364
1077.755768	8.781818
1079.883878	8.806993
1082.009562	8.130070
1084.134736	9.041958
1086.261314	9.043357
1088.383555	7.423776
1090.507199	10.153846
1092.626510	7.047552
1094.751049	8.076923
1096.869343	6.345455
1098.989042	7.041958
1101.106322	8.188811
1103.223096	6.847552
1105.339363	3.809790
1107.453215	2.272727
1109.568470	3.935664
1111.679403	6.972028
1113.793647	6.616783
1115.903571	7.837762
1118.014899	5.597203
1120.125722	6.082517
1122.232230	4.234965
1124.342046	7.439161
1126.447548	6.716084
1128.554453	7.826573
1130.655143	5.062937
1132.761045	7.422378
1134.862638	12.544056
1136.965634	15.173427
1139.068129	16.524476
1141.164417	17.000000
1143.265913	17.349650
1145.363106	16.441958
1147.459800	12.243357
1149.555996	11.609790
1151.651695	7.114685
1153.746896	5.583217
1155.839700	-0.453147
1157.933906	1.181818
1160.021921	3.706294
1162.115134	5.334266
1164.202159	8.429371
1166.292483	13.552448
1168.378520	17.278322
1170.467854	18.516084
1172.551007	15.758042
1174.635563	15.672727
1176.721519	11.467133
1178.803194	5.503497
1180.886271	-0.127273
1182.966962	0.225175
1185.047161	-2.103497
1187.126869	1.935664
1189.206086	2.897902
1191.282921	6.686713
1193.357375	6.896503
1195.435121	8.562238
1197.508596	10.560839
1199.583472	9.493706
1201.654081	9.033566
1203.726092	10.478322
1205.795726	12.741259
1207.866761	16.875524
1209.937308	16.086713
1212.003594	16.324476
1214.071281	13.681119
1216.136596	14.690909
1218.203311	11.979021
1220.265770	7.916084
1222.331514	5.641958
1224.393005	2.710490
1226.455895	6.675524
1228.516418	12.050350
1230.576457	14.102098
1232.636014	15.248951
1234.693205	14.717483
1236.749915	12.429371
1238.804262	15.808392
1240.861889	17.532867
1242.917154	10.472727
1244.968178	5.170629
1247.020602	5.836364
1249.072546	6.015385
1251.122132	10.274126
1253.171239	9.433566
1255.219868	7.197203
1257.268018	6.844755
1259.315690	8.467133
1261.359131	7.888112
1263.405847	11.486713
1265.450210	13.155245
1267.494097	12.050350
1269.535633	16.619580
1271.574819	18.163636
1273.617277	19.194406
1275.655513	18.742657
1277.695148	13.429371
1279.734308	9.951049
1281.769249	5.600000
1283.805590	2.050350
1285.839585	0.460140
1287.874979	0.474126
1289.906159	3.558042
1291.938738	6.060140
1293.970844	7.002797
1296.000610	5.892308
1298.031774	7.555245
1300.058730	7.086713
1302.087084	8.251748
1304.111234	7.156643
1306.138648	7.381818
1308.161860	9.251748
1310.186470	12.945455
1312.208746	14.444755
1314.232419	13.482517
1316.253759	13.509091
1318.274631	10.688112
1320.295037	12.657343
1322.311248	12.009790
1324.328858	14.675524
1326.344139	13.939860
1328.362678	11.678322
1330.377029	14.380420
1332.389054	18.793007
1334.404336	16.732867
1336.415433	12.055944
1338.427927	10.293706
1340.436238	9.517483
1342.447805	11.162238
1344.453332	13.958042
1346.462115	11.858741
1348.466720	13.654545
1350.474579	10.952448
1352.481976	9.492308
1354.483342	10.152448
1356.486105	12.223776
1358.488407	7.693706
1360.490250	7.573427
1362.491633	10.914685
1364.490703	11.334266
1366.489314	12.816783
1368.487467	8.728671
1370.485162	7.545455
1372.478693	6.717483
1374.473621	6.009790
1376.468092	4.349650
1378.462106	3.932867
1380.453813	7.269930
1382.445064	7.646154
1384.434010	8.314685
1386.424351	9.215385
1388.414237	9.756643
1390.401820	8.791608
1392.388948	3.916084
1394.373776	5.081119
1396.359997	3.384615
1398.343919	3.029371
1400.327388	4.801399
1402.310405	6.883916
1404.291123	11.269930
1406.273237	9.932867
1408.253053	9.716084
1410.232419	12.997203
1412.207645	13.344056
1414.186111	13.808392
1416.162282	9.766434
1418.138005	6.973427
1420.113278	3.976224
1422.086260	1.528671
1424.058794	2.619580
1426.030881	-0.062937
1428.002519	-2.731469
1429.970029	-4.138462
1431.942614	-1.553846
1433.907392	2.787413
1435.877243	5.665734
1437.842969	10.432168
1439.810088	10.478322
1441.774924	6.081119
1443.735641	6.769231
1445.701425	2.928671
1447.661254	-0.358042
1449.622476	-3.881119
1451.585091	-4.079720
1453.543591	-3.492308
1455.501649	-2.630769
1457.459264	2.419580
1459.416438	7.012587
1461.371336	11.570629
1463.327626	10.450350
1465.281642	9.102098
1467.235218	10.172028
1469.186521	7.552448
1471.139216	6.562238
1473.089640	8.674126
1475.039625	7.935664
1476.989170	5.706294
1478.936447	2.593007
1480.881457	6.875524
1482.827858	5.109091
1484.773823	5.900699
1486.719349	3.671329
1488.662611	3.826573
1490.605436	5.309091
1492.545998	8.767832
1494.487951	8.311888
1496.427643	9.906294
1498.366899	8.612587
1500.305720	7.187413
1502.242282	4.499301
1504.180235	6.229371
1506.115930	4.878322
1508.051191	5.602797
1509.984195	5.398601
1511.916767	4.632168
1513.848907	3.630769
1515.780615	5.193007
1517.710069	4.053147
1519.640914	7.600000
1521.571328	10.827972
1523.497668	11.524476
1525.425400	13.802797
1527.350881	14.345455
1529.275933	15.786014
1531.200556	13.103497
1533.124750	10.387413
1535.046697	7.292308
1536.970033	5.892308
1538.891124	6.216783
1540.809970	7.565035
1542.730206	10.506294
1544.648198	12.688112
1546.565764	15.320280
1548.481088	18.432168
1550.397802	22.667133
1552.310461	24.332867
1554.226324	26.716084
1556.139947	27.351049
1558.051333	28.851748
1559.964107	32.455944
1561.872832	36.276923
1563.782947	42.532867
1565.692638	44.218182
1567.601905	43.601399
1569.508939	42.085315
1571.413740	43.450350
1573.319930	43.213986
1575.223888	39.848951
1577.127426	36.395804
1579.030542	29.795804
1580.931430	27.191608
1582.833705	24.379021
1584.733753	24.320280
1586.635188	26.132867
1588.532590	21.436364
1590.429573	17.109091
1592.326138	11.791608
1594.224091	10.903497
1596.116209	9.998601
1598.011520	10.437762
1599.906414	8.560839
1601.799086	11.476923
1603.691342	14.718881
1605.581377	14.556643
1607.470998	16.349650
1609.360202	19.928671
1611.248992	19.893706
1613.135565	15.654545
1615.023524	13.444755
1616.907467	11.925874
1618.792798	12.061538
1620.677714	12.668531
1622.560417	12.565035
1624.444507	12.772028
1626.324586	10.015385
1628.206051	7.853147
1630.085306	7.588811
1631.965947	5.762238
1633.840784	5.183217
1635.720603	5.984615
1637.596416	7.535664
1639.471819	6.500699
1641.348609	10.446154
1643.219601	12.664336
1645.093775	13.760839
1646.963951	11.486713
1648.837307	9.107692
1650.708460	11.078322
1652.577411	9.809790
1654.447748	4.882517
1656.314091	6.422378
1658.181820	10.040559
1660.047351	8.127273
1661.914266	4.281119
1663.777193	4.753846
1665.641505	4.321678
1667.503621	6.809790
1669.365333	4.555245
1671.228429	7.272727
1673.089331	10.283916
1674.948039	9.447552
1676.806344	7.724476
1678.666034	6.780420
1680.519957	5.675524
1682.377052	0.570629
1684.233745	-5.553846
1686.086462	-6.194406
1687.942349	-7.353846
1689.794263	-8.057343
1691.645776	-9.490909
1693.496888	-3.802797
1695.347600	0.454545
1697.197911	2.379021
1699.046038	5.081119
1700.895548	8.324476
1702.739310	9.716084
1704.588021	8.223776
1706.430987	10.213986
1708.277118	9.054545
1710.119288	7.541259
1711.964622	7.896503
1713.804216	6.724476
1715.645194	11.054545
1717.487555	10.488112
1719.325960	9.397203
1721.165748	7.528671
1723.003361	7.875524
1724.840578	8.980420
1726.675622	11.397203
1728.512049	14.383217
1730.346304	13.781818
1732.180164	13.447552
1734.013631	15.229371
1735.843151	14.299301
1737.675830	17.495105
1739.504565	13.669930
1741.336458	9.766434
1743.164408	4.100699
1744.991966	4.994406
1746.819132	4.496503
1748.645907	4.983217
1750.472291	4.881119
1752.294738	3.660140
1754.120339	2.000000
1755.942006	3.191608
1757.765055	5.441958
1759.585943	7.853147
1761.406441	9.036364
1763.228321	6.383217
1765.044501	10.475524
1766.863833	10.970629
1768.679238	9.660140
1770.497793	13.223776
1772.312423	13.353846
1774.126667	10.208392
1775.940523	8.358042
1777.753993	6.942657
1779.565310	4.650350
1781.378008	1.791608
1783.190319	0.874126
1784.998713	-1.676923
1786.808488	3.177622
1788.614347	2.725874
1790.423352	5.766434
1792.228444	10.702098
1794.034917	10.725874
1795.841006	11.356643
1797.643185	12.995804
1799.448507	12.104895
1801.249921	8.048951
1803.052715	6.146853
1804.851603	4.535664
1806.651872	2.443357
1808.451759	3.965035
1810.249505	3.760839
1812.046869	3.323077
1813.843854	3.102098
1815.640458	1.151049
1817.434923	1.997203
1819.230767	1.812587
1821.020957	2.485315
1822.816043	1.299301
1824.605476	0.120280
1826.398046	2.367832
1828.188481	4.872727
1829.976782	5.655944
1831.768218	4.934266
1833.554008	1.703497
1835.341178	0.485315
1837.126216	0.302098
1838.914388	0.962238
1840.698674	2.882517
1842.480831	4.172028
1844.264366	5.074126
1846.045773	5.616783
1847.828559	8.654545
1849.607465	9.717483
1851.387749	7.587413
1853.165907	7.075524
1854.945444	5.840559
1856.722856	9.029371
1858.498144	11.538462
1860.274811	13.454545
1862.049354	13.033566
1863.825276	11.986014
1865.595578	12.525874
1867.369006	13.998601
1869.140315	12.895105
1870.911254	13.011189
1872.683569	11.004196
1874.450272	3.539860
1876.220099	1.186014
1877.986063	1.211189
1879.755151	-1.225175
1881.520377	-2.208392
1883.285234	-3.015385
1885.051469	1.114685
1886.813845	4.711888
1888.575854	9.921678
1890.337495	13.190210
1892.098770	15.265734
1893.859677	16.251748
1895.620218	13.648951
1897.378649	12.177622
1899.136715	10.195804
1900.892672	6.418182
1902.650007	8.041958
1904.406975	6.069930
1906.161838	7.793007
1907.914595	7.239161
1909.666989	4.625175
1911.420758	5.254545
1913.172424	5.657343
1914.921988	8.779021
1916.672928	7.516084
1918.423504	1.162238
1920.170241	0.972028
1921.918355	-2.047552
1923.664369	0.513287
1925.411759	0.027972
1927.157050	3.902098
1928.900244	1.365035
1930.644814	1.303497
1932.387287	3.434965
1934.129400	8.137063
1935.871153	11.440559
1937.612547	13.113287
1939.351847	15.200000
1941.090787	18.538462
1942.829370	15.848951
1944.565860	17.654545
1946.301993	17.376224
1948.039500	18.510490
1949.773185	15.517483
1951.508245	15.067133
1953.241217	15.135664
1954.973832	14.918881
1956.706090	13.527273
1958.437992	12.497902
1960.167808	11.227972
1961.895540	5.924476
1963.624645	1.455944
1965.353396	-0.965035
1967.080063	1.335664
1968.806376	4.861538
1970.534062	4.741259
1972.256212	2.405594
1973.981463	4.783217
1975.702908	3.972028
1977.427452	-0.813986
1979.149917	-2.653147
1980.868578	-6.296503
1982.590338	-8.661538
1984.308296	-9.780420
1986.027627	-8.837762
1987.743159	-4.562238
1989.463512	-2.230769
1991.180065	-1.735664
1992.892823	1.667133
1994.608676	6.765035
1996.322456	13.351049
1998.035887	12.885315
1999.747247	14.394406
2001.459980	14.113287
2003.168921	12.895105
2004.880956	9.514685
2006.587481	11.332867
2008.297099	9.026573
2010.004649	7.078322
2011.711852	5.448951
2013.416989	7.695105
2015.121779	4.685315
2016.827941	4.527273
2018.530321	-0.097902
2020.234073	-2.753846
2021.935761	-1.398601
2023.637105	-0.907692
2025.338103	0.172028
2027.037041	4.671329
2028.737349	9.566434
2030.433883	13.306294
2032.131788	14.131469
2033.827634	11.623776
2035.526566	7.125874
2037.220012	3.953846
2038.914830	1.917483
2040.609304	1.534266
2042.300010	4.244755
2043.993800	3.124476
2045.683823	1.860140
2047.375217	7.683916
2049.064558	13.000000
2050.755269	10.676923
2052.442218	8.935664
2054.128826	6.932867
2055.816805	5.608392
2057.501024	7.123077
2059.186613	8.118881
2060.871863	9.338462
2062.555065	9.918881
2064.239636	9.697902
2065.918745	11.162238
2067.602639	16.267133
2069.281073	16.559441
2070.962583	11.766434
2072.640343	13.181818
2074.317765	11.741259
2075.996558	8.836364
2077.673307	7.530070
2079.348015	5.899301
2081.024092	6.706294
2082.698129	3.313287
2084.371830	5.041958
2086.045196	4.695105
2087.716524	5.060140
2089.387517	6.591608
2091.058176	5.885315
2092.728500	8.763636
2094.398491	8.257343
2096.066446	6.262937
2097.734068	7.134266
2099.399655	11.713287
2101.066612	12.132867
2102.731534	7.770629
2104.396125	6.468531
2106.058684	1.857343
2107.722611	-2.008392
2109.384508	-1.994406
2111.046073	-1.187413
2112.707307	-2.393007
2114.366513	-4.507692
2116.025388	-2.795804
2117.683934	4.222378
2119.342150	7.749650
2120.996642	10.337063
2122.654199	8.579021
2124.311427	6.832168
2125.964933	4.763636
2127.619807	5.064336
2129.270963	4.662937
2130.925180	5.156643
2132.575681	0.593007
2134.227548	-4.829371
2135.874007	-0.972028
2137.525221	1.131469
2139.172721	2.437762
2140.821588	7.219580
2142.468437	6.420979
2144.114959	8.036364
2145.761156	7.956643
2147.403645	8.359441
2149.049192	8.826573
2150.691032	10.829371
2152.335929	6.925874
2153.977121	8.497902
2155.617989	11.088112
2157.258533	10.699301
2158.897065	11.903497
2160.536964	13.916084
2162.173162	13.520280
2163.810726	10.236364
2165.447967	6.359441
2167.083199	6.879720
2168.718110	9.634965
2170.352699	13.565035
2171.986966	14.830769
2173.617541	19.179021
2175.251166	21.518881
2176.881100	21.632168
2178.512399	19.608392
2180.141694	22.188811
2181.770668	21.609790
2183.399324	16.811189
2185.027660	15.861538
2186.653993	17.317483
2188.280008	18.913287
2189.904022	20.846154
2191.529400	18.776224
2193.152779	16.204196
2194.777521	14.608392
2196.398583	8.234965
2198.019328	1.699301
2199.641438	3.871329
2201.261550	2.390210
2202.879665	-0.497902
2204.497465	0.883916
2206.114950	4.632168
2207.732119	5.979021
2209.348973	8.556643
2210.965512	11.853147
2212.580057	13.651748
2214.192610	14.474126
2215.806527	11.044755
2217.418453	7.054545
2219.031742	10.145455
2220.643041	10.019580
2222.252350	5.657343
2223.863023	5.654545
2225.471707	6.545455
2227.080079	5.509091
2228.686463	9.086713
2230.294211	10.156643
2231.899972	11.041958
2233.505422	9.276923
2235.108887	3.226573
2236.713716	2.269930
2238.316560	0.146853
2239.917421	-2.696503
2241.519645	-7.674126
2243.119886	-5.867133
2244.721490	-2.660140
2246.319442	0.367832
2247.918756	5.507692
2249.516090	5.710490
2251.113115	6.439161
2252.711503	6.843357
2254.306242	5.271329
2255.899004	6.423776
2257.493129	2.068531
2259.088615	2.093706
2260.680457	-1.194406
2262.271992	0.453147
2263.864888	2.528671
2265.452475	4.869930
2267.044759	8.730070
2268.631735	5.283916
2270.221740	2.960839
2271.806440	7.653147
2273.395834	8.148252
2274.979925	10.048951
2276.565378	9.370629
2278.148861	14.092308
2279.735371	12.497902
2281.318247	11.832168
2282.900819	10.976923
2284.483088	11.030769
2286.061728	12.677622
2287.643391	9.036364
2289.221426	6.119580
2290.802484	5.953846
2292.379916	5.680420
2293.955383	9.423776
2295.533873	10.252448
2297.108739	12.711888
2298.683304	10.347552
2300.257569	7.197203
2301.831533	9.367133
2303.405197	10.492308
2304.978560	10.608392
2306.548305	7.348252
2308.117751	4.623776
2309.690216	2.156643
2311.257405	2.962238
2312.827613	5.832168
2314.394206	2.930070
2315.962159	0.813986
2317.528156	-1.769231
2319.093856	-2.644755
2320.659259	0.169231
2322.222707	0.293706
2323.787515	0.490909
2325.348715	2.634965
2326.912929	3.391608
2328.471882	4.198601
2330.033848	6.176224
2331.593864	8.558042
2333.153584	5.495105
2334.711355	7.019580
2336.268831	5.903497
2337.826013	3.383217
2339.381248	5.797203
2340.936188	5.697902
2342.490835	2.142657
2344.045188	-0.904895
2345.599247	-3.138462
2347.153012	-3.597203
2348.704834	-4.888112
2350.254712	-3.037762
2351.807598	0.759441
2353.355242	6.713287
2354.905893	7.391608
2356.452954	8.994406
2358.001372	13.395804
2359.549498	16.460140
2361.094036	15.911888
2362.639933	15.570629
2364.183890	15.434965
2365.729205	10.702098
2367.270935	8.787413
2368.814022	9.755245
2370.355174	12.441958
2371.896036	11.323077
2373.436609	12.858741
2374.976893	13.416783
2376.516887	14.443357
2378.053304	15.686713
2379.592722	11.751049
2381.128563	8.156643
2382.665760	3.454545
2384.199382	-2.000000
2385.736005	-5.044755
2387.270696	-5.097902
2388.803458	-3.145455
2390.335933	-0.730070
2391.866481	3.297902
2393.400026	4.464336
2394.928360	8.903497
2396.458050	10.991608
2397.987455	10.116084
2399.516574	11.931469
2401.045409	9.748252
2402.569038	7.321678
2404.097304	5.023776
2405.620366	12.132867
2407.148062	13.036364
2408.668919	15.111888
2410.194409	11.307692
2411.716338	11.588811
2413.239623	12.868531
2414.760987	10.186014
2416.280431	6.215385
2417.801230	5.088112
2419.320110	-1.137063
2420.838708	-2.675524
2422.355389	-1.730070
2423.873424	6.563636
2425.391178	6.423776
2426.905381	10.342657
2428.419303	10.688112
2429.932945	14.446154
2431.447942	12.848951
2432.959390	9.232168
2434.472193	8.815385
2435.983083	7.818182
2437.493693	3.721678
2439.002392	-0.138462
2440.514078	-3.362238
2442.022219	-4.720280
2443.530083	-6.170629
2445.037669	-3.864336
2446.541714	-5.138462
2448.048745	-4.372028
2449.553867	-3.474126
2451.058712	-0.516084
2452.561650	2.942657
2454.064311	4.009790
2455.566696	6.415385
2457.067176	1.916084
2458.569009	2.744056
2460.068938	3.211189
2461.568591	3.201399
2463.067968	4.013986
2464.565443	0.439161
2466.061017	2.434965
2467.559570	2.690909
2469.054594	3.872727
2470.550972	6.565035
2472.043823	7.205594
2473.538026	10.075524
2475.031956	8.120280
2476.522363	10.767832
2478.015746	10.563636
2479.507232	11.981818
2480.996821	14.427972
2482.486138	7.114685
2483.973560	8.236364
2485.463957	3.924476
2486.950835	4.723077
2488.439065	8.556643
2489.923779	6.360839
2491.408222	4.731469
2492.894017	6.250350
2494.377919	6.616783
2495.863173	5.065734
2497.343293	8.324476
2498.826385	6.274126
2500.307587	2.657343
2501.788520	4.949650
2503.267564	4.065734
2504.746339	5.116084
2506.224846	4.888112
2507.703085	0.920280
2509.181055	1.276923
2510.655521	2.040559
2512.132955	3.299301
2513.606886	1.366434
2515.082168	6.693706
2516.557182	7.116084
2518.028695	9.236364
2519.501558	10.304895
2520.972539	13.576224
2522.444870	14.973427
2523.912088	12.321678
2525.382271	9.402797
2526.850574	7.626573
2528.318612	2.837762
2529.786385	4.630769
2531.253893	2.208392
2532.721136	4.545455
2534.184887	2.737063
2535.649988	2.110490
2537.113212	4.433566
2538.577786	7.711888
2540.038870	12.756643
2541.501304	13.271329
2542.963475	14.590210
2544.422160	16.748252
2545.885417	15.759441
2547.343577	18.485315
2548.803086	16.401399
2550.257502	14.074126
2551.716487	11.765035
2553.173601	8.558042
2554.628844	1.879720
2556.083826	1.227972
2557.536938	2.576224
2558.991399	4.118881
2560.443991	8.211189
2561.896323	7.927273
2563.346787	10.855944
2564.800207	14.381818
2566.248545	17.146853
2567.699839	18.539860
2569.149266	18.657343
2570.595221	15.766434
2572.044132	6.321678
2573.489571	2.882517
2574.936359	0.970629
2576.381283	0.881119
2577.825950	2.723077
2579.271964	-0.102098
2580.714511	5.798601
2582.158406	5.881119
2583.598836	8.462937
2585.040613	8.151049
2586.480531	9.783217
2587.921796	10.805594
2589.359600	4.303497
2590.800353	2.714685
2592.236043	3.483916
2593.674683	4.570629
2595.111466	6.630769
2596.546392	7.068531
2597.984267	9.843357
2599.417083	9.239161
2600.851247	7.909091
2602.283557	5.352448
2603.717213	7.941259
2605.149016	10.779021
2606.580566	7.976224
2608.011862	8.752448
2609.441306	9.379021
2610.870499	10.902098
2612.297840	10.377622
2613.726528	11.401399
2615.154963	11.448951
2616.579951	10.341259
2618.006286	6.965035
2619.430772	3.366434
2620.856604	4.158042
2622.278992	7.552448
2623.702726	8.569231
2625.124613	8.977622
2626.546251	10.716084
2627.966043	13.304895
2629.387181	14.053147
2630.808069	13.774825
2632.225519	12.854545
2633.645908	14.113287
2635.062860	10.486713
2636.479564	10.495105
2637.896019	11.132867
2639.312226	12.246154
2640.728184	11.316084
2642.142302	10.741259
2643.556173	10.008392
2644.968204	10.134266
2646.381580	7.167832
2647.791526	5.639161
2649.204407	7.320280
2650.613861	8.423776
2652.023068	7.246154
2653.430439	10.374825
2654.840744	11.460140
2656.249213	10.721678
2657.655847	10.881119
2659.062236	10.685315
2660.466791	6.264336
2661.872690	6.700699
2663.276756	3.829371
2664.680578	7.114685
2666.084155	8.345455
2667.485900	8.678322
2668.888989	10.040559
2670.288661	10.534266
2671.689675	13.310490
2673.087274	9.023776
2674.487803	8.078322
2675.884917	6.706294
2677.283374	8.888112
2678.680003	11.907692
2680.076390	12.615385
2681.472536	19.208392
2682.866855	22.686713
2684.262517	23.018182
2685.654769	24.770629
2687.048365	22.913287
2688.440136	19.258741
2689.833249	12.618182
2691.224539	12.004196
2692.614006	13.125874
2694.003233	13.516084
2695.392221	12.923077
2696.782551	13.555245
2698.167896	15.492308
2699.556165	17.239161
2700.942614	17.475524
2702.328824	21.118881
2703.714796	19.869930
2705.097368	19.820979
2706.481283	18.662937
2707.864960	21.167832
2709.248399	20.405594
2710.628442	15.206993
2712.009827	12.832168
2713.389396	9.265734
2714.770307	7.672727
2716.149403	7.506294
2717.526684	5.938462
2718.905307	7.695105
2720.282117	8.186014
2721.658691	7.739860
2723.035029	3.165035
2724.409555	1.560839
2725.785422	1.433566
2727.157902	1.609790
2728.533298	5.366434
2729.903734	8.791608
2731.275511	8.560839
2732.647053	10.144056
2734.016787	11.330070
2735.387862	15.095105
2736.757129	15.972028
2738.126162	11.627972
2739.493388	6.886713
2740.860382	5.027972
2742.227143	10.648951
2743.593671	9.349650
2744.958394	12.404196
2746.322886	10.444755
2747.687145	7.383217
2749.051172	12.025175
2750.414968	16.097902
2751.775390	16.648951
2753.138723	15.917483
2754.497113	11.067133
2755.858413	8.034965
2757.216342	5.846154
2758.577181	5.973427
2759.936219	0.781818
2761.291889	1.090909
2762.650467	0.039161
2764.005679	4.627972
2765.360661	8.637762
2766.713846	10.779021
2768.069938	10.815385
2769.422666	13.307692
2770.775165	10.583217
2772.127436	8.601399
2773.481046	4.902098
2774.831294	2.374825
2776.179749	-1.837762
2777.531108	-2.008392
2778.879108	-1.148252
2780.228447	4.475524
2781.575993	4.297902
2782.923312	4.695105
2784.270405	5.478322
2785.615707	10.462937
2786.960783	8.518881
2788.305633	6.067133
2789.650256	3.843357
2790.991528	2.366434
2792.334138	0.306294
2793.676522	-0.313287
2795.018682	-0.220979
2796.357492	3.394406
2797.699201	-0.349650
2799.037563	-2.826573
2800.377262	-4.671329
2801.715175	-2.689510
2803.051304	-5.468531
2804.387209	-4.991608
2805.724452	-2.458741
2807.059911	2.320280
2808.395147	4.840559
2809.728600	6.738462
2811.063391	9.565035
2812.394840	12.408392
2813.729185	9.453147
2815.058632	10.735664
2816.389416	9.247552
2817.719978	10.521678
2819.048761	10.267133
2820.378880	9.226573
2821.707221	8.395804
2823.035341	6.911888
2824.361684	2.187413
2825.689362	3.857343
2827.013708	2.707692
2828.339389	2.255944
2829.663295	1.069930
2830.986982	3.841958
2832.312004	1.836364
2833.633696	3.710490
2834.955170	6.563636
2836.276425	4.658741
2837.597461	4.453147
2838.916725	0.788811
2840.237324	-0.813986
2841.556151	3.050350
2842.874760	1.928671
2844.191598	4.275524
2845.508220	4.788811
2846.824623	6.906294
2848.139258	6.006993
2849.455227	7.483916
2850.767876	9.300699
2852.081861	7.243357
2853.395628	4.927273
2854.709180	3.338462
2856.020964	2.358042
2857.330982	3.528671
2858.642335	4.437762
2859.950373	10.068531
2861.259746	13.051748
2862.568903	15.490909
2863.877845	14.461538
2865.185024	15.695105
2866.490439	11.523077
2867.797189	11.981818
2869.102176	9.657343
2870.406950	7.640559
2871.709962	8.037762
2873.015856	6.669930
2874.316894	2.765035
2875.619267	6.949650
2876.919880	4.307692
2878.221827	0.493706
2879.523561	-3.546853
2880.821990	-1.711888
2882.121754	-2.109091
2883.419759	4.152448
2884.717553	4.205594
2886.013591	4.137063
2887.310962	5.560839
2888.606577	4.893706
2889.901981	2.241958
2891.197175	5.788811
2892.489070	3.055944
2893.783842	1.127273
2895.075317	-0.804196
2896.368125	2.910490
2897.660723	4.653147
2898.950027	3.988811
2900.240663	1.683916
2901.529548	0.576224
2902.819766	-2.173427
2904.106692	-0.461538
2905.394950	0.009790
2906.681458	4.511888
2907.967759	6.040559
2909.253851	5.219580
2910.538195	6.479720
2911.825411	11.819580
2913.107799	11.338462
2914.391520	10.176224
2915.673495	9.271329
2916.955263	5.325874
2918.235285	1.755245
2919.518177	-1.330070
2920.799324	-2.027972
2922.077189	-1.567832
2923.357923	0.215385
2924.635376	-1.373427
2925.912623	1.500699
2927.188129	4.664336
2928.466502	5.788811
2929.740060	5.556643
2931.016486	4.951049
2932.291171	6.987413
2933.564116	8.211189
2934.838391	5.636364
2936.110927	6.440559
2937.383259	8.020979
2938.652317	10.116084
2939.924241	7.046154
2941.194427	3.416783
2942.464410	3.495105
2943.734189	1.513287
2945.002231	-2.907692
2946.268538	-2.289510
2947.534642	-1.560839
2948.802076	-1.513287
2950.067776	-1.065734
2951.333273	-2.583217
2952.598568	-0.629371
2953.860598	-0.593007
2955.123959	1.735664
2956.387117	-0.723077
2957.648544	0.774825
2958.911300	2.793007
2960.172325	5.520280
2961.431618	7.650350
2962.690712	8.262937
2963.949605	10.297902
2965.208298	9.689510
2966.466791	6.236364
2967.723555	7.075524
2968.980119	4.011189
2970.234956	5.258741
2971.491122	1.384615
2972.744032	-0.327273
2973.998272	2.629371
2975.252313	2.383217
2976.504628	2.211189
2977.756745	2.605594
2979.007137	-0.018182
2980.260384	0.704895
2981.508854	1.460140
2982.760178	2.604196
2984.008254	1.665734
2985.256132	6.559441
2986.503813	9.630769
2987.751298	8.707692
2988.997061	9.787413
2990.242627	9.741259
2991.489521	4.990210
2992.733171	2.903497
2993.978149	-0.826573
2995.219884	2.615385
2996.464470	3.460140
2997.707336	3.531469
2998.946962	3.618182
3000.189438	5.188811
3001.428675	5.893706
3002.669239	5.404196
3003.908086	7.299301
3005.146739	6.535664
3006.383676	3.727273
3007.621940	3.813986
3008.858490	4.832168
3010.094845	5.092308
3011.331007	3.450350
3012.565456	1.751049
3013.799711	0.872727
3015.033773	0.532867
3016.266123	-0.419580
3017.496761	3.475524
3018.730245	4.987413
3019.962017	4.738462
3021.192079	4.788811
3022.421949	4.590210
3023.650109	5.613986
3024.879595	2.928671
3026.107373	4.398601
3027.334959	3.669930
3028.563871	5.634965
3029.788041	8.325874
3031.015054	6.804196
3032.238843	8.267133
3033.463959	3.570629
3034.687368	5.227972
3035.910588	7.104895
3037.132102	7.020979
3038.356457	5.653147
3039.576077	4.418182
3040.797022	1.069930
3042.017779	1.809790
3043.236832	2.388811
3044.457211	3.363636
3045.674373	1.109091
3046.892860	1.426573
3048.109646	2.921678
3049.326243	6.914685
3050.542652	4.615385
3051.755849	3.297902
3052.971883	0.622378
3054.184705	1.423776
3055.400364	1.945455
3056.611300	4.069930
3057.823561	3.413986
3059.035636	7.927273
3060.247524	8.117483
3061.457714	11.257343
3062.667718	11.238462
3063.877537	6.387413
3065.085659	2.624476
3066.293595	3.570629
3067.499837	1.683217
3068.707402	3.258741
3069.913274	2.623077
3071.118960	0.145455
3072.324461	-0.909790
3073.528269	1.834965
3074.733401	1.592308
3075.936841	0.085315
3077.138588	-0.189510
3078.340152	1.363636
3079.541532	3.637762
3080.742728	5.563636
3081.942234	0.843357
3083.141556	-0.795804
3084.342202	-1.383217
3085.541158	1.123077
3086.736920	-0.833566
3087.935511	0.749650
3089.130908	2.130070
3090.327628	4.331469
3091.521156	8.798601
3092.717513	12.302098
3093.912182	9.555245
3095.103661	5.488112
3096.299471	0.181818
3097.490588	-1.581818
3098.683027	-2.874126
3099.872279	-7.078322
3101.064357	-9.748252
3102.254750	-8.260140
3103.441958	-5.485315
3104.630489	-0.725874
3105.820342	0.318881
3107.007010	0.383217
3108.193499	0.746853
3109.379808	5.611189
3110.567439	7.570629
3111.751889	7.913287
3112.934658	6.527273
3114.120251	4.446154
3115.304163	5.745455
3116.486397	7.450350
3117.668452	7.123077
3118.850330	8.130070
3120.032029	6.994406
3121.212050	5.142657
3122.390395	5.558042
3123.571561	8.029371
3124.749551	7.606993
3125.927364	6.253147
3127.105000	5.772028
3128.280961	5.039161
3129.456745	4.219580
3130.633851	6.146853
3131.809282	4.766434
3132.983040	5.709091
3134.155126	2.924476
3135.328532	0.861538
3136.501763	1.400000
3137.673321	7.605594
3138.846201	9.939860
3140.015913	10.545455
3141.186946	16.103497
3142.356308	17.633566
3143.524001	19.664336
3144.694509	18.622378
3145.860358	15.155245
3147.030517	10.427972
3148.196018	1.506294
3149.361346	-2.883916
3150.526500	-3.507692
3151.691480	-4.208392
3152.857781	-5.292308
3154.019428	-4.047552
3155.182396	2.394406
3156.345190	4.416783
3157.507812	6.972028
3158.668769	7.506294
3159.829553	6.897902
3160.990165	0.506294
3162.149114	-2.527273
3163.307890	-6.149650
3164.466495	-6.784615
3165.624928	-3.948252
3166.783189	-4.839161
3167.939788	-2.253147
3169.094726	2.892308
3170.250983	8.686713
3171.405580	10.883916
3172.560005	11.127273
3173.712771	10.732867
3174.865367	6.321678
3176.017792	8.520280
3177.170048	7.149650
3178.322134	7.745455
3179.471073	10.123077
3180.622819	3.179021
3181.772907	4.598601
3182.921339	5.027972
3184.069602	7.369231
3185.217695	10.204196
3186.365620	9.942657
3187.511890	11.879720
3188.657991	11.883916
3189.802437	13.730070
3190.946716	12.282517
3192.090827	8.574825
3193.236256	10.109091
3194.378545	5.780420
3195.520668	3.260140
3196.662623	2.300699
3197.804412	2.676923
3198.946033	5.053147
3200.084518	2.472727
3201.224321	2.847552
3202.365442	1.018182
3203.503428	1.001399
3204.639765	3.753846
3205.775936	4.653147
3206.913425	4.422378
3208.049264	1.041958
3209.186421	0.248951
3210.318965	2.106294
3211.455791	4.296503
3212.588005	3.086713
3213.721537	1.819580
3214.854903	-1.918881
3215.985142	-2.352448
3217.118179	-1.166434
3218.248090	0.183217
3219.379318	-4.429371
3220.507420	-6.523077
3221.638319	-7.271329
3222.767575	-4.342657
3223.895186	-1.429371
3225.019676	2.241958
3226.148441	3.854545
3227.274084	5.360839
3228.399564	3.409790
3229.523403	8.892308
3230.650036	12.717483
3231.772072	12.366434
3232.895424	14.362238
3234.018614	14.485315
3235.141642	13.255944
3236.263030	12.834965
3237.384257	10.297902
3238.503845	8.549650
3239.623272	7.555245
3240.741061	5.142657
3241.861643	5.355245
3242.979110	9.478322
3244.096418	9.811189
3245.213564	7.552448
3246.329075	7.907692
3247.445901	3.689510
3248.559616	2.469930
3249.676122	-0.288112
3250.790992	-4.099301
3251.902754	-4.200000
3253.014357	-3.783217
3254.127274	-1.211189
3255.240033	1.630769
3256.349685	3.253147
3257.460652	5.615385
3258.571459	3.476923
3259.680636	2.699301
3260.788181	4.688112
3261.897041	6.030769
3263.005742	6.572028
3264.111341	4.717483
3265.218254	9.535664
3266.323539	14.047552
3267.430137	15.248951
3268.533635	12.044755
3269.638447	8.096503
3270.743102	7.525874
3271.844658	3.805594
3272.946059	4.654545
3274.048773	6.025175
3275.151330	4.546853
3276.250792	5.120280
3277.353036	4.862937
3278.452185	10.292308
3279.549710	12.454545
3280.647079	11.615385
3281.747231	7.128671
3282.844289	6.394406
3283.941192	6.805594
3285.037941	5.662937
3286.130130	3.135664
3287.226568	2.966434
3288.321385	-1.520280
3289.416046	-0.422378
3290.509086	0.443357
3291.601972	3.356643
3292.693237	5.149650
3293.785815	7.296503
3294.876772	8.391608
3295.966110	9.900699
3297.055295	7.626573
3298.145793	8.630769
3299.233206	5.152448
3300.320467	1.643357
3301.409040	-2.748252
3302.497460	-0.911888
3303.581333	0.307692
3304.669448	2.013986
3305.754482	0.503497
3306.837899	0.806993
3307.922629	3.179021
3309.005744	5.406993
3310.090170	7.516084
3311.171518	8.158042
3312.254178	5.012587
3313.335224	2.100699
3314.416119	1.969231
3315.495401	2.135664
3316.574532	0.338462
3317.654974	2.855944
3318.732343	1.988811
3319.811022	5.153846
3320.888091	8.679720
3321.965009	11.198601
3323.040316	10.283916
3324.115474	9.633566
3325.191943	10.332867
3326.265342	9.132867
3327.338592	4.745455
3328.413153	-1.145455
3329.486104	-3.848951
3330.557448	-0.474126
3331.630102	-2.205594
3332.699689	3.029371
3333.770587	2.916084
3334.839878	4.123077
3335.910480	4.137063
3336.979475	3.040559
3338.046864	2.009790
3339.112648	-0.952448
3340.182658	-5.488112
3341.249605	-6.290909
3342.313490	-5.654545
3343.380143	-1.265734
3344.445191	0.206993
3345.508636	7.545455
3346.571935	5.012587
3347.635088	6.288112
3348.698094	6.756643
3349.760953	5.911888
3350.822211	5.005594
3351.880412	6.060140
3352.942834	8.746853
3354.002199	8.953846
3355.061419	7.032168
3356.121949	9.337063
3357.177969	8.344056
3358.236754	7.665734
3359.291031	1.462937
3360.348071	2.292308
3361.403514	1.822378
3362.460265	2.432168
3363.515419	4.237762
3364.568975	7.699301
3365.620934	8.956643
3366.675655	8.099301
3367.727327	10.606993
3368.778856	10.156643
3369.831694	12.882517
3370.881484	11.384615
3371.932582	6.248951
3372.980635	7.811189
3374.031448	4.356643
3375.079215	4.671329
3376.126840	5.917483
3377.174322	4.241958
3378.220212	-0.633566
3379.267410	-1.879720
3380.311566	-4.332867
3381.358480	-5.632168
3382.403802	-1.202797
3383.446084	-2.323077
3384.488224	-1.577622
3385.531672	0.359441
3386.574980	-0.451748
3387.616697	1.524476
3388.658273	3.439161
3389.699709	2.924476
3390.739555	-2.144056
3391.777814	-0.716084
3392.817380	-2.461538
3393.856805	-1.446154
3394.894643	-0.313287
3395.930895	-1.283916
3396.967006	0.765035
3398.004425	-0.626573
3399.038811	-0.100699
3400.074504	0.307692
3401.110058	1.777622
3402.142581	1.713287
3403.177857	-0.843357
3404.210102	1.932867
3405.242209	2.472727
3406.272732	3.254545
3407.304563	2.541259
3408.336254	4.191608
3409.364919	6.699301
3410.393445	8.702098
3411.423279	7.857343
3412.452974	6.215385
3413.479644	5.777622
3414.507621	2.434965
3415.532573	3.128671
3416.560275	5.889510
3417.584954	3.639161
3418.610939	2.248951
3419.635344	-0.216783
3420.659613	1.851748
3421.682303	2.019580
3422.704857	1.598601
3423.728717	-1.148252
3424.749557	-0.267133
3425.770262	0.760240
3426.792272	2.081668
3427.811264	3.561838
3428.830121	5.065435
3429.850283	6.457143
3430.867429	7.601648
