-118.389184	1.600000
-115.719584	-6.600000
-113.052919	13.800000
-110.387006	10.400000
-107.724025	6.000000
-105.059615	4.000000
-102.398135	11.400000
-99.735225	-8.000000
-97.077423	15.200000
-94.418190	4.600000
-91.759706	18.000000
-89.104147	-14.200000
-86.447159	4.200000
-83.795268	18.400000
-81.141948	-14.800000
-78.491548	2.800000
-75.839718	15.000000
-73.192979	-12.600000
-70.544810	16.000000
-67.897385	-0.200000
-65.252873	-6.800000
-62.606933	29.200000
-59.966074	9.400000
-57.323786	23.200000
-54.684406	12.200000
-52.043598	-9.600000
-49.403530	20.800000
-46.768534	11.400000
-44.132109	-17.600000
-41.498588	28.000000
-38.863638	8.600000
-36.233753	6.400000
-33.600276	3.400000
-30.971861	6.200000
-28.344179	23.000000
-25.715070	12.000000
-23.091017	-12.800000
-20.463375	9.000000
-17.840786	-7.200000
-15.218928	-3.000000
-12.597802	-2.600000
-9.977405	10.000000
-7.359896	17.600000
-4.740959	35.200000
-2.124908	113.000000
0.490415	126.400000
3.105011	71.200000
5.716724	36.600000
8.329866	32.200000
10.937974	-8.800000
13.549664	4.600000
16.156323	16.000000
18.764410	11.800000
21.371773	13.200000
23.974111	30.000000
26.580027	12.000000
29.180921	-15.600000
31.783243	1.000000
34.380548	13.600000
36.981428	-6.400000
39.577294	11.000000
42.174587	19.000000
44.771161	0.600000
47.362726	-10.000000
49.955719	0.400000
52.545851	11.800000
55.137411	18.800000
57.726111	17.200000
60.316238	-30.200000
62.901367	11.200000
65.487922	8.000000
68.073764	-3.200000
70.656752	9.800000
73.241167	16.200000
75.818452	14.000000
78.399304	-10.200000
80.977307	9.000000
83.554600	1.400000
86.133319	-5.000000
88.707057	-15.800000
91.282221	15.800000
93.854542	0.400000
96.426155	-7.400000
98.994928	-8.200000
101.565128	17.600000
104.132490	1.800000
106.701277	10.400000
109.267228	4.400000
111.830344	25.800000
114.397016	12.400000
116.954467	-6.600000
119.517603	10.400000
122.075780	-7.000000
124.637510	0.200000
127.194285	11.200000
129.752485	32.600000
132.305733	-7.800000
134.858282	14.400000
137.414382	8.600000
139.965535	11.400000
142.515989	9.800000
145.065747	25.600000
147.612685	8.200000
150.158927	11.000000
152.706595	-0.200000
155.253568	38.000000
157.795604	-15.800000
160.336947	17.600000
162.877597	14.000000
165.419673	25.600000
167.958938	23.400000
170.495393	6.000000
173.031158	-16.800000
175.568348	23.400000
178.104846	29.200000
180.638539	33.200000
183.169429	20.200000
185.699630	23.200000
188.231256	25.000000
190.760081	18.400000
193.286107	5.400000
195.811448	9.200000
198.338213	10.400000
200.862181	6.200000
203.385465	-0.200000
205.908064	4.800000
208.427870	24.400000
210.946993	13.000000
213.465433	7.800000
215.985297	-2.200000
218.498160	8.200000
221.014554	26.200000
223.530266	7.200000
226.041089	0.000000
228.553336	-2.200000
231.062800	27.600000
233.571586	0.200000
236.079694	28.000000
238.589225	25.000000
241.093877	8.800000
243.597852	18.000000
246.103251	3.400000
248.603775	26.000000
251.107822	15.000000
253.604899	12.600000
256.105498	7.200000
258.603326	40.000000
261.100481	11.600000
263.596963	1.600000
266.088582	22.800000
268.583721	34.800000
271.076094	15.000000
273.567796	29.800000
276.056735	16.400000
278.547097	18.800000
281.034698	37.000000
283.519539	-7.400000
286.007894	8.800000
288.489310	21.600000
290.974240	23.400000
293.454325	15.200000
295.937922	0.600000
298.416676	12.200000
300.896854	25.200000
303.374279	-1.000000
305.851041	25.800000
308.327140	10.200000
310.800490	14.000000
313.273178	21.600000
315.745205	14.600000
318.216571	13.000000
320.685193	10.000000
323.153155	3.800000
325.622540	-1.400000
328.087102	6.400000
330.555167	-1.600000
333.018413	16.400000
335.481002	9.600000
337.942933	20.800000
340.404208	12.800000
342.862749	14.000000
345.322712	22.400000
347.779942	3.800000
350.236518	20.600000
352.692440	26.200000
355.145633	6.800000
357.600247	-13.000000
360.050060	28.000000
362.503370	8.800000
364.951880	6.600000
367.399740	-4.400000
369.849021	36.400000
372.293509	27.600000
374.739419	-7.600000
377.184680	28.600000
379.627222	11.600000
382.069116	29.000000
384.510362	7.000000
386.948893	15.200000
389.388846	15.200000
391.826085	-3.800000
394.260612	28.800000
396.698627	12.200000
399.131865	0.800000
401.566525	5.200000
403.996411	19.800000
406.429783	26.000000
408.858385	26.200000
411.286346	-0.200000
413.715727	28.600000
416.140343	17.800000
418.566381	28.400000
420.991778	12.600000
423.416535	-8.800000
425.836534	3.200000
428.257954	-12.800000
430.676677	18.000000
433.096821	16.800000
435.514270	24.000000
437.933139	-20.400000
440.349315	23.400000
442.760744	43.400000
445.175649	17.000000
447.587864	19.600000
449.999445	11.600000
452.410392	12.200000
454.818653	20.600000
457.226281	18.400000
459.633278	20.600000
462.039642	27.000000
464.443324	9.000000
466.846376	-19.000000
469.248798	20.600000
471.650591	17.400000
474.049705	-2.200000
476.450239	-1.400000
478.850144	32.200000
481.245326	6.200000
483.643975	-0.200000
486.037904	19.200000
488.431207	-4.600000
490.823884	8.400000
493.215936	0.400000
495.609407	32.600000
497.998165	19.200000
500.384257	9.400000
502.771769	4.800000
505.158657	-14.400000
507.542882	6.800000
509.928526	8.800000
512.311507	8.600000
514.691828	5.200000
517.073568	1.600000
519.452649	8.800000
521.833149	18.600000
524.210991	-8.800000
526.586178	5.400000
528.960747	9.600000
531.336735	-2.200000
533.710069	6.800000
536.084821	-12.600000
538.454888	15.400000
540.824339	11.000000
543.195208	6.600000
545.561397	18.200000
547.929004	23.600000
550.293965	15.000000
552.658313	3.000000
555.022049	14.000000
557.387202	10.000000
559.747682	29.200000
562.109581	4.400000
564.468840	-6.800000
566.825460	20.000000
569.185525	0.200000
571.538900	0.600000
573.895719	-8.000000
576.249902	4.000000
578.603478	23.600000
580.956445	-15.800000
583.306781	24.000000
585.658533	-6.200000
588.003609	19.200000
590.354149	1.600000
592.698016	-0.400000
595.047343	20.000000
597.392023	6.200000
599.734077	-1.000000
602.077549	12.600000
604.418398	16.800000
606.758645	-18.600000
609.096271	19.800000
611.437332	20.000000
613.773756	14.400000
616.111596	-4.600000
618.446818	2.400000
620.779425	8.800000
623.113448	1.400000
625.444858	-5.000000
627.775669	10.200000
630.105882	21.200000
632.435497	19.800000
634.760490	9.000000
637.090924	16.200000
639.416736	-0.800000
641.739942	10.000000
644.064563	10.400000
646.386580	1.600000
648.708002	-5.200000
651.026821	0.200000
653.347056	10.400000
655.666698	17.000000
657.983739	15.000000
660.300188	30.400000
662.614040	17.800000
664.929306	3.000000
667.241976	30.200000
669.556061	-4.800000
671.865546	13.400000
674.176447	26.000000
676.484755	1.600000
678.792475	0.200000
681.101610	31.200000
683.406152	20.400000
685.710107	19.000000
688.013477	28.600000
690.318261	14.400000
692.618459	8.600000
694.920071	4.800000
697.221099	37.600000
699.517544	-11.800000
701.815405	30.600000
704.112682	13.000000
706.409376	-9.400000
708.701494	-1.000000
710.997023	16.400000
713.287979	10.600000
715.580349	11.600000
717.870143	22.400000
720.159358	23.000000
722.447992	-5.400000
724.734055	8.200000
727.021531	-10.600000
729.306437	33.600000
731.590764	-12.600000
733.872523	1.200000
736.155696	-7.800000
738.438292	10.200000
740.716333	19.400000
742.995787	22.800000
745.274666	23.200000
747.552969	14.800000
749.826723	16.200000
752.101891	1.400000
754.376485	-5.200000
756.648520	23.600000
758.921967	-6.200000
761.192857	-9.800000
763.461191	13.000000
765.730938	10.600000
767.998131	20.600000
770.264753	26.400000
772.530806	20.400000
774.794306	28.200000
777.059220	3.400000
779.323564	18.200000
781.583379	25.400000
783.844607	4.200000
786.105267	4.800000
788.363380	-7.600000
790.618949	24.000000
792.877909	5.000000
795.130370	-3.600000
797.388198	23.400000
799.641506	-0.800000
801.892275	-12.600000
804.144456	13.800000
806.394099	22.200000
808.645153	-15.000000
810.891696	18.200000
813.139651	4.000000
815.385072	8.400000
817.631904	11.400000
819.878175	7.000000
822.119942	6.800000
824.365091	0.400000
826.603768	10.800000
828.845828	39.800000
831.083389	4.200000
833.322361	25.200000
835.558807	9.600000
837.796664	6.600000
840.031997	21.200000
842.264805	-13.800000
844.499025	10.200000
846.730723	19.000000
848.961866	12.400000
851.192454	26.200000
853.422488	-1.400000
855.651967	-11.400000
857.876965	21.000000
860.105338	20.800000
862.329232	14.000000
864.554536	17.800000
866.775365	13.000000
868.999566	-1.800000
871.219294	-3.000000
873.440433	29.800000
875.661021	-4.800000
877.879099	11.400000
880.098588	-0.800000
882.313610	10.000000
884.528084	12.000000
886.742011	8.000000
888.955390	-11.800000
891.168222	21.800000
893.380508	-21.800000
895.590291	-1.400000
897.799529	-4.000000
900.008222	1.200000
902.214416	23.400000
904.422019	18.200000
906.627125	11.000000
908.831687	15.000000
911.033753	16.000000
913.237229	15.200000
915.438211	30.800000
917.638652	29.000000
919.840501	-1.800000
922.035958	-13.200000
924.234775	-5.600000
926.429153	16.000000
928.626889	4.000000
930.820189	20.400000
933.014898	14.800000
935.207121	27.200000
937.398806	-10.400000
939.589953	37.800000
941.778617	12.800000
943.966744	-10.000000
946.152391	-2.800000
948.341390	26.600000
950.525966	12.600000
952.710007	-4.600000
954.897398	-2.000000
957.076485	32.000000
959.258923	0.000000
961.440827	15.800000
963.620257	6.800000
965.797214	1.400000
967.975578	-3.600000
970.155350	20.400000
972.328773	-7.600000
974.505542	20.600000
976.677905	9.000000
978.851674	0.000000
981.021040	7.000000
983.193751	7.200000
985.363995	8.200000
987.533711	3.800000
989.702898	11.000000
991.867688	14.000000
994.035819	20.400000
996.199556	-15.400000
998.364699	14.400000
1000.527384	-13.800000
1002.689542	26.400000
1004.849244	9.400000
1007.008422	23.200000
1009.169006	19.800000
1011.327135	-3.000000
1013.484740	6.200000
1015.641822	9.600000
1017.798381	27.200000
1019.950560	16.400000
1022.104145	9.000000
1024.257209	27.600000
1026.407825	13.600000
1028.559846	23.000000
1030.707494	14.600000
1032.858474	-8.000000
1035.005083	-3.600000
1037.151174	-7.200000
1039.296745	2.600000
1041.443722	4.000000
1043.584411	0.000000
1045.728428	-4.200000
1047.870005	5.000000
1050.011066	13.200000
1052.153531	16.600000
1054.289717	14.000000
1056.429229	9.800000
1058.564385	16.600000
1060.702866	10.200000
1062.836993	18.000000
1064.970607	19.400000
1067.105626	11.200000
1069.236295	18.200000
1071.368369	8.600000
1073.498014	22.800000
1075.627147	12.200000
1077.755768	-14.600000
1079.883878	-1.000000
1082.009562	19.000000
1084.134736	16.000000
1086.261314	29.000000
1088.383555	10.200000
1090.507199	24.400000
1092.626510	18.200000
1094.751049	12.600000
1096.869343	18.600000
1098.989042	3.600000
1101.106322	19.600000
1103.223096	-23.000000
1105.339363	20.200000
1107.453215	1.800000
1109.568470	28.800000
1111.679403	0.800000
1113.793647	26.000000
1115.903571	-17.000000
1118.014899	19.800000
1120.125722	5.600000
1122.232230	1.000000
1124.342046	-5.600000
1126.447548	12.000000
1128.554453	-15.200000
1130.655143	6.400000
1132.761045	1.600000
1134.862638	21.800000
1136.965634	20.800000
1139.068129	11.800000
1141.164417	-4.800000
1143.265913	6.400000
1145.363106	9.400000
1147.459800	16.800000
1149.555996	25.600000
1151.651695	10.000000
1153.746896	23.800000
1155.839700	16.000000
1157.933906	-9.400000
1160.021921	3.600000
1162.115134	-6.600000
1164.202159	7.600000
1166.292483	24.400000
1168.378520	-1.800000
1170.467854	7.800000
1172.551007	11.800000
1174.635563	1.000000
1176.721519	12.600000
1178.803194	16.400000
1180.886271	-2.000000
1182.966962	22.400000
1185.047161	6.000000
1187.126869	-31.800000
1189.206086	-7.800000
1191.282921	8.800000
1193.357375	16.600000
1195.435121	10.000000
1197.508596	0.800000
1199.583472	21.400000
1201.654081	14.600000
1203.726092	19.000000
1205.795726	27.600000
1207.866761	16.600000
1209.937308	16.000000
1212.003594	26.400000
1214.071281	13.400000
1216.136596	14.200000
1218.203311	10.400000
1220.265770	2.000000
1222.331514	19.800000
1224.393005	31.400000
1226.455895	24.000000
1228.516418	-3.800000
1230.576457	-1.800000
1232.636014	7.800000
1234.693205	38.400000
1236.749915	46.000000
1238.804262	17.000000
1240.861889	17.400000
1242.917154	1.400000
1244.968178	1.600000
1247.020602	0.400000
1249.072546	41.000000
1251.122132	-3.600000
1253.171239	7.600000
1255.219868	30.000000
1257.268018	15.600000
1259.315690	-3.400000
1261.359131	35.000000
1263.405847	-3.400000
1265.450210	3.800000
1267.494097	1.800000
1269.535633	22.200000
1271.574819	26.200000
1273.617277	20.000000
1275.655513	51.000000
1277.695148	8.600000
1279.734308	16.000000
1281.769249	-3.400000
1283.805590	9.000000
1285.839585	29.400000
1287.874979	28.000000
1289.906159	9.800000
1291.938738	7.200000
1293.970844	8.000000
1296.000610	1.800000
1298.031774	11.200000
1300.058730	8.800000
1302.087084	20.400000
1304.111234	7.600000
1306.138648	21.400000
1308.161860	22.400000
1310.186470	26.400000
1312.208746	28.200000
1314.232419	21.200000
1316.253759	26.600000
1318.274631	19.400000
1320.295037	3.400000
1322.311248	20.800000
1324.328858	1.800000
1326.344139	20.800000
1328.362678	21.400000
1330.377029	22.200000
1332.389054	13.200000
1334.404336	8.800000
1336.415433	0.800000
1338.427927	8.000000
1340.436238	16.200000
1342.447805	23.600000
1344.453332	6.200000
1346.462115	25.000000
1348.466720	8.200000
1350.474579	26.600000
1352.481976	15.000000
1354.483342	-8.000000
1356.486105	0.600000
1358.488407	12.400000
1360.490250	4.000000
1362.491633	18.800000
1364.490703	34.800000
1366.489314	23.800000
1368.487467	7.800000
1370.485162	31.000000
1372.478693	10.400000
1374.473621	6.400000
1376.468092	11.000000
1378.462106	0.200000
1380.453813	4.800000
1382.445064	5.600000
1384.434010	7.200000
1386.424351	9.600000
1388.414237	26.400000
1390.401820	23.200000
1392.388948	9.600000
1394.373776	1.200000
1396.359997	17.800000
1398.343919	7.400000
1400.327388	12.200000
1402.310405	16.200000
1404.291123	25.400000
1406.273237	18.200000
1408.253053	9.800000
1410.232419	13.400000
1412.207645	-5.600000
1414.186111	23.400000
1416.162282	-6.000000
1418.138005	-5.000000
1420.113278	30.600000
1422.086260	-5.000000
1424.058794	17.000000
1426.030881	-3.400000
1428.002519	-9.200000
1429.970029	7.600000
1431.942614	-0.200000
1433.907392	4.800000
1435.877243	13.400000
1437.842969	6.800000
1439.810088	12.800000
1441.774924	21.000000
1443.735641	7.200000
1445.701425	3.600000
1447.661254	-3.800000
1449.622476	-3.200000
1451.585091	2.600000
1453.543591	18.400000
1455.501649	19.600000
1457.459264	11.600000
1459.416438	1.200000
1461.371336	8.600000
1463.327626	19.800000
1465.281642	9.800000
1467.235218	5.000000
1469.186521	-7.600000
1471.139216	21.200000
1473.089640	1.800000
1475.039625	7.800000
1476.989170	3.200000
1478.936447	19.600000
1480.881457	-7.000000
1482.827858	23.000000
1484.773823	1.200000
1486.719349	7.800000
1488.662611	14.400000
1490.605436	12.600000
1492.545998	20.800000
1494.487951	31.200000
1496.427643	-9.800000
1498.366899	16.600000
1500.305720	1.400000
1502.242282	13.400000
1504.180235	7.000000
1506.115930	9.200000
1508.051191	1.000000
1509.984195	6.600000
1511.916767	-4.200000
1513.848907	18.400000
1515.780615	27.200000
1517.710069	2.800000
1519.640914	4.400000
1521.571328	-8.800000
1523.497668	6.800000
1525.425400	19.600000
1527.350881	13.600000
1529.275933	15.800000
1531.200556	16.600000
1533.124750	-5.600000
1535.046697	22.200000
1536.970033	-6.200000
1538.891124	38.400000
1540.809970	1.600000
1542.730206	17.800000
1544.648198	16.600000
1546.565764	-12.800000
1548.481088	-18.000000
1550.397802	20.000000
1552.310461	15.800000
1554.226324	34.200000
1556.139947	15.200000
1558.051333	37.400000
1559.964107	30.800000
1561.872832	41.200000
1563.782947	61.800000
1565.692638	46.000000
1567.601905	46.600000
1569.508939	32.000000
1571.413740	38.400000
1573.319930	37.000000
1575.223888	21.000000
1577.127426	23.600000
1579.030542	32.600000
1580.931430	36.000000
1582.833705	34.000000
1584.733753	17.600000
1586.635188	7.200000
1588.532590	36.400000
1590.429573	19.600000
1592.326138	20.200000
1594.224091	3.200000
1596.116209	5.800000
1598.011520	6.200000
1599.906414	14.000000
1601.799086	5.200000
1603.691342	6.800000
1605.581377	6.200000
1607.470998	25.200000
1609.360202	32.800000
1611.248992	33.000000
1613.135565	26.200000
1615.023524	19.600000
1616.907467	-1.600000
1618.792798	17.200000
1620.677714	24.200000
1622.560417	-0.600000
1624.444507	19.400000
1626.324586	12.200000
1628.206051	12.600000
1630.085306	17.600000
1631.965947	-11.800000
1633.840784	7.800000
1635.720603	13.800000
1637.596416	12.200000
1639.471819	7.000000
1641.348609	12.000000
1643.219601	33.600000
1645.093775	14.200000
1646.963951	6.000000
1648.837307	2.800000
1650.708460	13.800000
1652.577411	10.800000
1654.447748	9.200000
1656.314091	1.600000
1658.181820	6.400000
1660.047351	17.800000
1661.914266	0.800000
1663.777193	15.400000
1665.641505	20.400000
1667.503621	6.800000
1669.365333	-4.600000
1671.228429	17.000000
1673.089331	16.600000
1674.948039	13.600000
1676.806344	4.800000
1678.666034	6.800000
1680.519957	7.400000
1682.377052	-4.200000
1684.233745	9.200000
1686.086462	9.200000
1687.942349	-2.600000
1689.794263	6.800000
1691.645776	-10.600000
1693.496888	-15.600000
1695.347600	9.400000
1697.197911	4.600000
1699.046038	10.200000
1700.895548	8.200000
1702.739310	11.000000
1704.588021	10.600000
1706.430987	4.400000
1708.277118	10.400000
1710.119288	19.400000
1711.964622	-17.800000
1713.804216	2.400000
1715.645194	27.400000
1717.487555	7.200000
1719.325960	15.400000
1721.165748	6.800000
1723.003361	15.800000
1724.840578	18.200000
1726.675622	-4.600000
1728.512049	3.000000
1730.346304	9.200000
1732.180164	28.800000
1734.013631	16.200000
1735.843151	14.000000
1737.675830	28.400000
1739.504565	-8.000000
1741.336458	19.200000
1743.164408	19.000000
1744.991966	18.800000
1746.819132	18.400000
1748.645907	14.600000
1750.472291	-5.000000
1752.294738	34.200000
1754.120339	-2.200000
1755.942006	7.200000
1757.765055	28.000000
1759.585943	15.000000
1761.406441	-2.400000
1763.228321	19.400000
1765.044501	9.000000
1766.863833	29.800000
1768.679238	1.400000
1770.497793	21.400000
1772.312423	-5.200000
1774.126667	22.000000
1775.940523	-10.200000
1777.753993	20.800000
1779.565310	18.800000
1781.378008	0.800000
1783.190319	-12.000000
1784.998713	-2.000000
1786.808488	15.400000
1788.614347	-2.800000
1790.423352	24.400000
1792.228444	13.800000
1794.034917	6.200000
1795.841006	29.000000
1797.643185	4.000000
1799.448507	25.200000
1801.249921	13.400000
1803.052715	-5.000000
1804.851603	9.000000
1806.651872	17.400000
1808.451759	-3.400000
1810.249505	-2.000000
1812.046869	18.400000
1813.843854	8.200000
1815.640458	12.200000
1817.434923	15.600000
1819.230767	25.800000
1821.020957	1.000000
1822.816043	13.800000
1824.605476	7.600000
1826.398046	15.600000
1828.188481	1.600000
1829.976782	9.000000
1831.768218	16.400000
1833.554008	13.200000
1835.341178	36.600000
1837.126216	-9.200000
1838.914388	2.200000
1840.698674	19.800000
1842.480831	5.800000
1844.264366	28.800000
1846.045773	30.000000
1847.828559	5.000000
1849.607465	28.200000
1851.387749	0.800000
1853.165907	16.800000
1854.945444	-4.800000
1856.722856	8.800000
1858.498144	19.000000
1860.274811	19.600000
1862.049354	12.000000
1863.825276	22.600000
1865.595578	16.400000
1867.369006	19.000000
1869.140315	-19.200000
1870.911254	5.600000
1872.683569	-1.400000
1874.450272	9.200000
1876.220099	15.800000
1877.986063	5.000000
1879.755151	6.600000
1881.520377	-7.400000
1883.285234	-2.400000
1885.051469	3.400000
1886.813845	2.200000
1888.575854	19.400000
1890.337495	19.800000
1892.098770	-6.200000
1893.859677	10.000000
1895.620218	-6.800000
1897.378649	0.800000
1899.136715	10.000000
1900.892672	17.800000
1902.650007	12.400000
1904.406975	3.800000
1906.161838	-4.600000
1907.914595	26.000000
1909.666989	15.200000
1911.420758	19.000000
1913.172424	-4.400000
1914.921988	-9.200000
1916.672928	-3.200000
1918.423504	-3.200000
1920.170241	26.400000
1921.918355	10.400000
1923.664369	1.200000
1925.411759	-12.200000
1927.157050	-8.600000
1928.900244	19.000000
1930.644814	4.400000
1932.387287	16.800000
1934.129400	1.400000
1935.871153	15.600000
1937.612547	-20.400000
1939.351847	18.000000
1941.090787	3.200000
1942.829370	19.600000
1944.565860	3.600000
1946.301993	9.900000
1948.039500	16.200000
1949.773185	2.600000
1951.508245	-3.600000
1953.241217	-0.600000
1954.973832	23.000000
1956.706090	30.600000
1958.437992	-1.600000
1960.167808	5.800000
1961.895540	3.600000
1963.624645	1.200000
1965.353396	13.000000
1967.080063	5.600000
1968.806376	2.200000
1970.534062	-19.600000
1972.256212	6.000000
1973.981463	4.200000
1975.702908	26.800000
1977.427452	-6.800000
1979.149917	0.400000
1980.868578	9.800000
1982.590338	12.400000
1984.308296	0.400000
1986.027627	-26.600000
1987.743159	6.000000
1989.463512	-12.600000
1991.180065	0.600000
1992.892823	-12.400000
1994.608676	-3.600000
1996.322456	2.200000
1998.035887	23.000000
1999.747247	16.600000
2001.459980	3.800000
2003.168921	8.800000
2004.880956	19.000000
2006.587481	7.800000
2008.297099	-3.200000
2010.004649	25.200000
2011.711852	15.400000
2013.416989	13.600000
2015.121779	14.600000
2016.827941	-0.200000
2018.530321	20.800000
2020.234073	7.600000
2021.935761	4.200000
2023.637105	-13.200000
2025.338103	1.800000
2027.037041	-8.600000
2028.737349	32.200000
2030.433883	21.600000
2032.131788	11.600000
2033.827634	15.600000
2035.526566	26.400000
2037.220012	10.600000
2038.914830	-5.000000
2040.609304	3.800000
2042.300010	2.600000
2043.993800	18.400000
2045.683823	-4.600000
2047.375217	38.600000
2049.064558	-13.800000
2050.755269	11.600000
2052.442218	-10.000000
2054.128826	19.600000
2055.816805	24.600000
2057.501024	-1.800000
2059.186613	-14.600000
2060.871863	19.600000
2062.555065	6.800000
2064.239636	12.000000
2065.918745	26.000000
2067.602639	-1.800000
2069.281073	14.800000
2070.962583	-4.600000
2072.640343	8.200000
2074.317765	13.400000
2075.996558	19.600000
2077.673307	13.400000
2079.348015	-4.600000
2081.024092	0.600000
2082.698129	7.400000
2084.371830	14.000000
2086.045196	10.400000
2087.716524	26.600000
2089.387517	18.000000
2091.058176	12.200000
2092.728500	46.000000
2094.398491	23.400000
2096.066446	3.600000
2097.734068	23.000000
2099.399655	14.000000
2101.066612	8.600000
2102.731534	-7.800000
2104.396125	19.800000
2106.058684	15.000000
2107.722611	-1.000000
2109.384508	0.200000
2111.046073	5.800000
2112.707307	-1.600000
2114.366513	17.200000
2116.025388	14.600000
2117.683934	16.200000
2119.342150	9.400000
2120.996642	-3.800000
2122.654199	11.200000
2124.311427	20.800000
2125.964933	18.600000
2127.619807	12.200000
2129.270963	16.800000
2130.925180	-10.600000
2132.575681	2.800000
2134.227548	-5.000000
2135.874007	20.000000
2137.525221	-6.200000
2139.172721	1.400000
2140.821588	6.200000
2142.468437	1.000000
2144.114959	16.000000
2145.761156	-1.000000
2147.403645	16.400000
2149.049192	19.600000
2150.691032	9.000000
2152.335929	4.600000
2153.977121	1.800000
2155.617989	15.600000
2157.258533	18.400000
2158.897065	8.800000
2160.536964	27.000000
2162.173162	13.000000
2163.810726	-14.200000
2165.447967	18.200000
2167.083199	5.200000
2168.718110	17.200000
2170.352699	1.400000
2171.986966	-7.600000
2173.617541	29.800000
2175.251166	34.200000
2176.881100	25.800000
2178.512399	16.200000
2180.141694	11.800000
2181.770668	-2.200000
2183.399324	22.600000
2185.027660	4.600000
2186.653993	15.200000
2188.280008	22.800000
2189.904022	22.200000
2191.529400	16.000000
2193.152779	17.800000
2194.777521	15.600000
2196.398583	0.600000
2198.019328	2.000000
2199.641438	-11.400000
2201.261550	-0.200000
2202.879665	11.400000
2204.497465	16.400000
2206.114950	-14.400000
2207.732119	4.600000
2209.348973	19.400000
2210.965512	-0.200000
2212.580057	1.800000
2214.192610	20.600000
2215.806527	20.800000
2217.418453	29.400000
2219.031742	10.400000
2220.643041	17.400000
2222.252350	-8.600000
2223.863023	12.000000
2225.471707	37.200000
2227.080079	23.800000
2228.686463	3.400000
2230.294211	10.800000
2231.899972	21.800000
2233.505422	20.800000
2235.108887	16.200000
2236.713716	25.800000
2238.316560	3.400000
2239.917421	-2.800000
2241.519645	6.200000
2243.119886	-17.800000
2244.721490	30.200000
2246.319442	2.400000
2247.918756	14.000000
2249.516090	-2.600000
2251.113115	-1.400000
2252.711503	-2.200000
2254.306242	8.200000
2255.899004	23.600000
2257.493129	0.000000
2259.088615	12.200000
2260.680457	17.000000
2262.271992	9.000000
2263.864888	12.600000
2265.452475	6.200000
2267.044759	27.600000
2268.631735	7.200000
2270.221740	7.400000
2271.806440	7.800000
2273.395834	15.800000
2274.979925	26.400000
2276.565378	-6.400000
2278.148861	14.600000
2279.735371	26.600000
2281.318247	-8.400000
2282.900819	10.600000
2284.483088	19.800000
2286.061728	36.600000
2287.643391	-6.000000
2289.221426	12.400000
2290.802484	19.600000
2292.379916	13.300000
2293.955383	7.000000
2295.533873	8.600000
2297.108739	-4.800000
2298.683304	-2.800000
2300.257569	17.800000
2301.831533	32.200000
2303.405197	2.000000
2304.978560	-10.400000
2306.548305	-0.400000
2308.117751	1.800000
2309.690216	12.400000
2311.257405	3.400000
2312.827613	14.600000
2314.394206	5.800000
2315.962159	0.200000
2317.528156	6.000000
2319.093856	21.000000
2320.659259	13.400000
2322.222707	-2.800000
2323.787515	1.000000
2325.348715	16.000000
2326.912929	14.200000
2328.471882	13.200000
2330.033848	-2.600000
2331.593864	-2.000000
2333.153584	27.400000
2334.711355	10.200000
2336.268831	21.000000
2337.826013	7.800000
2339.381248	19.400000
2340.936188	23.600000
2342.490835	28.200000
2344.045188	-10.600000
2345.599247	-7.400000
2347.153012	-3.800000
2348.704834	-8.200000
2350.254712	-14.200000
2351.807598	7.400000
2353.355242	12.200000
2354.905893	7.200000
2356.452954	21.400000
2358.001372	22.400000
2359.549498	-9.200000
2361.094036	-9.400000
2362.639933	-4.000000
2364.183890	12.200000
2365.729205	14.400000
2367.270935	14.200000
2368.814022	5.400000
2370.355174	-30.200000
2371.896036	16.200000
2373.436609	9.600000
2374.976893	19.600000
2376.516887	18.000000
2378.053304	9.800000
2379.592722	13.000000
2381.128563	1.000000
2382.665760	7.200000
2384.199382	-11.000000
2385.736005	-7.200000
2387.270696	15.000000
2388.803458	23.800000
2390.335933	7.400000
2391.866481	-1.400000
2393.400026	-1.400000
2394.928360	5.600000
2396.458050	15.800000
2397.987455	1.800000
2399.516574	22.400000
2401.045409	9.800000
2402.569038	20.200000
2404.097304	32.200000
2405.620366	-5.800000
2407.148062	1.400000
2408.668919	-2.400000
2410.194409	19.800000
2411.716338	20.400000
2413.239623	40.600000
2414.760987	-3.600000
2416.280431	-3.800000
2417.801230	-20.200000
2419.320110	29.800000
2420.838708	-5.200000
2422.355389	4.000000
2423.873424	-8.000000
2425.391178	8.800000
2426.905381	9.000000
2428.419303	22.600000
2429.932945	-8.200000
2431.447942	19.200000
2432.959390	19.400000
2434.472193	2.000000
2435.983083	23.000000
2437.493693	0.200000
2439.002392	2.200000
2440.514078	-1.200000
2442.022219	-4.000000
2443.530083	-4.000000
2445.037669	-4.400000
2446.541714	-22.600000
2448.048745	-4.000000
2449.553867	-11.400000
2451.058712	-7.400000
2452.561650	12.600000
2454.064311	-21.200000
2455.566696	18.200000
2457.067176	1.600000
2458.569009	18.400000
2460.068938	-9.600000
2461.568591	21.800000
2463.067968	4.000000
2464.565443	5.800000
2466.061017	13.000000
2467.559570	32.600000
2469.054594	15.600000
2470.550972	8.000000
2472.043823	10.400000
2473.538026	5.400000
2475.031956	-1.200000
2476.522363	10.600000
2478.015746	27.000000
2479.507232	22.600000
2480.996821	15.400000
2482.486138	9.400000
2483.973560	12.200000
2485.463957	16.600000
2486.950835	4.800000
2488.439065	-2.800000
2489.923779	-9.200000
2491.408222	32.000000
2492.894017	-7.600000
2494.377919	14.600000
2495.863173	5.400000
2497.343293	7.400000
2498.826385	-4.600000
2500.307587	34.600000
2501.788520	-6.000000
2503.267564	-0.200000
2504.746339	15.600000
2506.224846	-24.600000
2507.703085	15.400000
2509.181055	7.800000
2510.655521	4.200000
2512.132955	12.200000
2513.606886	-7.800000
2515.082168	-1.600000
2516.557182	9.400000
2518.028695	12.800000
2519.501558	3.200000
2520.972539	-7.400000
2522.444870	9.600000
2523.912088	-14.400000
2525.382271	17.400000
2526.850574	28.600000
2528.318612	-10.000000
2529.786385	5.400000
2531.253893	6.600000
2532.721136	7.600000
2534.184887	6.400000
2535.649988	-17.200000
2537.113212	26.800000
2538.577786	5.000000
2540.038870	9.000000
2541.501304	16.200000
2542.963475	-5.800000
2544.422160	21.200000
2545.885417	20.600000
2547.343577	4.200000
2548.803086	9.000000
2550.257502	5.800000
2551.716487	10.600000
2553.173601	0.000000
2554.628844	21.000000
2556.083826	16.400000
2557.536938	16.200000
2558.991399	8.200000
2560.443991	13.400000
2561.896323	5.200000
2563.346787	29.400000
2564.800207	20.800000
2566.248545	4.800000
2567.699839	25.000000
2569.149266	9.800000
2570.595221	26.600000
2572.044132	14.800000
2573.489571	-3.400000
2574.936359	1.400000
2576.381283	5.800000
2577.825950	3.000000
2579.271964	13.200000
2580.714511	9.200000
2582.158406	26.400000
2583.598836	25.800000
2585.040613	-8.200000
2586.480531	-2.600000
2587.921796	10.600000
2589.359600	-0.400000
2590.800353	13.200000
2592.236043	12.800000
2593.674683	11.800000
2595.111466	8.600000
2596.546392	-5.800000
2597.984267	23.400000
2599.417083	17.600000
2600.851247	16.000000
2602.283557	9.800000
2603.717213	24.400000
2605.149016	14.400000
2606.580566	-9.400000
2608.011862	9.000000
2609.441306	1.000000
2610.870499	34.200000
2612.297840	-2.400000
2613.726528	-6.200000
2615.154963	21.600000
2616.579951	5.000000
2618.006286	15.600000
2619.430772	3.200000
2620.856604	9.600000
2622.278992	20.200000
2623.702726	-0.400000
2625.124613	26.200000
2626.546251	14.000000
2627.966043	29.800000
2629.387181	16.200000
2630.808069	8.600000
2632.225519	7.200000
2633.645908	11.200000
2635.062860	7.400000
2636.479564	-5.600000
2637.896019	16.200000
2639.312226	2.200000
2640.728184	2.400000
2642.142302	1.600000
2643.556173	-2.000000
2644.968204	16.000000
2646.381580	-0.400000
2647.791526	27.800000
2649.204407	19.200000
2650.613861	11.600000
2652.023068	22.000000
2653.430439	27.800000
2654.840744	10.200000
2656.249213	23.400000
2657.655847	-4.800000
2659.062236	4.600000
2660.466791	6.600000
2661.872690	9.400000
2663.276756	16.800000
2664.680578	8.600000
2666.084155	-3.800000
2667.485900	21.200000
2668.888989	32.000000
2670.288661	14.000000
2671.689675	31.400000
2673.087274	25.400000
2674.487803	16.400000
2675.884917	13.600000
2677.283374	-4.200000
2678.680003	7.000000
2680.076390	-1.000000
2681.472536	25.600000
2682.866855	14.400000
2684.262517	42.600000
2685.654769	-3.200000
2687.048365	37.000000
2688.440136	26.800000
2689.833249	26.400000
2691.224539	-9.000000
2692.614006	10.600000
2694.003233	4.000000
2695.392221	55.200000
2696.782551	29.000000
2698.167896	15.600000
2699.556165	3.600000
2700.942614	9.800000
2702.328824	19.600000
2703.714796	25.400000
2705.097368	33.800000
2706.481283	34.600000
2707.864960	46.200000
2709.248399	26.200000
2710.628442	15.600000
2712.009827	12.200000
2713.389396	-0.400000
2714.770307	17.200000
2716.149403	-4.200000
2717.526684	24.600000
2718.905307	20.400000
2720.282117	21.200000
2721.658691	3.400000
2723.035029	16.200000
2724.409555	1.800000
2725.785422	28.600000
2727.157902	8.600000
2728.533298	-5.600000
2729.903734	22.200000
2731.275511	19.200000
2732.647053	27.800000
2734.016787	5.000000
2735.387862	7.000000
2736.757129	3.000000
2738.126162	-3.400000
2739.493388	30.800000
2740.860382	16.800000
2742.227143	-9.200000
2743.593671	-6.000000
2744.958394	-2.800000
2746.322886	-13.000000
2747.687145	36.200000
2749.051172	38.600000
2750.414968	-6.600000
2751.775390	37.000000
2753.138723	7.400000
2754.497113	10.000000
2755.858413	29.600000
2757.216342	5.000000
2758.577181	13.000000
2759.936219	1.800000
2761.291889	11.400000
2762.650467	5.600000
2764.005679	18.800000
2765.360661	2.800000
2766.713846	-6.800000
2768.069938	20.600000
2769.422666	30.600000
2770.775165	11.200000
2772.127436	-3.400000
2773.481046	8.200000
2774.831294	-5.200000
2776.179749	20.400000
2777.531108	13.800000
2778.879108	12.800000
2780.228447	-1.200000
2781.575993	-3.400000
2782.923312	-6.000000
2784.270405	20.400000
2785.615707	8.600000
2786.960783	9.000000
2788.305633	-5.000000
2789.650256	-2.800000
2790.991528	16.000000
2792.334138	3.200000
2793.676522	-0.200000
2795.018682	7.200000
2796.357492	4.000000
2797.699201	10.000000
2799.037563	20.200000
2800.377262	4.600000
2801.715175	4.400000
2803.051304	10.200000
2804.387209	-0.800000
2805.724452	-17.200000
2807.059911	18.800000
2808.395147	23.000000
2809.728600	-11.600000
2811.063391	33.000000
2812.394840	-4.800000
2813.729185	17.800000
2815.058632	-6.800000
2816.389416	5.200000
2817.719978	7.400000
2819.048761	29.200000
2820.378880	15.400000
2821.707221	26.800000
2823.035341	5.000000
2824.361684	26.200000
2825.689362	6.400000
2827.013708	-0.400000
2828.339389	7.000000
2829.663295	-4.000000
2830.986982	19.600000
2832.312004	23.800000
2833.633696	-1.800000
2834.955170	5.000000
2836.276425	5.400000
2837.597461	4.800000
2838.916725	-11.200000
2840.237324	29.200000
2841.556151	0.200000
2842.874760	-7.200000
2844.191598	1.000000
2845.508220	-6.600000
2846.824623	25.200000
2848.139258	13.000000
2849.455227	6.200000
2850.767876	17.600000
2852.081861	17.400000
2853.395628	6.200000
2854.709180	7.600000
2856.020964	12.400000
2857.330982	18.800000
2858.642335	6.200000
2859.950373	1.600000
2861.259746	8.200000
2862.568903	1.000000
2863.877845	18.000000
2865.185024	15.600000
2866.490439	11.600000
2867.797189	-7.800000
2869.102176	-6.000000
2870.406950	13.400000
2871.709962	3.800000
2873.015856	13.400000
2874.316894	7.800000
2875.619267	-7.200000
2876.919880	-10.200000
2878.221827	16.000000
2879.523561	-16.200000
2880.821990	20.800000
2882.121754	22.200000
2883.419759	-13.200000
2884.717553	10.000000
2886.013591	7.000000
2887.310962	16.800000
2888.606577	18.000000
2889.901981	14.800000
2891.197175	6.000000
2892.489070	-9.000000
2893.783842	17.400000
2895.075317	24.800000
2896.368125	-4.200000
2897.660723	16.200000
2898.950027	-2.600000
2900.240663	-9.000000
2901.529548	0.600000
2902.819766	-13.400000
2904.106692	6.600000
2905.394950	27.400000
2906.681458	11.000000
2907.967759	16.400000
2909.253851	-3.800000
2910.538195	0.800000
2911.825411	17.400000
2913.107799	21.000000
2914.391520	4.400000
2915.673495	0.600000
2916.955263	12.800000
2918.235285	7.600000
2919.518177	5.600000
2920.799324	1.600000
2922.077189	-7.400000
2923.357923	-7.400000
2924.635376	-15.600000
2925.912623	-4.600000
2927.188129	15.400000
2928.466502	9.800000
2929.740060	2.000000
2931.016486	-18.600000
2932.291171	-8.000000
2933.564116	21.800000
2934.838391	21.600000
2936.110927	5.200000
2937.383259	16.800000
2938.652317	22.000000
2939.924241	-0.200000
2941.194427	-3.800000
2942.464410	8.000000
2943.734189	-0.600000
2945.002231	-10.600000
2946.268538	6.200000
2947.534642	13.400000
2948.802076	-2.200000
2950.067776	3.400000
2951.333273	5.200000
2952.598568	7.200000
2953.860598	4.600000
2955.123959	13.600000
2956.387117	-9.200000
2957.648544	-7.800000
2958.911300	20.600000
2960.172325	2.200000
2961.431618	18.800000
2962.690712	5.000000
2963.949605	18.200000
2965.208298	10.600000
2966.466791	19.000000
2967.723555	-9.000000
2968.980119	14.000000
2970.234956	3.200000
2971.491122	15.800000
2972.744032	12.400000
2973.998272	12.800000
2975.252313	13.200000
2976.504628	23.800000
2977.756745	-10.800000
2979.007137	20.400000
2980.260384	9.800000
2981.508854	-15.400000
2982.760178	0.800000
2984.008254	6.600000
2985.256132	16.000000
2986.503813	7.600000
2987.751298	9.400000
2988.997061	11.200000
2990.242627	5.600000
2991.489521	8.600000
2992.733171	13.000000
2993.978149	1.000000
2995.219884	19.200000
2996.464470	2.000000
2997.707336	-15.400000
2998.946962	6.200000
3000.189438	9.600000
3001.428675	13.800000
3002.669239	-1.000000
3003.908086	-7.600000
3005.146739	-14.000000
3006.383676	1.800000
3007.621940	12.400000
3008.858490	3.200000
3010.094845	29.600000
3011.331007	-4.200000
3012.565456	-17.400000
3013.799711	-10.600000
3015.033773	9.200000
3016.266123	-3.000000
3017.496761	50.000000
3018.730245	-1.400000
3019.962017	0.600000
3021.192079	1.200000
3022.421949	21.000000
3023.650109	13.600000
3024.879595	-0.800000
3026.107373	6.400000
3027.334959	46.000000
3028.563871	16.200000
3029.788041	-1.200000
3031.015054	-7.000000
3032.238843	9.000000
3033.463959	-5.000000
3034.687368	19.200000
3035.910588	11.400000
3037.132102	7.800000
3038.356457	4.400000
3039.576077	16.600000
3040.797022	3.600000
3042.017779	-9.400000
3043.236832	10.600000
3044.457211	-16.600000
3045.674373	22.800000
3046.892860	10.400000
3048.109646	26.600000
3049.326243	6.000000
3050.542652	18.400000
3051.755849	14.000000
3052.971883	-5.200000
3054.184705	8.800000
3055.400364	-13.200000
3056.611300	-16.400000
3057.823561	0.400000
3059.035636	8.800000
3060.247524	22.800000
3061.457714	0.200000
3062.667718	27.400000
3063.877537	10.000000
3065.085659	3.400000
3066.293595	-1.600000
3067.499837	-5.600000
3068.707402	-3.000000
3069.913274	-2.200000
3071.118960	-1.400000
3072.324461	6.400000
3073.528269	-7.800000
3074.733401	2.200000
3075.936841	16.400000
3077.138588	10.600000
3078.340152	2.600000
3079.541532	2.200000
3080.742728	-2.800000
3081.942234	1.000000
3083.141556	14.400000
3084.342202	-16.200000
3085.541158	-4.400000
3086.736920	1.000000
3087.935511	9.800000
3089.130908	7.200000
3090.327628	-1.600000
3091.521156	26.600000
3092.717513	0.200000
3093.912182	24.600000
3095.103661	10.000000
3096.299471	19.200000
3097.490588	-17.800000
3098.683027	5.200000
3099.872279	-5.600000
3101.064357	2.600000
3102.254750	16.400000
3103.441958	3.800000
3104.630489	0.800000
3105.820342	0.400000
3107.007010	6.200000
3108.193499	-10.600000
3109.379808	-7.800000
3110.567439	6.800000
3111.751889	3.800000
3112.934658	-0.800000
3114.120251	24.800000
3115.304163	1.800000
3116.486397	-1.400000
3117.668452	17.800000
3118.850330	-2.600000
3120.032029	24.400000
3121.212050	3.000000
3122.390395	-1.600000
3123.571561	13.200000
3124.749551	19.400000
3125.927364	16.000000
3127.105000	13.400000
3128.280961	15.600000
3129.456745	20.000000
3130.633851	8.200000
3131.809282	-1.800000
3132.983040	16.800000
3134.155126	-2.800000
3135.328532	16.600000
3136.501763	-3.600000
3137.673321	4.000000
3138.846201	1.200000
3140.015913	-1.200000
3141.186946	21.400000
3142.356308	20.600000
3143.524001	13.200000
3144.694509	19.600000
3145.860358	7.200000
3147.030517	-8.000000
3148.196018	2.800000
3149.361346	26.800000
3150.526500	3.000000
3151.691480	0.800000
3152.857781	-7.200000
3154.019428	15.800000
3155.182396	37.000000
3156.345190	16.000000
3157.507812	-5.200000
3158.668769	9.600000
3159.829553	-1.200000
3160.990165	14.800000
3162.149114	-14.200000
3163.307890	32.800000
3164.466495	6.400000
3165.624928	11.600000
3166.783189	0.000000
3167.939788	7.800000
3169.094726	-9.400000
3170.250983	24.200000
3171.405580	20.000000
3172.560005	2.800000
3173.712771	35.000000
3174.865367	20.000000
3176.017792	-4.000000
3177.170048	-0.800000
3178.322134	10.600000
3179.471073	20.800000
3180.622819	25.600000
3181.772907	10.000000
3182.921339	20.000000
3184.069602	-16.200000
3185.217695	-2.600000
3186.365620	4.000000
3187.511890	12.800000
3188.657991	8.800000
3189.802437	10.600000
3190.946716	19.800000
3192.090827	-5.800000
3193.236256	28.200000
3194.378545	8.800000
3195.520668	21.800000
3196.662623	-6.800000
3197.804412	27.800000
3198.946033	9.000000
3200.084518	-20.800000
3201.224321	3.000000
3202.365442	-1.000000
3203.503428	-0.800000
3204.639765	-3.600000
3205.775936	-9.000000
3206.913425	3.800000
3208.049264	-2.200000
3209.186421	15.400000
3210.318965	0.000000
3211.455791	4.000000
3212.588005	11.200000
3213.721537	1.000000
3214.854903	-6.800000
3215.985142	22.200000
3217.118179	-9.200000
3218.248090	-15.600000
3219.379318	-0.400000
3220.507420	5.200000
3221.638319	14.800000
3222.767575	-3.800000
3223.895186	11.000000
3225.019676	4.400000
3226.148441	9.400000
3227.274084	-13.200000
3228.399564	15.000000
3229.523403	19.800000
3230.650036	-1.800000
3231.772072	21.000000
3232.895424	7.600000
3234.018614	5.600000
3235.141642	12.800000
3236.263030	29.000000
3237.384257	-6.400000
3238.503845	10.600000
3239.623272	-20.600000
3240.741061	3.400000
3241.861643	16.800000
3242.979110	9.600000
3244.096418	1.600000
3245.213564	7.600000
3246.329075	0.200000
3247.445901	16.600000
3248.559616	-16.800000
3249.676122	8.400000
3250.790992	-7.800000
3251.902754	22.200000
3253.014357	1.200000
3254.127274	9.200000
3255.240033	-6.800000
3256.349685	6.800000
3257.460652	4.400000
3258.571459	-1.000000
3259.680636	-3.200000
3260.788181	-3.400000
3261.897041	10.200000
3263.005742	-8.600000
3264.111341	1.000000
3265.218254	24.200000
3266.323539	25.200000
3267.430137	27.800000
3268.533635	25.200000
3269.638447	22.000000
3270.743102	4.800000
3271.844658	10.200000
3272.946059	-11.400000
3274.048773	-10.200000
3275.151330	21.800000
3276.250792	26.600000
3277.353036	9.800000
3278.452185	15.400000
3279.549710	-5.600000
3280.647079	12.800000
3281.747231	15.400000
3282.844289	4.600000
3283.941192	15.400000
3285.037941	9.400000
3286.130130	15.800000
3287.226568	16.600000
3288.321385	9.400000
3289.416046	11.600000
3290.509086	3.600000
3291.601972	14.000000
3292.693237	16.400000
3293.785815	6.400000
3294.876772	21.200000
3295.966110	17.800000
3297.055295	2.000000
3298.145793	-3.000000
3299.233206	-1.400000
3300.320467	2.400000
3301.409040	6.600000
3302.497460	20.400000
3303.581333	5.200000
3304.669448	-4.200000
3305.754482	-22.200000
3306.837899	2.600000
3307.922629	2.800000
3309.005744	3.600000
3310.090170	22.200000
3311.171518	-1.200000
3312.254178	16.200000
3313.335224	-9.400000
3314.416119	11.200000
3315.495401	15.400000
3316.574532	0.200000
3317.654974	14.800000
3318.732343	-15.800000
3319.811022	10.600000
3320.888091	15.800000
3321.965009	10.200000
3323.040316	20.200000
3324.115474	11.600000
3325.191943	25.400000
3326.265342	20.600000
3327.338592	-4.600000
3328.413153	12.400000
3329.486104	18.800000
3330.557448	23.000000
3331.630102	-3.600000
3332.699689	3.000000
3333.770587	2.600000
3334.839878	25.200000
3335.910480	17.600000
3336.979475	24.800000
3338.046864	6.600000
3339.112648	16.400000
3340.182658	22.600000
3341.249605	2.400000
3342.313490	-0.200000
3343.380143	-1.200000
3344.445191	13.600000
3345.508636	-3.600000
3346.571935	11.000000
3347.635088	17.000000
3348.698094	43.800000
3349.760953	-3.600000
3350.822211	11.200000
3351.880412	-5.000000
3352.942834	17.200000
3354.002199	8.400000
3355.061419	9.000000
3356.121949	-6.200000
3357.177969	19.000000
3358.236754	-1.600000
3359.291031	1.200000
3360.348071	19.400000
3361.403514	17.200000
3362.460265	28.000000
3363.515419	17.200000
3364.568975	3.000000
3365.620934	14.800000
3366.675655	1.800000
3367.727327	-19.400000
3368.778856	22.600000
3369.831694	6.000000
3370.881484	0.600000
3371.932582	28.400000
3372.980635	4.600000
3374.031448	10.800000
3375.079215	15.200000
3376.126840	-10.600000
3377.174322	20.000000
3378.220212	11.800000
3379.267410	17.800000
3380.311566	6.400000
3381.358480	6.200000
3382.403802	-8.800000
3383.446084	-22.000000
3384.488224	9.000000
3385.531672	-4.000000
3386.574980	20.400000
3387.616697	9.800000
3388.658273	7.000000
3389.699709	26.200000
3390.739555	7.000000
3391.777814	18.600000
3392.817380	28.400000
3393.856805	3.600000
3394.894643	-12.400000
3395.930895	-3.800000
3396.967006	14.000000
3398.004425	20.000000
3399.038811	-16.600000
3400.074504	-0.400000
3401.110058	-2.400000
3402.142581	46.000000
3403.177857	7.800000
3404.210102	7.200000
3405.242209	1.600000
3406.272732	4.800000
3407.304563	16.600000
3408.336254	24.800000
3409.364919	21.000000
3410.393445	10.400000
3411.423279	1.600000
3412.452974	-11.400000
3413.479644	8.200000
3414.507621	18.400000
3415.532573	-12.400000
3416.560275	-4.600000
3417.584954	9.600000
3418.610939	-7.800000
3419.635344	13.800000
3420.659613	21.600000
3421.682303	-27.000000
3422.704857	-21.200000
3423.728717	-8.600000
3424.749557	8.200000
3425.770262	12.000000
3426.792272	14.400000
3427.811264	13.000000
3428.830121	14.600000
3429.850283	16.800000
3430.867429	-11.600000
