-118.057191	-1.200000
-115.387591	-2.080000
-112.720926	-0.640000
-110.055013	1.030000
-107.392032	0.400000
-104.727622	-0.160000
-102.066142	-6.030000
-99.403232	-3.160000
-96.745430	-0.050000
-94.086197	-0.740000
-91.427713	-1.810000
-88.772154	-1.380000
-86.115166	-10.390000
-83.463275	-2.450000
-80.809955	3.040000
-78.159555	-2.310000
-75.507725	7.650000
-72.860986	-4.770000
-70.212817	2.530000
-67.565392	-0.110000
-64.920880	-0.310000
-62.274940	-1.390000
-59.634081	-3.470000
-56.991793	-3.860000
-54.352413	-1.600000
-51.711605	-4.060000
-49.071537	0.230000
-46.436541	-6.570000
-43.800116	0.430000
-41.166595	0.310000
-38.531645	-4.900000
-35.901760	0.120000
-33.268283	5.460000
-30.639868	-1.740000
-28.012186	-3.220000
-25.383077	-2.470000
-22.759024	4.090000
-20.131382	2.310000
-17.508793	11.550000
-14.886935	17.420000
-12.265809	34.170000
-9.645412	69.170000
-7.027903	221.890000
-4.408966	773.190000
-1.792915	2033.350000
0.822408	2558.100000
3.437004	1322.520000
6.048717	158.520000
8.661859	20.520000
11.269967	9.120000
13.881657	5.900000
16.488316	5.190000
19.096403	1.720000
21.703766	1.680000
24.306104	4.140000
26.912020	5.710000
29.512914	-2.430000
32.115237	-1.380000
34.712541	1.180000
37.313421	2.540000
39.909287	0.790000
42.506580	-1.180000
45.103154	-1.990000
47.694719	-0.850000
50.287712	-2.140000
52.877844	1.210000
55.469404	-5.690000
58.058104	-0.660000
60.648231	1.100000
63.233360	0.140000
65.819916	4.930000
68.405757	-3.310000
70.988745	-0.850000
73.573160	-0.580000
76.150445	2.710000
78.731297	6.010000
81.309300	-3.680000
83.886593	4.120000
86.465312	-0.360000
89.039050	0.570000
91.614214	-3.040000
94.186535	-4.640000
96.758148	-1.620000
99.326922	2.310000
101.897122	4.440000
104.464483	-4.970000
107.033271	1.370000
109.599221	-1.430000
112.162337	-0.850000
114.729009	1.630000
117.286460	1.800000
119.849596	3.040000
122.407773	8.280000
124.969503	10.960000
127.526278	8.400000
130.084478	23.700000
132.637726	33.330000
135.190275	51.950000
137.746375	72.310000
140.297528	102.600000
142.847982	121.220000
145.397740	137.020000
147.944678	155.830000
150.490920	158.610000
153.038589	178.260000
155.585561	179.680000
158.127597	177.930000
160.668940	179.060000
163.209590	174.730000
165.751666	178.240000
168.290931	169.230000
170.827386	165.010000
173.363151	169.200000
175.900341	167.160000
178.436839	167.940000
180.970532	160.730000
183.501422	161.690000
186.031623	158.250000
188.563249	162.780000
191.092074	157.580000
193.618100	160.560000
196.143441	157.920000
198.670206	156.240000
201.194174	159.740000
203.717458	161.100000
206.240057	155.680000
208.759863	156.050000
211.278986	158.760000
213.797426	154.010000
216.317290	148.870000
218.830153	151.940000
221.346547	153.040000
223.862259	153.740000
226.373082	155.890000
228.885329	152.870000
231.394793	151.440000
233.903579	145.460000
236.411687	147.600000
238.921218	150.940000
241.425870	149.620000
243.929845	153.120000
246.435244	152.540000
248.935768	157.040000
251.439815	151.890000
253.936892	157.170000
256.437491	159.570000
258.935319	161.070000
261.432474	166.110000
263.928956	170.160000
266.420576	172.850000
268.915714	184.440000
271.408087	197.730000
273.899789	206.870000
276.388728	221.820000
278.879090	247.380000
281.366691	268.800000
283.851532	316.180000
286.339887	383.070000
288.821303	501.680000
291.306233	752.620000
293.786318	1202.350000
296.269915	1796.430000
298.748669	2363.430000
301.228847	2385.930000
303.706272	1801.610000
306.183034	1075.800000
308.659133	622.180000
311.132483	425.900000
313.605171	323.190000
316.077198	275.490000
318.548564	250.640000
321.017186	234.170000
323.485148	224.880000
325.954533	203.420000
328.419095	191.930000
330.887160	181.510000
333.350406	170.700000
335.812995	170.200000
338.274926	175.170000
340.736201	178.020000
343.194742	174.190000
345.654705	174.330000
348.111935	171.010000
350.568511	178.660000
353.024433	170.620000
355.477626	168.010000
357.932240	162.310000
360.382053	162.640000
362.835363	161.780000
365.283873	164.400000
367.731733	159.700000
370.181014	157.700000
372.625502	157.850000
375.071412	146.270000
377.516673	150.020000
379.959215	150.410000
382.401109	144.830000
384.842355	146.480000
387.280886	144.690000
389.720839	145.740000
392.158078	147.830000
394.592605	145.730000
397.030620	149.740000
399.463858	142.250000
401.898518	141.700000
404.328404	148.120000
406.761776	145.860000
409.190378	147.410000
411.618339	140.860000
414.047720	144.110000
416.472336	149.220000
418.898374	147.160000
421.323771	149.190000
423.748528	151.970000
426.168527	147.460000
428.589947	147.260000
431.008670	151.730000
433.428814	144.730000
435.846263	146.570000
438.265132	142.910000
440.681308	144.390000
443.092737	151.100000
445.507642	152.360000
447.919857	153.710000
450.331438	156.050000
452.742385	153.330000
455.150646	155.260000
457.558274	153.290000
459.965271	150.740000
462.371635	149.920000
464.775317	149.450000
467.178369	148.180000
469.580791	147.640000
471.982584	148.210000
474.381698	143.170000
476.782232	139.060000
479.182137	143.390000
481.577319	141.400000
483.975968	134.770000
486.369897	138.720000
488.763200	144.780000
491.155877	132.550000
493.547929	126.510000
495.941400	122.600000
498.330158	122.220000
500.716250	113.410000
503.103762	117.020000
505.490650	107.000000
507.874875	106.440000
510.260519	97.290000
512.643500	99.240000
515.023821	103.250000
517.405561	98.390000
519.784642	94.710000
522.165142	97.750000
524.542984	95.070000
526.918171	97.740000
529.292740	96.010000
531.668728	93.690000
534.042062	95.120000
536.416814	96.680000
538.786881	100.840000
541.156332	99.630000
543.527201	98.270000
545.893390	104.920000
548.260997	101.670000
550.625958	102.000000
552.990306	105.070000
555.354042	111.470000
557.719195	108.570000
560.079675	114.120000
562.441574	113.760000
564.800833	115.490000
567.157453	115.780000
569.517518	113.410000
571.870893	109.260000
574.227712	108.390000
576.581895	111.190000
578.935471	106.260000
581.288438	105.110000
583.638774	105.330000
585.990526	95.630000
588.335602	97.000000
590.686142	98.560000
593.030009	90.080000
595.379336	88.680000
597.724016	84.310000
600.066070	90.670000
602.409542	82.000000
604.750391	73.160000
607.090638	74.210000
609.428264	72.420000
611.769325	70.240000
614.105749	65.880000
616.443589	65.850000
618.778811	68.150000
621.111418	67.080000
623.445441	64.780000
625.776851	65.400000
628.107662	66.690000
630.437875	67.010000
632.767490	63.890000
635.092483	61.890000
637.422917	60.660000
639.748729	65.500000
642.071935	58.660000
644.396556	62.520000
646.718573	60.910000
649.039995	63.460000
651.358814	58.220000
653.679049	58.470000
655.998691	54.820000
658.315732	59.130000
660.632181	53.290000
662.946033	61.410000
665.261299	59.880000
667.573969	57.020000
669.888054	60.240000
672.197539	57.850000
674.508440	58.760000
676.816748	59.740000
679.124468	53.260000
681.433603	57.980000
683.738145	58.160000
686.042100	56.410000
688.345470	59.040000
690.650254	55.300000
692.950452	49.240000
695.252064	53.170000
697.553092	53.100000
699.849537	55.830000
702.147398	51.290000
704.444675	53.710000
706.741369	53.310000
709.033487	55.720000
711.329016	54.990000
713.619972	54.240000
715.912342	55.100000
718.202136	56.940000
720.491351	49.940000
722.779985	55.440000
725.066048	53.270000
727.353524	59.830000
729.638430	54.140000
731.922757	54.770000
734.204516	56.010000
736.487689	53.900000
738.770285	50.470000
741.048326	54.110000
743.327780	55.040000
745.606659	53.300000
747.884962	61.050000
750.158716	55.080000
752.433884	57.330000
754.708478	54.840000
756.980513	53.190000
759.253960	58.300000
761.524850	55.430000
763.793184	58.100000
766.062931	54.650000
768.330124	59.560000
770.596746	55.830000
772.862799	59.870000
775.126299	60.800000
777.391213	56.980000
779.655557	56.710000
781.915372	60.150000
784.176600	60.930000
786.437260	55.910000
788.695373	64.090000
790.950942	64.490000
793.209902	56.950000
795.462363	55.500000
797.720191	57.690000
799.973499	56.850000
802.224268	51.000000
804.476449	54.600000
806.726092	56.500000
808.977146	56.700000
811.223689	56.200000
813.471645	61.100000
815.717065	52.420000
817.963897	55.020000
820.210168	54.180000
822.451935	56.410000
824.697084	55.990000
826.935761	52.220000
829.177821	53.590000
831.415382	59.580000
833.654354	56.860000
835.890800	52.330000
838.128658	57.270000
840.363990	54.790000
842.596798	53.890000
844.831018	53.480000
847.062716	56.370000
849.293859	54.270000
851.524447	53.130000
853.754481	56.380000
855.983960	50.800000
858.208958	51.450000
860.437331	51.490000
862.661225	51.590000
864.886529	53.650000
867.107358	51.090000
869.331559	52.770000
871.551287	47.280000
873.772426	52.860000
875.993014	52.790000
878.211092	55.070000
880.430581	50.240000
882.645603	52.330000
884.860077	54.130000
887.074004	48.800000
889.287383	56.520000
891.500215	50.790000
893.712501	52.760000
895.922284	49.090000
898.131522	54.590000
900.340215	47.420000
902.546409	47.140000
904.754012	43.500000
906.959118	51.690000
909.163680	46.960000
911.365746	47.420000
913.569222	52.050000
915.770204	54.070000
917.970645	50.510000
920.172494	47.600000
922.367951	53.280000
924.566768	50.110000
926.761147	50.920000
928.958882	54.170000
931.152182	51.490000
933.346891	47.730000
935.539114	55.610000
937.730799	49.780000
939.921946	52.390000
942.110610	57.490000
944.298737	51.640000
946.484384	55.750000
948.673383	48.310000
950.857959	47.920000
953.042000	52.860000
955.229391	61.220000
957.408478	53.530000
959.590916	53.110000
961.772820	63.270000
963.952250	59.900000
966.129207	58.980000
968.307571	60.260000
970.487343	57.460000
972.660766	61.450000
974.837535	65.330000
977.009898	66.560000
979.183667	62.950000
981.353033	69.060000
983.525744	65.250000
985.695988	62.100000
987.865704	66.810000
990.034891	63.130000
992.199681	67.370000
994.367812	65.990000
996.531549	66.010000
998.696692	70.550000
1000.859377	70.120000
1003.021535	64.660000
1005.181237	70.400000
1007.340415	67.360000
1009.500999	69.460000
1011.659128	71.380000
1013.816733	65.460000
1015.973815	72.580000
1018.130374	72.970000
1020.282553	71.100000
1022.436138	73.980000
1024.589202	75.590000
1026.739818	70.070000
1028.891839	74.700000
1031.039487	75.200000
1033.190467	71.660000
1035.337076	72.480000
1037.483167	73.250000
1039.628738	71.680000
1041.775715	75.990000
1043.916404	73.010000
1046.060421	75.350000
1048.201998	73.440000
1050.343059	77.400000
1052.485524	75.640000
1054.621710	76.530000
1056.761222	76.190000
1058.896378	77.750000
1061.034859	79.750000
1063.168987	74.230000
1065.302600	82.160000
1067.437619	75.770000
1069.568288	76.270000
1071.700362	73.630000
1073.830007	73.480000
1075.959140	71.870000
1078.087761	66.040000
1080.215871	71.860000
1082.341555	76.750000
1084.466729	69.920000
1086.593307	77.330000
1088.715548	74.100000
1090.839192	72.030000
1092.958503	67.720000
1095.083042	61.480000
1097.201336	70.580000
1099.321035	67.120000
1101.438315	58.800000
1103.555089	62.780000
1105.671356	60.740000
1107.785208	58.730000
1109.900463	66.870000
1112.011396	62.020000
1114.125640	66.030000
1116.235564	59.150000
1118.346892	61.100000
1120.457715	60.440000
1122.564223	55.890000
1124.674039	60.180000
1126.779541	61.930000
1128.886446	57.370000
1130.987136	59.550000
1133.093038	56.680000
1135.194631	56.740000
1137.297627	54.440000
1139.400122	64.800000
1141.496411	59.290000
1143.597906	58.800000
1145.695099	54.590000
1147.791793	59.630000
1149.887989	53.470000
1151.983688	56.270000
1154.078889	55.100000
1156.171693	57.320000
1158.265899	55.610000
1160.353914	57.410000
1162.447127	52.510000
1164.534152	53.450000
1166.624476	54.900000
1168.710513	56.370000
1170.799847	54.470000
1172.883000	58.020000
1174.967556	55.190000
1177.053512	57.220000
1179.135187	54.460000
1181.218264	51.200000
1183.298955	52.400000
1185.379154	59.030000
1187.458862	60.440000
1189.538079	54.330000
1191.614914	58.880000
1193.689368	54.570000
1195.767114	55.100000
1197.840589	56.770000
1199.915465	51.940000
1201.986074	53.180000
1204.058085	46.550000
1206.127719	54.160000
1208.198754	50.480000
1210.269301	49.970000
1212.335587	52.920000
1214.403274	49.750000
1216.468589	53.250000
1218.535304	59.350000
1220.597763	47.590000
1222.663507	52.320000
1224.724998	50.090000
1226.787888	50.220000
1228.848411	49.930000
1230.908450	47.360000
1232.968007	50.990000
1235.025198	48.420000
1237.081908	49.480000
1239.136255	46.700000
1241.193882	48.400000
1243.249147	51.960000
1245.300171	45.740000
1247.352595	45.930000
1249.404539	43.830000
1251.454125	47.370000
1253.503232	53.730000
1255.551861	53.950000
1257.600011	48.430000
1259.647683	49.080000
1261.691124	48.170000
1263.737840	44.220000
1265.782204	46.790000
1267.826090	53.660000
1269.867626	51.270000
1271.906812	45.200000
1273.949270	43.880000
1275.987506	47.640000
1278.027141	45.440000
1280.066301	51.300000
1282.101243	48.610000
1284.137583	47.160000
1286.171578	48.710000
1288.206972	51.050000
1290.238152	50.970000
1292.270731	52.700000
1294.302837	47.680000
1296.332603	47.440000
1298.363767	44.250000
1300.390723	48.950000
1302.419077	45.250000
1304.443227	46.220000
1306.470641	47.010000
1308.493853	48.400000
1310.518463	43.860000
1312.540739	55.640000
1314.564412	42.960000
1316.585752	47.400000
1318.606624	46.790000
1320.627030	55.040000
1322.643241	44.350000
1324.660851	48.710000
1326.676132	46.280000
1328.694671	44.490000
1330.709022	46.700000
1332.721047	49.110000
1334.736329	46.700000
1336.747426	52.040000
1338.759920	45.260000
1340.768231	45.500000
1342.779798	47.660000
1344.785325	47.020000
1346.794108	42.220000
1348.798713	41.160000
1350.806572	44.410000
1352.813969	46.180000
1354.815335	43.510000
1356.818098	46.840000
1358.820400	45.450000
1360.822243	48.170000
1362.823626	51.840000
1364.822696	47.150000
1366.821307	48.260000
1368.819460	49.630000
1370.817155	44.970000
1372.810686	48.170000
1374.805614	44.880000
1376.800085	44.720000
1378.794099	45.420000
1380.785806	38.990000
1382.777057	47.460000
1384.766003	45.050000
1386.756344	48.850000
1388.746230	48.090000
1390.733813	43.470000
1392.720941	47.710000
1394.705769	46.000000
1396.691990	44.350000
1398.675912	44.680000
1400.659381	50.760000
1402.642398	47.660000
1404.623117	48.590000
1406.605230	43.990000
1408.585046	48.090000
1410.564412	42.240000
1412.539638	45.280000
1414.518104	46.450000
1416.494276	48.160000
1418.469998	46.300000
1420.445271	49.020000
1422.418253	50.560000
1424.390787	44.060000
1426.362874	46.690000
1428.334512	47.840000
1430.302022	46.910000
1432.274607	48.340000
1434.239385	52.610000
1436.209236	43.710000
1438.174962	48.340000
1440.142082	42.750000
1442.106917	45.800000
1444.067634	47.970000
1446.033418	49.360000
1447.993247	43.360000
1449.954469	47.860000
1451.917084	48.060000
1453.875584	48.140000
1455.833642	45.540000
1457.791257	45.450000
1459.748431	49.530000
1461.703329	47.570000
1463.659619	46.220000
1465.613635	47.290000
1467.567211	47.230000
1469.518514	53.360000
1471.471209	44.910000
1473.421633	48.000000
1475.371618	46.160000
1477.321163	44.400000
1479.268440	51.030000
1481.213450	45.330000
1483.159851	48.070000
1485.105816	47.860000
1487.051342	40.640000
1488.994604	49.660000
1490.937429	48.370000
1492.877991	47.720000
1494.819944	54.030000
1496.759636	43.830000
1498.698892	48.170000
1500.637713	50.040000
1502.574275	46.020000
1504.512228	45.820000
1506.447923	47.700000
1508.383184	54.430000
1510.316188	47.730000
1512.248760	51.810000
1514.180900	47.970000
1516.112608	43.280000
1518.042062	47.490000
1519.972907	45.460000
1521.903321	47.200000
1523.829661	48.400000
1525.757393	49.040000
1527.682874	48.680000
1529.607926	51.640000
1531.532549	49.860000
1533.456743	47.260000
1535.378690	46.890000
1537.302026	50.740000
1539.223117	47.110000
1541.141963	52.320000
1543.062199	52.800000
1544.980191	55.400000
1546.897757	44.020000
1548.813081	51.190000
1550.729795	50.260000
1552.642454	55.840000
1554.558317	53.060000
1556.471940	49.190000
1558.383326	43.640000
1560.296100	54.810000
1562.204825	49.120000
1564.114940	51.850000
1566.024631	53.260000
1567.933898	52.830000
1569.840932	49.190000
1571.745733	51.430000
1573.651923	47.630000
1575.555881	53.610000
1577.459419	44.180000
1579.362535	44.590000
1581.263423	47.040000
1583.165698	52.900000
1585.065746	50.210000
1586.967181	44.060000
1588.864583	52.570000
1590.761566	50.380000
1592.658131	50.150000
1594.556084	45.810000
1596.448202	44.260000
1598.343513	53.740000
1600.238407	53.390000
1602.131079	52.500000
1604.023335	49.880000
1605.913371	51.980000
1607.802991	52.680000
1609.692195	50.180000
1611.580985	50.650000
1613.467558	51.660000
1615.355517	49.130000
1617.239460	48.250000
1619.124791	54.640000
1621.009707	47.270000
1622.892411	55.280000
1624.776500	46.410000
1626.656579	54.050000
1628.538044	50.510000
1630.417299	47.960000
1632.297940	48.640000
1634.172777	44.940000
1636.052596	44.210000
1637.928409	53.610000
1639.803812	45.680000
1641.680602	49.150000
1643.551594	56.610000
1645.425768	47.370000
1647.295944	53.440000
1649.169300	49.110000
1651.040453	49.990000
1652.909404	55.700000
1654.779741	49.870000
1656.646084	43.940000
1658.513813	50.310000
1660.379344	45.450000
1662.246259	49.950000
1664.109186	47.860000
1665.973498	50.800000
1667.835614	43.730000
1669.697326	46.880000
1671.560422	49.380000
1673.421324	48.360000
1675.280032	44.500000
1677.138337	45.840000
1678.998027	41.300000
1680.851950	49.050000
1682.709045	52.030000
1684.565738	46.530000
1686.418455	47.520000
1688.274343	47.840000
1690.126256	40.690000
1691.977769	50.850000
1693.828881	43.970000
1695.679593	45.530000
1697.529904	46.360000
1699.378031	48.840000
1701.227541	41.770000
1703.071303	48.180000
1704.920014	44.520000
1706.762980	47.260000
1708.609111	49.490000
1710.451281	45.650000
1712.296615	43.270000
1714.136209	45.580000
1715.977187	47.290000
1717.819548	50.190000
1719.657953	51.590000
1721.497741	45.460000
1723.335354	46.600000
1725.172571	47.260000
1727.007615	46.500000
1728.844042	50.500000
1730.678297	48.310000
1732.512157	42.360000
1734.345624	45.740000
1736.175144	46.150000
1738.007823	45.160000
1739.836558	50.200000
1741.668451	49.410000
1743.496401	44.310000
1745.323959	43.070000
1747.151125	50.640000
1748.977900	46.900000
1750.804284	47.500000
1752.626731	45.460000
1754.452332	43.940000
1756.273999	44.230000
1758.097048	44.370000
1759.917936	51.200000
1761.738434	49.000000
1763.560314	41.960000
1765.376494	45.080000
1767.195826	46.150000
1769.011231	45.030000
1770.829786	41.140000
1772.644416	48.610000
1774.458660	43.710000
1776.272516	47.990000
1778.085986	49.630000
1779.897303	47.990000
1781.710001	50.970000
1783.522312	43.880000
1785.330706	50.560000
1787.140481	49.860000
1788.946340	44.220000
1790.755346	49.140000
1792.560437	49.870000
1794.366910	47.830000
1796.172999	44.320000
1797.975178	48.700000
1799.780500	48.970000
1801.581914	44.220000
1803.384708	41.320000
1805.183596	48.010000
1806.983865	47.020000
1808.783752	44.080000
1810.581498	42.570000
1812.378863	48.090000
1814.175847	45.070000
1815.972451	49.280000
1817.766916	52.430000
1819.562760	43.730000
1821.352950	45.350000
1823.148036	47.920000
1824.937469	49.200000
1826.730039	49.800000
1828.520474	48.870000
1830.308775	48.170000
1832.100211	41.320000
1833.886001	49.460000
1835.673171	47.370000
1837.458209	50.200000
1839.246381	49.730000
1841.030667	46.130000
1842.812824	49.750000
1844.596359	47.230000
1846.377766	48.450000
1848.160552	47.210000
1849.939458	45.430000
1851.719742	46.380000
1853.497900	44.620000
1855.277437	44.240000
1857.054849	51.570000
1858.830137	47.630000
1860.606804	46.700000
1862.381347	44.180000
1864.157269	45.760000
1865.927571	46.760000
1867.700999	41.060000
1869.472308	48.640000
1871.243247	43.610000
1873.015562	43.180000
1874.782265	45.930000
1876.552092	45.450000
1878.318056	50.680000
1880.087144	45.110000
1881.852370	44.520000
1883.617227	45.050000
1885.383462	43.090000
1887.145838	49.270000
1888.907847	47.490000
1890.669488	47.880000
1892.430763	41.000000
1894.191670	44.720000
1895.952211	42.060000
1897.710642	44.080000
1899.468708	42.330000
1901.224665	47.460000
1902.982000	47.880000
1904.738968	46.030000
1906.493831	44.330000
1908.246588	45.370000
1909.998982	45.700000
1911.752751	45.130000
1913.504417	50.080000
1915.253981	46.650000
1917.004921	44.550000
1918.755497	43.250000
1920.502234	44.920000
1922.250348	46.880000
1923.996362	45.390000
1925.743752	47.240000
1927.489043	44.830000
1929.232237	49.940000
1930.976807	46.060000
1932.719280	48.000000
1934.461393	46.850000
1936.203146	46.030000
1937.944540	41.300000
1939.683840	44.070000
1941.422781	48.290000
1943.161363	42.990000
1944.897853	47.700000
1946.633986	45.870000
1948.371493	44.040000
1950.105178	42.090000
1951.840238	47.440000
1953.573210	49.940000
1955.305825	49.750000
1957.038083	44.500000
1958.769985	45.700000
1960.499801	46.380000
1962.227533	37.530000
1963.956638	40.970000
1965.685389	44.260000
1967.412056	47.200000
1969.138369	46.450000
1970.866055	47.980000
1972.588205	46.180000
1974.313456	47.040000
1976.034901	43.210000
1977.759445	43.830000
1979.481910	41.070000
1981.200571	49.900000
1982.922331	51.980000
1984.640289	47.860000
1986.359620	43.980000
1988.075152	46.540000
1989.795505	44.690000
1991.512058	44.710000
1993.224816	41.370000
1994.940669	44.950000
1996.654449	46.310000
1998.367880	48.120000
2000.079240	47.800000
2001.791973	40.100000
2003.500914	48.050000
2005.212949	43.940000
2006.919474	46.110000
2008.629092	48.790000
2010.336642	53.890000
2012.043845	45.340000
2013.748982	42.680000
2015.453772	48.460000
2017.159934	45.860000
2018.862314	41.100000
2020.566066	46.500000
2022.267754	46.540000
2023.969098	47.530000
2025.670096	48.390000
2027.369034	47.260000
2029.069342	49.820000
2030.765876	43.980000
2032.463781	45.750000
2034.159628	51.210000
2035.858559	46.560000
2037.552005	49.400000
2039.246823	41.560000
2040.941297	46.960000
2042.632003	47.390000
2044.325793	46.200000
2046.015816	45.410000
2047.707210	49.200000
2049.396551	45.820000
2051.087262	37.780000
2052.774211	47.220000
2054.460819	43.590000
2056.148798	50.030000
2057.833017	42.890000
2059.518606	46.490000
2061.203856	48.220000
2062.887058	41.760000
2064.571629	37.710000
2066.250738	49.380000
2067.934632	43.420000
2069.613066	42.460000
2071.294576	45.760000
2072.972336	42.210000
2074.649758	46.960000
2076.328551	42.900000
2078.005300	46.390000
2079.680008	45.860000
2081.356085	43.290000
2083.030122	46.120000
2084.703823	47.720000
2086.377189	49.650000
2088.048517	44.220000
2089.719510	47.090000
2091.390169	44.940000
2093.060493	49.400000
2094.730484	47.320000
2096.398439	45.650000
2098.066061	42.080000
2099.731649	45.480000
2101.398605	42.050000
2103.063527	41.030000
2104.728118	41.830000
2106.390677	48.620000
2108.054604	51.750000
2109.716501	46.180000
2111.378066	45.870000
2113.039300	47.310000
2114.698506	45.610000
2116.357382	44.350000
2118.015927	43.240000
2119.674143	51.220000
2121.328635	44.770000
2122.986192	43.930000
2124.643420	44.470000
2126.296926	48.300000
2127.951800	49.080000
2129.602956	44.810000
2131.257173	42.300000
2132.907674	43.500000
2134.559541	45.610000
2136.206000	48.110000
2137.857214	44.430000
2139.504714	48.880000
2141.153581	51.980000
2142.800430	47.980000
2144.446952	48.330000
2146.093149	44.140000
2147.735638	44.020000
2149.381185	44.070000
2151.023025	43.320000
2152.667922	47.910000
2154.309114	50.320000
2155.949982	44.380000
2157.590526	39.490000
2159.229059	48.800000
2160.868957	46.920000
2162.505155	48.840000
2164.142719	45.400000
2165.779960	49.610000
2167.415192	45.850000
2169.050103	46.190000
2170.684692	44.410000
2172.318959	49.040000
2173.949534	42.600000
2175.583159	46.100000
2177.213093	46.160000
2178.844392	43.600000
2180.473687	48.420000
2182.102661	48.370000
2183.731317	45.270000
2185.359653	45.750000
2186.985986	46.510000
2188.612001	47.840000
2190.236015	44.480000
2191.861393	45.370000
2193.484772	42.750000
2195.109514	44.150000
2196.730576	45.870000
2198.351321	47.460000
2199.973431	45.850000
2201.593543	47.960000
2203.211658	51.400000
2204.829458	44.340000
2206.446943	44.810000
2208.064112	46.900000
2209.680966	47.040000
2211.297505	42.640000
2212.912050	41.810000
2214.524603	44.390000
2216.138520	47.830000
2217.750446	42.540000
2219.363735	45.280000
2220.975034	47.340000
2222.584343	45.250000
2224.195016	45.400000
2225.803700	40.740000
2227.412072	47.790000
2229.018456	44.100000
2230.626204	41.400000
2232.231965	43.630000
2233.837415	42.800000
2235.440881	43.070000
2237.045709	46.080000
2238.648553	42.370000
2240.249414	46.220000
2241.851638	44.160000
2243.451879	50.410000
2245.053483	43.130000
2246.651435	44.660000
2248.250749	41.060000
2249.848083	46.760000
2251.445109	44.840000
2253.043496	46.680000
2254.638235	45.280000
2256.230997	47.520000
2257.825122	37.960000
2259.420608	47.650000
2261.012450	47.850000
2262.603985	46.070000
2264.196881	45.490000
2265.784468	46.270000
2267.376752	41.790000
2268.963728	48.890000
2270.553733	46.140000
2272.138433	43.800000
2273.727827	47.320000
2275.311918	44.360000
2276.897371	43.610000
2278.480854	46.370000
2280.067364	43.220000
2281.650240	39.690000
2283.232812	44.100000
2284.815081	41.380000
2286.393721	45.210000
2287.975384	47.550000
2289.553419	43.590000
2291.134477	41.890000
2292.711909	42.985000
2294.287376	44.080000
2295.865866	42.960000
2297.440732	43.060000
2299.015297	37.490000
2300.589562	47.270000
2302.163526	41.010000
2303.737190	39.750000
2305.310553	40.940000
2306.880298	42.480000
2308.449744	44.340000
2310.022209	43.650000
2311.589398	40.940000
2313.159606	45.280000
2314.726199	41.050000
2316.294152	39.590000
2317.860150	43.440000
2319.425849	41.690000
2320.991252	41.890000
2322.554701	44.820000
2324.119508	47.060000
2325.680708	49.030000
2327.244922	50.330000
2328.803875	60.540000
2330.365841	55.320000
2331.925857	51.940000
2333.485577	46.820000
2335.043348	46.420000
2336.600825	43.780000
2338.158006	37.710000
2339.713241	42.380000
2341.268181	42.620000
2342.822828	46.540000
2344.377181	44.640000
2345.931240	40.610000
2347.485005	41.650000
2349.036827	45.150000
2350.586705	45.700000
2352.139591	43.550000
2353.687235	41.170000
2355.237886	39.950000
2356.784947	44.810000
2358.333365	46.660000
2359.881491	38.970000
2361.426030	41.400000
2362.971926	47.210000
2364.515883	38.960000
2366.061198	47.220000
2367.602928	46.070000
2369.146015	44.230000
2370.687167	38.870000
2372.228029	43.380000
2373.768602	44.850000
2375.308886	40.450000
2376.848881	44.240000
2378.385297	44.450000
2379.924715	46.720000
2381.460556	45.780000
2382.997753	39.280000
2384.531375	43.560000
2386.067998	40.530000
2387.602689	47.470000
2389.135451	43.720000
2390.667927	45.510000
2392.198474	40.680000
2393.732019	41.790000
2395.260353	43.140000
2396.790043	46.720000
2398.319448	43.700000
2399.848567	42.250000
2401.377402	49.290000
2402.901031	41.920000
2404.429297	39.920000
2405.952359	50.180000
2407.480055	44.950000
2409.000912	47.470000
2410.526402	46.770000
2412.048331	43.630000
2413.571616	40.700000
2415.092980	44.510000
2416.612424	45.900000
2418.133223	39.470000
2419.652103	46.500000
2421.170701	44.780000
2422.687382	45.550000
2424.205417	43.650000
2425.723171	41.360000
2427.237374	39.080000
2428.751296	43.440000
2430.264938	43.550000
2431.779935	43.260000
2433.291383	41.720000
2434.804186	44.740000
2436.315076	52.030000
2437.825686	38.460000
2439.334385	45.260000
2440.846071	45.220000
2442.354212	46.880000
2443.862076	43.140000
2445.369662	43.870000
2446.873707	44.700000
2448.380738	41.450000
2449.885860	37.340000
2451.390705	40.320000
2452.893643	47.100000
2454.396304	47.510000
2455.898689	48.870000
2457.399169	44.680000
2458.901002	46.290000
2460.400931	41.220000
2461.900584	44.880000
2463.399962	41.880000
2464.897436	42.490000
2466.393010	45.890000
2467.891563	40.980000
2469.386587	43.040000
2470.882965	35.950000
2472.375816	42.290000
2473.870019	38.760000
2475.363949	41.210000
2476.854356	42.750000
2478.347739	43.800000
2479.839225	39.810000
2481.328814	41.680000
2482.818131	36.780000
2484.305553	47.250000
2485.795950	35.840000
2487.282828	38.860000
2488.771058	39.300000
2490.255772	41.330000
2491.740215	37.930000
2493.226010	44.500000
2494.709912	30.790000
2496.195166	42.480000
2497.675286	42.980000
2499.158378	40.620000
2500.639580	42.030000
2502.120513	42.220000
2503.599557	35.890000
2505.078332	36.860000
2506.556839	38.590000
2508.035078	36.750000
2509.513048	40.690000
2510.987514	39.990000
2512.464948	42.510000
2513.938879	39.860000
2515.414161	35.590000
2516.889175	36.030000
2518.360688	34.290000
2519.833552	42.210000
2521.304532	40.060000
2522.776863	41.700000
2524.244081	35.380000
2525.714264	42.610000
2527.182567	40.110000
2528.650605	41.240000
2530.118378	39.290000
2531.585886	37.860000
2533.053129	37.640000
2534.516880	40.030000
2535.981981	45.200000
2537.445205	39.780000
2538.909779	35.660000
2540.370863	40.850000
2541.833297	36.820000
2543.295468	46.510000
2544.754153	39.170000
2546.217410	42.340000
2547.675570	42.810000
2549.135079	43.790000
2550.589495	39.940000
2552.048480	42.990000
2553.505594	34.700000
2554.960837	41.980000
2556.415819	46.960000
2557.868931	42.400000
2559.323392	39.160000
2560.775984	42.350000
2562.228316	38.310000
2563.678780	43.540000
2565.132200	45.370000
2566.580538	42.170000
2568.031832	37.110000
2569.481259	38.050000
2570.927215	32.600000
2572.376125	40.840000
2573.821564	43.250000
2575.268352	41.380000
2576.713276	41.370000
2578.157943	43.990000
2579.603957	39.590000
2581.046504	42.010000
2582.490399	40.950000
2583.930829	45.990000
2585.372607	30.280000
2586.812524	44.950000
2588.253789	45.900000
2589.691593	42.430000
2591.132346	37.150000
2592.568036	35.400000
2594.006676	36.600000
2595.443459	35.210000
2596.878385	43.810000
2598.316260	36.370000
2599.749077	43.960000
2601.183240	43.770000
2602.615550	40.300000
2604.049206	36.880000
2605.481009	35.850000
2606.912559	37.290000
2608.343855	35.940000
2609.773300	41.350000
2611.202492	35.680000
2612.629833	37.290000
2614.058521	36.490000
2615.486956	35.510000
2616.911944	41.440000
2618.338279	36.610000
2619.762765	40.220000
2621.188597	41.780000
2622.610985	35.390000
2624.034719	38.930000
2625.456606	40.760000
2626.878244	39.130000
2628.298036	37.280000
2629.719174	37.820000
2631.140062	39.060000
2632.557512	37.190000
2633.977901	42.520000
2635.394853	38.750000
2636.811557	37.470000
2638.228012	35.660000
2639.644219	41.910000
2641.060177	41.130000
2642.474295	39.620000
2643.888166	38.640000
2645.300197	38.170000
2646.713573	40.760000
2648.123519	38.300000
2649.536400	38.750000
2650.945854	35.640000
2652.355061	38.230000
2653.762432	41.190000
2655.172737	34.980000
2656.581206	43.470000
2657.987840	41.850000
2659.394229	33.060000
2660.798784	36.570000
2662.204683	39.780000
2663.608749	34.200000
2665.012571	37.010000
2666.416148	36.240000
2667.817893	39.070000
2669.220982	40.830000
2670.620654	36.630000
2672.021668	42.770000
2673.419267	39.210000
2674.819796	38.360000
2676.216910	41.530000
2677.615367	44.230000
2679.011996	39.470000
2680.408383	40.050000
2681.804529	37.870000
2683.198848	31.720000
2684.594510	33.510000
2685.986762	40.390000
2687.380358	41.370000
2688.772129	36.670000
2690.165242	38.530000
2691.556532	38.150000
2692.945999	33.140000
2694.335226	37.830000
2695.724214	37.730000
2697.114544	41.970000
2698.499889	37.080000
2699.888158	37.110000
2701.274607	32.480000
2702.660817	38.430000
2704.046789	38.710000
2705.429361	33.560000
2706.813276	37.310000
2708.196953	38.570000
2709.580392	39.620000
2710.960435	35.370000
2712.341820	42.010000
2713.721389	33.840000
2715.102300	36.890000
2716.481396	35.150000
2717.858677	31.600000
2719.237300	37.910000
2720.614110	34.170000
2721.990684	36.910000
2723.367022	35.860000
2724.741548	38.650000
2726.117415	34.050000
2727.489895	35.020000
2728.865292	37.760000
2730.235727	39.290000
2731.607504	38.840000
2732.979046	37.040000
2734.348781	32.070000
2735.719855	31.030000
2737.089122	37.030000
2738.458155	37.410000
2739.825381	30.850000
2741.192375	35.450000
2742.559136	37.150000
2743.925664	34.850000
2745.290387	31.790000
2746.654879	35.790000
2748.019138	37.610000
2749.383165	41.310000
2750.746961	32.410000
2752.107383	35.940000
2753.470716	38.160000
2754.829106	37.490000
2756.190406	33.090000
2757.548335	33.410000
2758.909174	29.660000
2760.268212	33.510000
2761.623882	36.090000
2762.982460	32.110000
2764.337672	29.950000
2765.692654	33.960000
2767.045839	35.140000
2768.401931	38.750000
2769.754659	30.750000
2771.107158	39.330000
2772.459429	32.750000
2773.813039	31.530000
2775.163287	36.830000
2776.511742	37.510000
2777.863101	29.070000
2779.211101	35.510000
2780.560440	38.150000
2781.907986	35.700000
2783.255305	37.960000
2784.602398	34.890000
2785.947700	36.480000
2787.292776	37.000000
2788.637626	32.180000
2789.982249	36.050000
2791.323521	31.730000
2792.666131	35.580000
2794.008515	31.070000
2795.350675	34.760000
2796.689485	39.920000
2798.031194	33.970000
2799.369556	36.060000
2800.709255	36.740000
2802.047168	38.790000
2803.383297	35.850000
2804.719202	30.930000
2806.056445	37.450000
2807.391904	35.650000
2808.727140	39.570000
2810.060593	32.430000
2811.395384	36.220000
2812.726833	36.260000
2814.061178	38.230000
2815.390625	30.090000
2816.721409	33.750000
2818.051971	33.840000
2819.380754	44.320000
2820.710873	35.240000
2822.039214	38.750000
2823.367334	36.470000
2824.693677	30.820000
2826.021355	37.570000
2827.345701	33.430000
2828.671382	32.590000
2829.995288	35.310000
2831.318975	35.490000
2832.643997	38.360000
2833.965689	33.660000
2835.287163	31.450000
2836.608418	35.170000
2837.929454	29.430000
2839.248718	32.790000
2840.569317	29.980000
2841.888144	25.380000
2843.206753	33.450000
2844.523592	32.000000
2845.840213	33.940000
2847.156616	33.540000
2848.471251	33.240000
2849.787220	25.480000
2851.099869	33.680000
2852.413854	34.800000
2853.727622	36.930000
2855.041173	30.810000
2856.352957	35.690000
2857.662976	32.480000
2858.974328	36.510000
2860.282366	31.530000
2861.591739	32.320000
2862.900896	34.720000
2864.209838	33.290000
2865.517017	33.180000
2866.822432	31.540000
2868.129182	29.390000
2869.434169	30.860000
2870.738943	30.440000
2872.041955	34.170000
2873.347849	30.890000
2874.648887	29.030000
2875.951260	31.440000
2877.251873	34.630000
2878.553820	32.890000
2879.855554	31.610000
2881.153983	25.990000
2882.453747	35.440000
2883.751752	29.040000
2885.049546	26.160000
2886.345584	23.300000
2887.642955	33.410000
2888.938570	28.530000
2890.233974	28.450000
2891.529168	30.820000
2892.821063	31.070000
2894.115835	30.230000
2895.407310	32.110000
2896.700119	33.330000
2897.992716	34.550000
2899.282020	33.510000
2900.572656	33.750000
2901.861541	27.100000
2903.151759	30.720000
2904.438685	32.300000
2905.726943	35.490000
2907.013451	32.450000
2908.299752	32.860000
2909.585844	33.490000
2910.870188	32.920000
2912.157404	27.660000
2913.439792	31.080000
2914.723513	30.730000
2916.005488	30.460000
2917.287256	29.260000
2918.567278	31.100000
2919.850170	28.720000
2921.131317	34.710000
2922.409182	28.850000
2923.689916	34.040000
2924.967369	33.570000
2926.244617	32.210000
2927.520122	30.130000
2928.798495	32.770000
2930.072053	36.420000
2931.348479	27.820000
2932.623164	31.160000
2933.896109	31.160000
2935.170384	33.820000
2936.442920	31.570000
2937.715252	26.170000
2938.984310	26.980000
2940.256234	28.770000
2941.526420	28.540000
2942.796403	31.060000
2944.066182	24.790000
2945.334224	32.210000
2946.600531	27.320000
2947.866635	32.110000
2949.134069	32.860000
2950.399769	32.100000
2951.665266	27.130000
2952.930561	33.210000
2954.192591	32.730000
2955.455952	30.020000
2956.719110	31.650000
2957.980537	28.800000
2959.243293	30.940000
2960.504318	23.800000
2961.763612	34.570000
2963.022705	31.710000
2964.281598	31.080000
2965.540291	30.200000
2966.798784	29.210000
2968.055548	30.750000
2969.312112	35.180000
2970.566949	29.410000
2971.823115	31.950000
2973.076025	27.180000
2974.330265	31.610000
2975.584306	29.950000
2976.836621	24.720000
2978.088738	25.910000
2979.339130	31.270000
2980.592377	32.700000
2981.840847	35.180000
2983.092171	33.720000
2984.340247	30.690000
2985.588125	30.800000
2986.835806	29.890000
2988.083291	30.380000
2989.329054	32.020000
2990.574620	25.120000
2991.821514	33.230000
2993.065164	33.360000
2994.310142	33.010000
2995.551877	29.360000
2996.796463	27.810000
2998.039329	25.370000
2999.278955	31.290000
3000.521432	26.390000
3001.760668	25.510000
3003.001232	29.810000
3004.240079	27.690000
3005.478732	33.070000
3006.715669	31.430000
3007.953933	29.050000
3009.190483	33.040000
3010.426838	22.080000
3011.663000	33.020000
3012.897449	30.530000
3014.131704	28.440000
3015.365766	29.100000
3016.598116	26.350000
3017.828754	26.100000
3019.062238	31.620000
3020.294010	32.610000
3021.524072	27.740000
3022.753942	26.440000
3023.982102	30.320000
3025.211588	33.850000
3026.439366	28.380000
3027.666952	25.030000
3028.895864	30.550000
3030.120034	37.970000
3031.347047	29.070000
3032.570836	27.230000
3033.795952	29.390000
3035.019361	28.010000
3036.242581	33.100000
3037.464095	29.540000
3038.688450	29.100000
3039.908070	25.200000
3041.129015	28.110000
3042.349772	29.010000
3043.568825	24.770000
3044.789204	22.950000
3046.006366	30.490000
3047.224853	32.910000
3048.441639	28.610000
3049.658236	24.210000
3050.874646	32.660000
3052.087842	29.140000
3053.303876	21.850000
3054.516698	29.860000
3055.732357	27.230000
3056.943293	21.880000
3058.155554	26.770000
3059.367629	25.110000
3060.579517	24.550000
3061.789707	28.290000
3062.999711	25.840000
3064.209530	30.580000
3065.417652	23.060000
3066.625588	25.770000
3067.831830	27.180000
3069.039395	31.020000
3070.245267	28.045000
3071.450953	25.070000
3072.656454	24.630000
3073.860262	26.050000
3075.065394	29.190000
3076.268834	21.050000
3077.470581	23.500000
3078.672145	22.460000
3079.873525	25.350000
3081.074721	31.010000
3082.274227	29.100000
3083.473549	26.060000
3084.674195	26.860000
3085.873152	19.290000
3087.068913	22.380000
3088.267504	23.330000
3089.462901	29.300000
3090.659621	23.980000
3091.853149	27.700000
3093.049506	26.460000
3094.244175	29.910000
3095.435654	16.550000
3096.631464	23.320000
3097.822581	29.060000
3099.015020	30.620000
3100.204272	29.180000
3101.396350	27.110000
3102.586743	29.790000
3103.773951	23.260000
3104.962482	25.440000
3106.152335	28.510000
3107.339003	27.440000
3108.525492	25.430000
3109.711801	22.220000
3110.899432	30.940000
3112.083882	26.320000
3113.266651	26.910000
3114.452244	24.180000
3115.636156	21.380000
3116.818390	23.390000
3118.000445	30.540000
3119.182323	28.410000
3120.364022	23.020000
3121.544043	30.320000
3122.722388	23.870000
3123.903554	28.720000
3125.081544	24.840000
3126.259357	25.210000
3127.436993	24.960000
3128.612954	22.260000
3129.788738	24.130000
3130.965844	19.520000
3132.141275	24.870000
3133.315033	25.770000
3134.487119	30.360000
3135.660525	23.880000
3136.833756	27.750000
3138.005314	26.240000
3139.178194	24.340000
3140.347906	22.910000
3141.518939	26.090000
3142.688301	21.270000
3143.855994	26.010000
3145.026502	22.140000
3146.192351	28.280000
3147.362510	29.530000
3148.528011	21.050000
3149.693339	19.490000
3150.858493	21.990000
3152.023473	22.710000
3153.189774	27.930000
3154.351421	22.950000
3155.514389	24.910000
3156.677183	23.110000
3157.839805	30.660000
3159.000762	21.990000
3160.161546	20.950000
3161.322158	19.420000
3162.481107	18.530000
3163.639883	22.550000
3164.798488	27.650000
3165.956921	22.370000
3167.115182	22.920000
3168.271781	20.240000
3169.426719	21.070000
3170.582976	21.260000
3171.737573	23.520000
3172.891998	25.170000
3174.044764	24.380000
3175.197360	25.640000
3176.349785	26.370000
3177.502041	26.130000
3178.654127	24.090000
3179.803066	23.090000
3180.954812	20.990000
3182.104900	25.310000
3183.253332	28.940000
3184.401595	27.110000
3185.549688	22.190000
3186.697613	22.730000
3187.843883	25.330000
3188.989984	22.470000
3190.134430	27.800000
3191.278709	20.990000
3192.422820	26.620000
3193.568249	22.440000
3194.710539	22.810000
3195.852661	27.790000
3196.994616	25.710000
3198.136405	23.830000
3199.278026	23.190000
3200.416511	20.010000
3201.556314	25.050000
3202.697435	21.920000
3203.835421	22.220000
3204.971758	22.970000
3206.107929	22.110000
3207.245418	25.090000
3208.381258	24.160000
3209.518414	23.250000
3210.650958	21.770000
3211.787784	23.840000
3212.919998	22.810000
3214.053530	20.390000
3215.186896	28.120000
3216.317135	23.330000
3217.450172	25.800000
3218.580083	23.010000
3219.711311	19.110000
3220.839413	22.640000
3221.970312	19.000000
3223.099568	29.290000
3224.227179	24.210000
3225.351669	19.770000
3226.480434	21.250000
3227.606077	21.100000
3228.731557	24.340000
3229.855396	20.750000
3230.982029	25.700000
3232.104065	20.080000
3233.227417	29.800000
3234.350607	21.790000
3235.473635	23.390000
3236.595023	18.150000
3237.716250	21.110000
3238.835838	23.790000
3239.955265	18.570000
3241.073054	20.610000
3242.193636	26.180000
3243.311103	20.260000
3244.428411	27.870000
3245.545557	19.690000
3246.661068	23.280000
3247.777894	22.570000
3248.891609	22.760000
3250.008115	21.120000
3251.122985	27.070000
3252.234747	20.440000
3253.346350	25.920000
3254.459267	24.730000
3255.572026	24.570000
3256.681678	26.510000
3257.792645	18.860000
3258.903452	19.400000
3260.012629	25.580000
3261.120174	22.220000
3262.229034	19.970000
3263.337735	22.730000
3264.443334	20.370000
3265.550248	22.250000
3266.655532	15.040000
3267.762130	18.080000
3268.865628	26.690000
3269.970440	21.640000
3271.075095	22.330000
3272.176651	22.490000
3273.278052	20.900000
3274.380766	23.390000
3275.483323	17.590000
3276.582785	22.130000
3277.685029	21.250000
3278.784179	22.030000
3279.881703	23.520000
3280.979072	21.000000
3282.079224	24.320000
3283.176282	23.100000
3284.273185	18.080000
3285.369934	18.770000
3286.462123	21.880000
3287.558561	21.780000
3288.653378	19.940000
3289.748039	21.630000
3290.841079	20.240000
3291.933965	21.640000
3293.025230	20.570000
3294.117808	19.650000
3295.208765	19.080000
3296.298103	24.070000
3297.387288	21.710000
3298.477786	18.710000
3299.565199	24.010000
3300.652460	18.100000
3301.741033	21.670000
3302.829453	22.550000
3303.913326	21.200000
3305.001441	21.780000
3306.086475	18.740000
3307.169893	23.810000
3308.254622	20.910000
3309.337737	20.940000
3310.422163	20.810000
3311.503511	15.530000
3312.586171	21.820000
3313.667217	22.900000
3314.748112	21.210000
3315.827394	26.510000
3316.906525	20.410000
3317.986967	24.300000
3319.064336	22.550000
3320.143016	22.730000
3321.220084	21.890000
3322.297002	15.880000
3323.372309	17.890000
3324.447467	22.840000
3325.523936	21.430000
3326.597335	19.110000
3327.670585	17.930000
3328.745146	17.200000
3329.818097	20.300000
3330.889441	13.900000
3331.962095	21.200000
3333.031682	17.670000
3334.102580	24.610000
3335.171871	21.590000
3336.242473	19.110000
3337.311468	17.580000
3338.378857	13.410000
3339.444641	23.700000
3340.514651	18.380000
3341.581598	14.800000
3342.645483	15.690000
3343.712136	17.950000
3344.777184	19.220000
3345.840630	14.560000
3346.903928	20.030000
3347.967081	20.740000
3349.030087	21.120000
3350.092946	16.570000
3351.154204	16.740000
3352.212405	19.760000
3353.274827	20.760000
3354.334192	16.660000
3355.393412	29.610000
3356.453942	24.680000
3357.509962	21.540000
3358.568747	16.500000
3359.623024	23.950000
3360.680064	17.660000
3361.735507	27.470000
3362.792258	22.780000
3363.847412	19.670000
3364.900968	19.340000
3365.952927	16.700000
3367.007648	18.120000
3368.059320	21.230000
3369.110849	20.340000
3370.163687	19.790000
3371.213477	20.610000
3372.264575	21.950000
3373.312628	15.810000
3374.363441	18.330000
3375.411208	17.370000
3376.458833	19.120000
3377.506315	23.810000
3378.552205	24.060000
3379.599403	21.110000
3380.643559	16.650000
3381.690473	22.080000
3382.735795	22.220000
3383.778077	20.610000
3384.820217	15.020000
3385.863665	20.100000
3386.906973	21.080000
3387.948690	19.520000
3388.990266	25.430000
3390.031702	16.740000
3391.071548	22.740000
3392.109807	15.590000
3393.149373	21.140000
3394.188798	20.470000
3395.226637	16.800000
3396.262888	23.010000
3397.298999	24.870000
3398.336418	19.550000
3399.370804	21.840000
3400.406497	16.570000
3401.442051	21.220000
3402.474574	18.140000
3403.509850	18.570000
3404.542095	16.350000
3405.574202	20.060000
3406.604725	17.270000
3407.636556	22.370000
3408.668247	21.210000
3409.696912	18.740000
3410.725438	18.650000
3411.755272	19.800000
3412.784967	18.790000
3413.811637	21.990000
3414.839614	15.890000
3415.864566	17.990000
3416.892268	20.320000
3417.916947	20.060000
3418.942932	17.680000
3419.967337	16.670000
3420.991606	21.560000
3422.014296	18.780000
3423.036850	22.110000
3424.060710	18.980000
3425.081550	22.070000
3426.102255	22.010000
3427.124265	17.520000
3428.143257	20.150000
3429.162114	20.930000
3430.182276	19.270000
3431.199422	16.560000
