-118.057191	9.600000
-115.387591	4.600000
-112.720926	-0.200000
-110.055013	3.250000
-107.392032	-2.350000
-104.727622	-1.070000
-102.066142	-1.030000
-99.403232	1.520000
-96.745430	-0.120000
-94.086197	4.220000
-91.427713	1.320000
-88.772154	6.720000
-86.115166	0.350000
-83.463275	0.910000
-80.809955	4.100000
-78.159555	6.370000
-75.507725	1.280000
-72.860986	3.370000
-70.212817	-1.710000
-67.565392	1.680000
-64.920880	6.250000
-62.274940	2.620000
-59.634081	1.540000
-56.991793	-1.990000
-54.352413	2.830000
-51.711605	-1.470000
-49.071537	-0.630000
-46.436541	1.170000
-43.800116	-0.220000
-41.166595	4.590000
-38.531645	8.890000
-35.901760	5.630000
-33.268283	5.940000
-30.639868	1.880000
-28.012186	9.790000
-25.383077	3.850000
-22.759024	6.840000
-20.131382	11.820000
-17.508793	13.510000
-14.886935	25.190000
-12.265809	46.380000
-9.645412	115.220000
-7.027903	374.380000
-4.408966	1158.210000
-1.792915	3059.600000
0.822408	4465.280000
3.437004	2553.950000
6.048717	309.610000
8.661859	37.980000
11.269967	25.360000
13.881657	14.830000
16.488316	6.780000
19.096403	9.300000
21.703766	6.610000
24.306104	5.630000
26.912020	6.530000
29.512914	3.520000
32.115237	0.250000
34.712541	4.980000
37.313421	3.870000
39.909287	0.720000
42.506580	0.490000
45.103154	5.560000
47.694719	6.350000
50.287712	-3.030000
52.877844	0.910000
55.469404	1.100000
58.058104	3.380000
60.648231	3.680000
63.233360	1.190000
65.819916	6.000000
68.405757	3.510000
70.988745	5.860000
73.573160	8.020000
76.150445	-0.440000
78.731297	1.200000
81.309300	0.710000
83.886593	0.490000
86.465312	-1.290000
89.039050	4.800000
91.614214	1.850000
94.186535	3.230000
96.758148	7.950000
99.326922	1.130000
101.897122	-0.350000
104.464483	7.350000
107.033271	5.380000
109.599221	8.490000
112.162337	7.070000
114.729009	2.730000
117.286460	5.730000
119.849596	4.270000
122.407773	9.080000
124.969503	11.650000
127.526278	17.550000
130.084478	30.260000
132.637726	37.830000
135.190275	58.740000
137.746375	82.490000
140.297528	107.470000
142.847982	134.390000
145.397740	141.550000
147.944678	163.800000
150.490920	170.580000
153.038589	180.410000
155.585561	186.820000
158.127597	194.220000
160.668940	184.800000
163.209590	187.910000
165.751666	181.040000
168.290931	181.880000
170.827386	171.510000
173.363151	177.060000
175.900341	175.460000
178.436839	168.890000
180.970532	170.780000
183.501422	170.740000
186.031623	162.520000
188.563249	163.420000
191.092074	163.290000
193.618100	168.850000
196.143441	169.100000
198.670206	161.970000
201.194174	162.140000
203.717458	161.350000
206.240057	166.570000
208.759863	160.640000
211.278986	160.280000
213.797426	163.640000
216.317290	163.630000
218.830153	163.390000
221.346547	165.700000
223.862259	160.740000
226.373082	158.960000
228.885329	159.240000
231.394793	158.120000
233.903579	163.920000
236.411687	156.500000
238.921218	162.000000
241.425870	159.890000
243.929845	159.080000
246.435244	157.570000
248.935768	159.610000
251.439815	170.280000
253.936892	165.900000
256.437491	169.010000
258.935319	178.790000
261.432474	181.200000
263.928956	187.520000
266.420576	192.290000
268.915714	204.610000
271.408087	214.370000
273.899789	225.790000
276.388728	244.420000
278.879090	252.110000
281.366691	292.390000
283.851532	332.340000
286.339887	405.740000
288.821303	541.100000
291.306233	792.180000
293.786318	1223.820000
296.269915	1776.950000
298.748669	2306.000000
301.228847	2391.190000
303.706272	1889.480000
306.183034	1170.720000
308.659133	683.750000
311.132483	448.780000
313.605171	345.190000
316.077198	281.180000
318.548564	257.910000
321.017186	243.040000
323.485148	236.150000
325.954533	210.230000
328.419095	197.380000
330.887160	189.130000
333.350406	186.900000
335.812995	178.500000
338.274926	179.040000
340.736201	183.890000
343.194742	184.590000
345.654705	179.180000
348.111935	174.980000
350.568511	184.710000
353.024433	179.880000
355.477626	184.990000
357.932240	178.190000
360.382053	173.460000
362.835363	173.880000
365.283873	166.540000
367.731733	170.150000
370.181014	162.090000
372.625502	162.690000
375.071412	160.110000
377.516673	163.970000
379.959215	159.860000
382.401109	156.520000
384.842355	150.840000
387.280886	160.910000
389.720839	162.160000
392.158078	154.670000
394.592605	148.750000
397.030620	147.470000
399.463858	146.880000
401.898518	154.530000
404.328404	152.520000
406.761776	158.320000
409.190378	153.210000
411.618339	151.480000
414.047720	153.000000
416.472336	152.450000
418.898374	149.530000
421.323771	156.410000
423.748528	160.270000
426.168527	154.910000
428.589947	156.940000
431.008670	150.360000
433.428814	154.030000
435.846263	155.690000
438.265132	155.630000
440.681308	158.010000
443.092737	147.800000
445.507642	160.290000
447.919857	161.280000
450.331438	155.810000
452.742385	154.250000
455.150646	158.860000
457.558274	162.990000
459.965271	157.520000
462.371635	158.800000
464.775317	152.660000
467.178369	162.640000
469.580791	157.680000
471.982584	157.350000
474.381698	153.290000
476.782232	153.680000
479.182137	154.360000
481.577319	144.990000
483.975968	149.850000
486.369897	145.340000
488.763200	146.830000
491.155877	143.210000
493.547929	136.900000
495.941400	131.450000
498.330158	133.060000
500.716250	122.790000
503.103762	119.550000
505.490650	112.480000
507.874875	105.300000
510.260519	111.700000
512.643500	114.650000
515.023821	108.720000
517.405561	104.910000
519.784642	98.280000
522.165142	104.600000
524.542984	96.310000
526.918171	109.930000
529.292740	98.480000
531.668728	102.830000
534.042062	99.560000
536.416814	107.530000
538.786881	103.480000
541.156332	109.940000
543.527201	103.400000
545.893390	101.500000
548.260997	105.540000
550.625958	104.370000
552.990306	114.310000
555.354042	114.980000
557.719195	110.580000
560.079675	119.490000
562.441574	118.230000
564.800833	117.630000
567.157453	117.960000
569.517518	120.170000
571.870893	114.170000
574.227712	117.720000
576.581895	113.880000
578.935471	108.130000
581.288438	103.580000
583.638774	107.780000
585.990526	106.890000
588.335602	103.270000
590.686142	96.830000
593.030009	97.260000
595.379336	99.150000
597.724016	87.260000
600.066070	86.760000
602.409542	82.610000
604.750391	84.330000
607.090638	82.000000
609.428264	76.290000
611.769325	75.140000
614.105749	76.910000
616.443589	76.410000
618.778811	74.710000
621.111418	74.080000
623.445441	65.380000
625.776851	73.400000
628.107662	74.010000
630.437875	75.540000
632.767490	69.120000
635.092483	73.680000
637.422917	66.120000
639.748729	69.970000
642.071935	69.890000
644.396556	67.170000
646.718573	69.660000
649.039995	67.790000
651.358814	67.220000
653.679049	66.480000
655.998691	67.670000
658.315732	68.880000
660.632181	67.700000
662.946033	69.170000
665.261299	64.350000
667.573969	66.620000
669.888054	70.050000
672.197539	66.750000
674.508440	62.230000
676.816748	65.530000
679.124468	62.590000
681.433603	64.180000
683.738145	60.960000
686.042100	64.790000
688.345470	58.240000
690.650254	64.050000
692.950452	59.790000
695.252064	61.790000
697.553092	56.890000
699.849537	58.580000
702.147398	60.350000
704.444675	52.840000
706.741369	56.840000
709.033487	63.420000
711.329016	59.900000
713.619972	63.020000
715.912342	62.750000
718.202136	61.020000
720.491351	61.540000
722.779985	59.860000
725.066048	62.490000
727.353524	57.980000
729.638430	60.320000
731.922757	62.670000
734.204516	62.870000
736.487689	65.420000
738.770285	64.520000
741.048326	65.390000
743.327780	62.520000
745.606659	65.710000
747.884962	60.800000
750.158716	67.670000
752.433884	63.780000
754.708478	66.750000
756.980513	68.020000
759.253960	62.850000
761.524850	61.980000
763.793184	59.660000
766.062931	63.610000
768.330124	62.940000
770.596746	63.880000
772.862799	66.770000
775.126299	63.270000
777.391213	74.700000
779.655557	66.600000
781.915372	63.400000
784.176600	66.170000
786.437260	66.200000
788.695373	68.550000
790.950942	67.060000
793.209902	71.760000
795.462363	59.850000
797.720191	64.050000
799.973499	65.190000
802.224268	56.670000
804.476449	68.190000
806.726092	66.790000
808.977146	64.510000
811.223689	61.330000
813.471645	69.480000
815.717065	62.320000
817.963897	67.240000
820.210168	59.640000
822.451935	67.360000
824.697084	58.570000
826.935761	58.500000
829.177821	65.410000
831.415382	57.570000
833.654354	61.330000
835.890800	57.200000
838.128658	52.110000
840.363990	59.410000
842.596798	63.240000
844.831018	57.640000
847.062716	62.610000
849.293859	57.670000
851.524447	60.400000
853.754481	58.800000
855.983960	53.680000
858.208958	59.700000
860.437331	59.920000
862.661225	58.690000
864.886529	54.210000
867.107358	56.530000
869.331559	60.540000
871.551287	58.340000
873.772426	55.150000
875.993014	62.680000
878.211092	58.410000
880.430581	62.200000
882.645603	61.410000
884.860077	59.030000
887.074004	58.020000
889.287383	61.520000
891.500215	60.260000
893.712501	55.010000
895.922284	57.640000
898.131522	59.690000
900.340215	56.160000
902.546409	54.130000
904.754012	50.570000
906.959118	56.320000
909.163680	53.160000
911.365746	53.770000
913.569222	54.270000
915.770204	59.470000
917.970645	55.150000
920.172494	60.310000
922.367951	57.860000
924.566768	53.220000
926.761147	62.170000
928.958882	61.830000
931.152182	63.870000
933.346891	60.700000
935.539114	63.120000
937.730799	54.150000
939.921946	59.890000
942.110610	60.630000
944.298737	59.200000
946.484384	66.530000
948.673383	63.070000
950.857959	57.630000
953.042000	70.000000
955.229391	61.600000
957.408478	60.150000
959.590916	62.320000
961.772820	65.650000
963.952250	64.710000
966.129207	67.480000
968.307571	63.540000
970.487343	63.510000
972.660766	64.050000
974.837535	66.260000
977.009898	68.870000
979.183667	71.150000
981.353033	72.190000
983.525744	68.710000
985.695988	68.980000
987.865704	74.710000
990.034891	68.390000
992.199681	81.390000
994.367812	76.760000
996.531549	72.860000
998.696692	77.330000
1000.859377	74.130000
1003.021535	70.170000
1005.181237	77.700000
1007.340415	72.380000
1009.500999	75.990000
1011.659128	74.880000
1013.816733	71.800000
1015.973815	73.750000
1018.130374	75.180000
1020.282553	82.350000
1022.436138	79.920000
1024.589202	78.140000
1026.739818	78.740000
1028.891839	82.550000
1031.039487	83.160000
1033.190467	79.730000
1035.337076	77.340000
1037.483167	80.900000
1039.628738	82.170000
1041.775715	78.990000
1043.916404	83.190000
1046.060421	78.700000
1048.201998	83.030000
1050.343059	79.910000
1052.485524	81.650000
1054.621710	85.830000
1056.761222	85.520000
1058.896378	82.700000
1061.034859	87.560000
1063.168987	86.940000
1065.302600	86.560000
1067.437619	88.630000
1069.568288	86.310000
1071.700362	84.960000
1073.830007	80.430000
1075.959140	78.990000
1078.087761	75.620000
1080.215871	79.690000
1082.341555	77.830000
1084.466729	77.560000
1086.593307	71.840000
1088.715548	78.470000
1090.839192	74.990000
1092.958503	74.250000
1095.083042	70.880000
1097.201336	71.660000
1099.321035	75.610000
1101.438315	67.820000
1103.555089	68.650000
1105.671356	67.010000
1107.785208	68.970000
1109.900463	69.440000
1112.011396	69.700000
1114.125640	69.590000
1116.235564	68.610000
1118.346892	69.700000
1120.457715	64.780000
1122.564223	64.060000
1124.674039	70.280000
1126.779541	61.900000
1128.886446	68.020000
1130.987136	68.280000
1133.093038	67.710000
1135.194631	61.560000
1137.297627	65.830000
1139.400122	66.970000
1141.496411	64.090000
1143.597906	65.510000
1145.695099	61.680000
1147.791793	61.720000
1149.887989	61.270000
1151.983688	62.900000
1154.078889	62.110000
1156.171693	65.650000
1158.265899	63.550000
1160.353914	57.600000
1162.447127	60.430000
1164.534152	57.740000
1166.624476	59.810000
1168.710513	66.110000
1170.799847	62.580000
1172.883000	55.660000
1174.967556	67.120000
1177.053512	65.000000
1179.135187	66.030000
1181.218264	62.380000
1183.298955	65.210000
1185.379154	65.160000
1187.458862	55.770000
1189.538079	61.440000
1191.614914	55.290000
1193.689368	57.850000
1195.767114	60.820000
1197.840589	62.700000
1199.915465	59.070000
1201.986074	58.680000
1204.058085	56.310000
1206.127719	61.810000
1208.198754	58.080000
1210.269301	58.830000
1212.335587	59.050000
1214.403274	55.140000
1216.468589	55.900000
1218.535304	63.110000
1220.597763	57.930000
1222.663507	55.780000
1224.724998	59.390000
1226.787888	54.640000
1228.848411	59.270000
1230.908450	55.370000
1232.968007	62.930000
1235.025198	55.490000
1237.081908	56.890000
1239.136255	51.920000
1241.193882	60.640000
1243.249147	51.370000
1245.300171	52.460000
1247.352595	53.600000
1249.404539	56.030000
1251.454125	59.780000
1253.503232	54.180000
1255.551861	55.800000
1257.600011	55.060000
1259.647683	53.620000
1261.691124	53.650000
1263.737840	59.920000
1265.782204	53.990000
1267.826090	55.580000
1269.867626	54.580000
1271.906812	51.250000
1273.949270	52.570000
1275.987506	57.060000
1278.027141	54.930000
1280.066301	53.800000
1282.101243	52.600000
1284.137583	53.850000
1286.171578	52.250000
1288.206972	55.800000
1290.238152	55.760000
1292.270731	53.540000
1294.302837	54.600000
1296.332603	57.080000
1298.363767	53.500000
1300.390723	54.550000
1302.419077	53.580000
1304.443227	52.220000
1306.470641	54.030000
1308.493853	52.900000
1310.518463	63.450000
1312.540739	56.590000
1314.564412	55.440000
1316.585752	58.080000
1318.606624	51.950000
1320.627030	54.500000
1322.643241	54.760000
1324.660851	56.870000
1326.676132	53.240000
1328.694671	55.840000
1330.709022	54.470000
1332.721047	47.560000
1334.736329	49.230000
1336.747426	49.850000
1338.759920	47.520000
1340.768231	53.740000
1342.779798	53.840000
1344.785325	49.810000
1346.794108	49.840000
1348.798713	53.060000
1350.806572	56.720000
1352.813969	51.060000
1354.815335	53.130000
1356.818098	53.240000
1358.820400	52.640000
1360.822243	55.930000
1362.823626	55.320000
1364.822696	55.120000
1366.821307	54.020000
1368.819460	53.180000
1370.817155	55.600000
1372.810686	55.720000
1374.805614	53.080000
1376.800085	57.420000
1378.794099	59.570000
1380.785806	48.700000
1382.777057	53.680000
1384.766003	50.410000
1386.756344	52.030000
1388.746230	47.870000
1390.733813	53.400000
1392.720941	62.760000
1394.705769	55.170000
1396.691990	56.520000
1398.675912	52.490000
1400.659381	51.680000
1402.642398	50.400000
1404.623117	52.380000
1406.605230	55.840000
1408.585046	51.480000
1410.564412	53.850000
1412.539638	53.520000
1414.518104	50.300000
1416.494276	56.180000
1418.469998	54.320000
1420.445271	50.760000
1422.418253	54.590000
1424.390787	55.680000
1426.362874	50.980000
1428.334512	51.840000
1430.302022	54.990000
1432.274607	56.630000
1434.239385	50.690000
1436.209236	56.550000
1438.174962	54.020000
1440.142082	59.600000
1442.106917	57.290000
1444.067634	51.450000
1446.033418	50.520000
1447.993247	53.010000
1449.954469	49.160000
1451.917084	60.120000
1453.875584	52.270000
1455.833642	54.620000
1457.791257	58.360000
1459.748431	53.410000
1461.703329	52.720000
1463.659619	57.100000
1465.613635	57.130000
1467.567211	56.060000
1469.518514	52.520000
1471.471209	51.410000
1473.421633	56.010000
1475.371618	56.450000
1477.321163	51.990000
1479.268440	55.860000
1481.213450	52.870000
1483.159851	51.630000
1485.105816	53.920000
1487.051342	57.310000
1488.994604	52.440000
1490.937429	53.200000
1492.877991	55.030000
1494.819944	54.500000
1496.759636	54.920000
1498.698892	57.580000
1500.637713	58.720000
1502.574275	49.520000
1504.512228	53.960000
1506.447923	53.180000
1508.383184	53.600000
1510.316188	57.260000
1512.248760	49.580000
1514.180900	58.340000
1516.112608	56.950000
1518.042062	53.110000
1519.972907	54.720000
1521.903321	59.230000
1523.829661	58.580000
1525.757393	51.420000
1527.682874	57.700000
1529.607926	56.540000
1531.532549	53.670000
1533.456743	54.440000
1535.378690	58.420000
1537.302026	50.200000
1539.223117	54.120000
1541.141963	52.870000
1543.062199	56.120000
1544.980191	58.260000
1546.897757	52.640000
1548.813081	58.980000
1550.729795	53.180000
1552.642454	59.640000
1554.558317	60.700000
1556.471940	65.020000
1558.383326	57.670000
1560.296100	58.890000
1562.204825	58.020000
1564.114940	58.660000
1566.024631	58.810000
1567.933898	58.420000
1569.840932	60.590000
1571.745733	58.600000
1573.651923	59.210000
1575.555881	56.520000
1577.459419	54.920000
1579.362535	57.270000
1581.263423	54.000000
1583.165698	57.490000
1585.065746	49.080000
1586.967181	60.720000
1588.864583	57.470000
1590.761566	55.380000
1592.658131	50.040000
1594.556084	58.280000
1596.448202	55.060000
1598.343513	54.020000
1600.238407	56.110000
1602.131079	57.850000
1604.023335	55.700000
1605.913371	57.770000
1607.802991	56.080000
1609.692195	55.360000
1611.580985	57.310000
1613.467558	56.930000
1615.355517	56.430000
1617.239460	56.910000
1619.124791	55.100000
1621.009707	56.280000
1622.892411	57.240000
1624.776500	57.010000
1626.656579	56.650000
1628.538044	63.200000
1630.417299	54.120000
1632.297940	53.640000
1634.172777	56.980000
1636.052596	59.730000
1637.928409	56.360000
1639.803812	57.540000
1641.680602	53.530000
1643.551594	55.770000
1645.425768	58.240000
1647.295944	55.240000
1649.169300	56.590000
1651.040453	58.440000
1652.909404	56.900000
1654.779741	52.910000
1656.646084	52.210000
1658.513813	54.200000
1660.379344	53.130000
1662.246259	56.750000
1664.109186	57.030000
1665.973498	53.990000
1667.835614	55.450000
1669.697326	48.900000
1671.560422	53.130000
1673.421324	56.430000
1675.280032	55.440000
1677.138337	58.170000
1678.998027	52.020000
1680.851950	53.140000
1682.709045	51.180000
1684.565738	51.230000
1686.418455	49.860000
1688.274343	56.710000
1690.126256	46.240000
1691.977769	50.840000
1693.828881	57.680000
1695.679593	49.760000
1697.529904	49.810000
1699.378031	54.920000
1701.227541	53.540000
1703.071303	52.920000
1704.920014	47.430000
1706.762980	53.320000
1708.609111	57.940000
1710.451281	49.790000
1712.296615	53.240000
1714.136209	48.960000
1715.977187	53.140000
1717.819548	45.940000
1719.657953	52.450000
1721.497741	54.720000
1723.335354	51.150000
1725.172571	54.710000
1727.007615	53.260000
1728.844042	56.730000
1730.678297	49.170000
1732.512157	53.800000
1734.345624	51.850000
1736.175144	48.220000
1738.007823	49.110000
1739.836558	54.640000
1741.668451	49.060000
1743.496401	52.750000
1745.323959	58.130000
1747.151125	51.020000
1748.977900	52.100000
1750.804284	51.960000
1752.626731	51.480000
1754.452332	55.240000
1756.273999	52.550000
1758.097048	53.580000
1759.917936	49.250000
1761.738434	54.980000
1763.560314	53.250000
1765.376494	54.960000
1767.195826	50.400000
1769.011231	50.440000
1770.829786	48.600000
1772.644416	54.940000
1774.458660	55.280000
1776.272516	52.550000
1778.085986	52.510000
1779.897303	53.950000
1781.710001	51.660000
1783.522312	51.100000
1785.330706	50.430000
1787.140481	53.820000
1788.946340	54.170000
1790.755346	48.990000
1792.560437	57.840000
1794.366910	51.580000
1796.172999	45.090000
1797.975178	62.200000
1799.780500	47.790000
1801.581914	50.490000
1803.384708	53.970000
1805.183596	53.390000
1806.983865	47.840000
1808.783752	50.810000
1810.581498	43.620000
1812.378863	49.480000
1814.175847	42.980000
1815.972451	51.690000
1817.766916	49.410000
1819.562760	50.730000
1821.352950	53.810000
1823.148036	60.390000
1824.937469	49.860000
1826.730039	50.900000
1828.520474	51.890000
1830.308775	49.980000
1832.100211	46.200000
1833.886001	51.210000
1835.673171	49.600000
1837.458209	49.920000
1839.246381	53.730000
1841.030667	51.640000
1842.812824	51.590000
1844.596359	53.620000
1846.377766	54.490000
1848.160552	54.560000
1849.939458	56.670000
1851.719742	46.460000
1853.497900	54.830000
1855.277437	57.750000
1857.054849	49.310000
1858.830137	50.710000
1860.606804	55.320000
1862.381347	54.620000
1864.157269	49.810000
1865.927571	49.630000
1867.700999	57.540000
1869.472308	56.920000
1871.243247	51.080000
1873.015562	50.800000
1874.782265	55.780000
1876.552092	54.960000
1878.318056	54.200000
1880.087144	54.380000
1881.852370	49.950000
1883.617227	58.370000
1885.383462	57.730000
1887.145838	52.670000
1888.907847	52.130000
1890.669488	49.450000
1892.430763	54.650000
1894.191670	55.580000
1895.952211	49.930000
1897.710642	54.680000
1899.468708	53.470000
1901.224665	50.970000
1902.982000	50.160000
1904.738968	52.290000
1906.493831	51.500000
1908.246588	49.470000
1909.998982	57.870000
1911.752751	54.540000
1913.504417	52.320000
1915.253981	46.840000
1917.004921	52.020000
1918.755497	54.540000
1920.502234	53.630000
1922.250348	54.070000
1923.996362	50.570000
1925.743752	49.220000
1927.489043	53.180000
1929.232237	52.300000
1930.976807	56.200000
1932.719280	52.810000
1934.461393	49.180000
1936.203146	52.350000
1937.944540	53.090000
1939.683840	54.680000
1941.422781	55.000000
1943.161363	53.580000
1944.897853	52.250000
1946.633986	50.005000
1948.371493	47.760000
1950.105178	50.960000
1951.840238	47.190000
1953.573210	55.290000
1955.305825	52.620000
1957.038083	51.980000
1958.769985	48.050000
1960.499801	50.810000
1962.227533	47.170000
1963.956638	53.110000
1965.685389	50.670000
1967.412056	48.290000
1969.138369	51.360000
1970.866055	52.550000
1972.588205	46.820000
1974.313456	51.190000
1976.034901	49.800000
1977.759445	53.240000
1979.481910	50.370000
1981.200571	51.130000
1982.922331	50.490000
1984.640289	54.590000
1986.359620	53.360000
1988.075152	54.070000
1989.795505	55.060000
1991.512058	50.690000
1993.224816	52.340000
1994.940669	55.990000
1996.654449	48.580000
1998.367880	52.990000
2000.079240	53.390000
2001.791973	53.780000
2003.500914	50.260000
2005.212949	51.920000
2006.919474	53.310000
2008.629092	56.200000
2010.336642	54.430000
2012.043845	50.590000
2013.748982	49.470000
2015.453772	53.040000
2017.159934	50.480000
2018.862314	59.470000
2020.566066	51.890000
2022.267754	52.980000
2023.969098	55.570000
2025.670096	51.820000
2027.369034	50.170000
2029.069342	49.270000
2030.765876	51.950000
2032.463781	54.470000
2034.159628	46.730000
2035.858559	54.170000
2037.552005	53.160000
2039.246823	53.620000
2040.941297	55.090000
2042.632003	52.590000
2044.325793	46.990000
2046.015816	49.680000
2047.707210	47.790000
2049.396551	52.060000
2051.087262	47.530000
2052.774211	44.890000
2054.460819	48.670000
2056.148798	52.100000
2057.833017	51.230000
2059.518606	54.520000
2061.203856	52.120000
2062.887058	49.250000
2064.571629	52.590000
2066.250738	51.760000
2067.934632	47.050000
2069.613066	49.620000
2071.294576	48.060000
2072.972336	48.560000
2074.649758	53.970000
2076.328551	52.210000
2078.005300	51.940000
2079.680008	53.110000
2081.356085	51.690000
2083.030122	48.910000
2084.703823	51.100000
2086.377189	53.710000
2088.048517	54.790000
2089.719510	54.060000
2091.390169	43.530000
2093.060493	51.610000
2094.730484	51.600000
2096.398439	54.370000
2098.066061	49.620000
2099.731649	51.640000
2101.398605	51.430000
2103.063527	48.900000
2104.728118	50.240000
2106.390677	51.710000
2108.054604	57.520000
2109.716501	52.770000
2111.378066	50.890000
2113.039300	51.430000
2114.698506	56.980000
2116.357382	54.960000
2118.015927	50.560000
2119.674143	53.010000
2121.328635	50.330000
2122.986192	53.560000
2124.643420	54.080000
2126.296926	55.140000
2127.951800	55.020000
2129.602956	53.760000
2131.257173	53.540000
2132.907674	52.720000
2134.559541	52.190000
2136.206000	51.440000
2137.857214	48.580000
2139.504714	51.520000
2141.153581	53.980000
2142.800430	46.620000
2144.446952	47.340000
2146.093149	52.730000
2147.735638	50.400000
2149.381185	52.810000
2151.023025	52.570000
2152.667922	49.430000
2154.309114	48.170000
2155.949982	49.950000
2157.590526	54.610000
2159.229059	49.140000
2160.868957	52.250000
2162.505155	51.950000
2164.142719	49.120000
2165.779960	51.760000
2167.415192	48.860000
2169.050103	56.340000
2170.684692	50.950000
2172.318959	54.920000
2173.949534	49.940000
2175.583159	57.450000
2177.213093	50.140000
2178.844392	55.340000
2180.473687	53.380000
2182.102661	47.230000
2183.731317	51.100000
2185.359653	51.170000
2186.985986	58.960000
2188.612001	55.710000
2190.236015	47.880000
2191.861393	57.100000
2193.484772	54.200000
2195.109514	55.990000
2196.730576	49.100000
2198.351321	48.280000
2199.973431	51.440000
2201.593543	50.870000
2203.211658	51.030000
2204.829458	54.120000
2206.446943	48.630000
2208.064112	52.300000
2209.680966	52.280000
2211.297505	51.240000
2212.912050	47.200000
2214.524603	50.880000
2216.138520	44.730000
2217.750446	52.550000
2219.363735	46.340000
2220.975034	48.650000
2222.584343	53.830000
2224.195016	54.630000
2225.803700	52.890000
2227.412072	53.860000
2229.018456	50.210000
2230.626204	52.330000
2232.231965	51.400000
2233.837415	48.040000
2235.440881	47.250000
2237.045709	45.130000
2238.648553	46.190000
2240.249414	48.040000
2241.851638	50.620000
2243.451879	51.410000
2245.053483	52.840000
2246.651435	51.470000
2248.250749	48.380000
2249.848083	46.440000
2251.445109	50.250000
2253.043496	52.750000
2254.638235	47.880000
2256.230997	51.480000
2257.825122	55.280000
2259.420608	52.050000
2261.012450	55.920000
2262.603985	51.530000
2264.196881	57.160000
2265.784468	51.580000
2267.376752	50.180000
2268.963728	50.930000
2270.553733	56.320000
2272.138433	55.350000
2273.727827	49.370000
2275.311918	54.290000
2276.897371	50.030000
2278.480854	52.920000
2280.067364	50.160000
2281.650240	46.650000
2283.232812	52.350000
2284.815081	47.680000
2286.393721	48.920000
2287.975384	54.010000
2289.553419	55.480000
2291.134477	54.010000
2292.711909	53.840000
2294.287376	53.670000
2295.865866	50.060000
2297.440732	50.250000
2299.015297	47.590000
2300.589562	47.460000
2302.163526	44.790000
2303.737190	50.690000
2305.310553	46.620000
2306.880298	44.330000
2308.449744	47.600000
2310.022209	46.670000
2311.589398	51.360000
2313.159606	49.970000
2314.726199	44.230000
2316.294152	45.800000
2317.860150	41.990000
2319.425849	45.400000
2320.991252	51.870000
2322.554701	46.500000
2324.119508	55.260000
2325.680708	55.230000
2327.244922	58.500000
2328.803875	64.590000
2330.365841	56.690000
2331.925857	55.500000
2333.485577	49.400000
2335.043348	48.860000
2336.600825	49.480000
2338.158006	46.980000
2339.713241	48.020000
2341.268181	48.500000
2342.822828	49.330000
2344.377181	49.610000
2345.931240	49.830000
2347.485005	52.250000
2349.036827	48.100000
2350.586705	47.300000
2352.139591	49.980000
2353.687235	51.970000
2355.237886	46.190000
2356.784947	47.970000
2358.333365	48.580000
2359.881491	57.940000
2361.426030	48.120000
2362.971926	50.550000
2364.515883	49.880000
2366.061198	48.720000
2367.602928	44.110000
2369.146015	54.610000
2370.687167	48.020000
2372.228029	44.200000
2373.768602	48.760000
2375.308886	52.720000
2376.848881	48.230000
2378.385297	52.830000
2379.924715	48.330000
2381.460556	49.320000
2382.997753	49.070000
2384.531375	47.810000
2386.067998	51.570000
2387.602689	46.770000
2389.135451	44.930000
2390.667927	47.570000
2392.198474	50.510000
2393.732019	46.630000
2395.260353	45.370000
2396.790043	47.530000
2398.319448	48.060000
2399.848567	43.160000
2401.377402	50.720000
2402.901031	55.570000
2404.429297	51.780000
2405.952359	46.810000
2407.480055	50.030000
2409.000912	51.520000
2410.526402	47.490000
2412.048331	52.710000
2413.571616	52.850000
2415.092980	49.850000
2416.612424	50.880000
2418.133223	47.880000
2419.652103	47.030000
2421.170701	51.200000
2422.687382	50.840000
2424.205417	48.840000
2425.723171	42.600000
2427.237374	49.760000
2428.751296	49.740000
2430.264938	51.100000
2431.779935	48.110000
2433.291383	55.050000
2434.804186	45.230000
2436.315076	49.690000
2437.825686	47.800000
2439.334385	47.410000
2440.846071	45.360000
2442.354212	50.760000
2443.862076	51.240000
2445.369662	49.160000
2446.873707	51.290000
2448.380738	52.940000
2449.885860	42.330000
2451.390705	57.470000
2452.893643	47.640000
2454.396304	46.440000
2455.898689	47.700000
2457.399169	48.910000
2458.901002	46.360000
2460.400931	48.740000
2461.900584	45.580000
2463.399962	51.240000
2464.897436	49.470000
2466.393010	54.490000
2467.891563	45.510000
2469.386587	47.020000
2470.882965	50.170000
2472.375816	46.160000
2473.870019	50.650000
2475.363949	46.680000
2476.854356	49.030000
2478.347739	46.660000
2479.839225	43.630000
2481.328814	49.000000
2482.818131	53.610000
2484.305553	44.980000
2485.795950	55.220000
2487.282828	51.330000
2488.771058	41.470000
2490.255772	49.810000
2491.740215	43.500000
2493.226010	46.880000
2494.709912	48.370000
2496.195166	46.680000
2497.675286	48.090000
2499.158378	49.570000
2500.639580	46.750000
2502.120513	45.710000
2503.599557	48.040000
2505.078332	47.070000
2506.556839	41.630000
2508.035078	42.830000
2509.513048	45.090000
2510.987514	45.090000
2512.464948	48.290000
2513.938879	45.010000
2515.414161	46.370000
2516.889175	46.450000
2518.360688	48.620000
2519.833552	47.200000
2521.304532	40.930000
2522.776863	48.330000
2524.244081	39.670000
2525.714264	42.150000
2527.182567	43.280000
2528.650605	46.960000
2530.118378	39.870000
2531.585886	47.200000
2533.053129	43.310000
2534.516880	52.480000
2535.981981	47.010000
2537.445205	47.380000
2538.909779	45.780000
2540.370863	47.150000
2541.833297	47.940000
2543.295468	46.580000
2544.754153	44.840000
2546.217410	42.220000
2547.675570	45.240000
2549.135079	46.220000
2550.589495	42.730000
2552.048480	45.310000
2553.505594	48.300000
2554.960837	40.610000
2556.415819	46.590000
2557.868931	48.500000
2559.323392	46.210000
2560.775984	45.250000
2562.228316	45.820000
2563.678780	47.780000
2565.132200	44.410000
2566.580538	41.750000
2568.031832	44.010000
2569.481259	51.010000
2570.927215	44.920000
2572.376125	44.840000
2573.821564	49.800000
2575.268352	46.140000
2576.713276	48.530000
2578.157943	47.860000
2579.603957	48.940000
2581.046504	46.080000
2582.490399	48.390000
2583.930829	46.250000
2585.372607	44.220000
2586.812524	48.060000
2588.253789	43.460000
2589.691593	49.180000
2591.132346	41.340000
2592.568036	44.900000
2594.006676	48.320000
2595.443459	45.970000
2596.878385	39.380000
2598.316260	45.850000
2599.749077	42.950000
2601.183240	42.380000
2602.615550	44.130000
2604.049206	47.330000
2605.481009	47.270000
2606.912559	43.680000
2608.343855	47.090000
2609.773300	43.880000
2611.202492	46.520000
2612.629833	41.350000
2614.058521	42.110000
2615.486956	41.110000
2616.911944	42.440000
2618.338279	47.450000
2619.762765	48.930000
2621.188597	47.360000
2622.610985	44.880000
2624.034719	47.620000
2625.456606	47.660000
2626.878244	45.510000
2628.298036	44.760000
2629.719174	45.150000
2631.140062	42.940000
2632.557512	46.240000
2633.977901	43.500000
2635.394853	45.460000
2636.811557	46.970000
2638.228012	47.570000
2639.644219	42.380000
2641.060177	43.810000
2642.474295	42.060000
2643.888166	41.380000
2645.300197	41.390000
2646.713573	46.370000
2648.123519	39.730000
2649.536400	45.460000
2650.945854	41.320000
2652.355061	45.540000
2653.762432	36.610000
2655.172737	43.170000
2656.581206	43.980000
2657.987840	44.730000
2659.394229	47.140000
2660.798784	48.290000
2662.204683	45.210000
2663.608749	43.920000
2665.012571	44.670000
2666.416148	43.620000
2667.817893	41.690000
2669.220982	45.510000
2670.620654	46.860000
2672.021668	45.320000
2673.419267	47.390000
2674.819796	52.100000
2676.216910	43.560000
2677.615367	40.630000
2679.011996	45.770000
2680.408383	40.150000
2681.804529	44.690000
2683.198848	54.150000
2684.594510	40.570000
2685.986762	49.170000
2687.380358	40.300000
2688.772129	46.700000
2690.165242	47.170000
2691.556532	42.330000
2692.945999	46.280000
2694.335226	44.500000
2695.724214	38.840000
2697.114544	42.170000
2698.499889	46.910000
2699.888158	41.460000
2701.274607	48.960000
2702.660817	46.510000
2704.046789	34.480000
2705.429361	38.120000
2706.813276	40.420000
2708.196953	43.180000
2709.580392	39.870000
2710.960435	41.370000
2712.341820	45.460000
2713.721389	37.740000
2715.102300	40.600000
2716.481396	44.760000
2717.858677	36.410000
2719.237300	36.870000
2720.614110	40.980000
2721.990684	41.210000
2723.367022	41.400000
2724.741548	43.330000
2726.117415	38.190000
2727.489895	38.470000
2728.865292	44.590000
2730.235727	39.120000
2731.607504	45.770000
2732.979046	38.280000
2734.348781	42.500000
2735.719855	41.400000
2737.089122	46.230000
2738.458155	40.820000
2739.825381	47.050000
2741.192375	41.830000
2742.559136	45.080000
2743.925664	43.890000
2745.290387	38.650000
2746.654879	38.260000
2748.019138	44.870000
2749.383165	45.910000
2750.746961	35.240000
2752.107383	45.680000
2753.470716	45.350000
2754.829106	39.990000
2756.190406	40.060000
2757.548335	42.370000
2758.909174	39.380000
2760.268212	36.030000
2761.623882	38.960000
2762.982460	41.770000
2764.337672	43.020000
2765.692654	41.370000
2767.045839	39.230000
2768.401931	42.700000
2769.754659	42.870000
2771.107158	47.420000
2772.459429	38.240000
2773.813039	42.780000
2775.163287	40.940000
2776.511742	39.080000
2777.863101	41.000000
2779.211101	41.360000
2780.560440	40.700000
2781.907986	34.830000
2783.255305	41.140000
2784.602398	37.470000
2785.947700	39.360000
2787.292776	39.220000
2788.637626	40.970000
2789.982249	44.090000
2791.323521	41.270000
2792.666131	39.330000
2794.008515	33.830000
2795.350675	40.730000
2796.689485	37.380000
2798.031194	47.800000
2799.369556	40.380000
2800.709255	41.810000
2802.047168	38.800000
2803.383297	43.430000
2804.719202	42.240000
2806.056445	40.580000
2807.391904	35.380000
2808.727140	41.140000
2810.060593	39.900000
2811.395384	37.230000
2812.726833	41.920000
2814.061178	40.690000
2815.390625	42.730000
2816.721409	38.300000
2818.051971	39.860000
2819.380754	40.370000
2820.710873	43.010000
2822.039214	39.120000
2823.367334	35.240000
2824.693677	40.900000
2826.021355	41.870000
2827.345701	37.070000
2828.671382	40.990000
2829.995288	40.910000
2831.318975	33.780000
2832.643997	39.150000
2833.965689	35.730000
2835.287163	41.340000
2836.608418	39.830000
2837.929454	39.820000
2839.248718	40.400000
2840.569317	36.710000
2841.888144	34.560000
2843.206753	37.250000
2844.523592	34.480000
2845.840213	41.620000
2847.156616	36.610000
2848.471251	42.520000
2849.787220	40.370000
2851.099869	39.940000
2852.413854	37.670000
2853.727622	38.250000
2855.041173	39.250000
2856.352957	35.950000
2857.662976	38.390000
2858.974328	40.980000
2860.282366	40.310000
2861.591739	36.280000
2862.900896	37.800000
2864.209838	43.500000
2865.517017	39.220000
2866.822432	42.910000
2868.129182	37.140000
2869.434169	37.360000
2870.738943	37.100000
2872.041955	38.970000
2873.347849	43.290000
2874.648887	46.620000
2875.951260	39.700000
2877.251873	39.880000
2878.553820	37.710000
2879.855554	39.450000
2881.153983	37.950000
2882.453747	35.240000
2883.751752	39.710000
2885.049546	41.340000
2886.345584	40.760000
2887.642955	37.090000
2888.938570	39.900000
2890.233974	33.050000
2891.529168	33.640000
2892.821063	37.330000
2894.115835	38.040000
2895.407310	39.410000
2896.700119	42.340000
2897.992716	36.640000
2899.282020	39.310000
2900.572656	33.610000
2901.861541	42.710000
2903.151759	40.220000
2904.438685	38.150000
2905.726943	33.330000
2907.013451	38.430000
2908.299752	37.550000
2909.585844	37.630000
2910.870188	41.310000
2912.157404	30.040000
2913.439792	34.050000
2914.723513	30.460000
2916.005488	38.540000
2917.287256	37.460000
2918.567278	39.790000
2919.850170	36.350000
2921.131317	39.610000
2922.409182	39.390000
2923.689916	37.470000
2924.967369	38.030000
2926.244617	38.040000
2927.520122	37.620000
2928.798495	35.450000
2930.072053	38.590000
2931.348479	40.350000
2932.623164	39.000000
2933.896109	34.560000
2935.170384	44.090000
2936.442920	31.700000
2937.715252	38.440000
2938.984310	34.380000
2940.256234	38.970000
2941.526420	34.920000
2942.796403	30.610000
2944.066182	31.080000
2945.334224	33.910000
2946.600531	36.470000
2947.866635	33.090000
2949.134069	38.650000
2950.399769	36.560000
2951.665266	36.920000
2952.930561	39.540000
2954.192591	39.110000
2955.455952	34.410000
2956.719110	33.540000
2957.980537	33.610000
2959.243293	35.310000
2960.504318	32.450000
2961.763612	37.110000
2963.022705	34.500000
2964.281598	36.580000
2965.540291	31.580000
2966.798784	36.970000
2968.055548	34.270000
2969.312112	35.240000
2970.566949	36.990000
2971.823115	33.070000
2973.076025	34.710000
2974.330265	36.160000
2975.584306	37.050000
2976.836621	37.340000
2978.088738	35.790000
2979.339130	36.770000
2980.592377	31.830000
2981.840847	36.730000
2983.092171	34.690000
2984.340247	35.220000
2985.588125	37.480000
2986.835806	34.240000
2988.083291	35.590000
2989.329054	35.920000
2990.574620	38.830000
2991.821514	31.830000
2993.065164	35.570000
2994.310142	38.390000
2995.551877	39.670000
2996.796463	32.600000
2998.039329	37.100000
2999.278955	39.800000
3000.521432	32.690000
3001.760668	32.650000
3003.001232	33.280000
3004.240079	32.610000
3005.478732	38.170000
3006.715669	40.600000
3007.953933	33.370000
3009.190483	35.180000
3010.426838	36.680000
3011.663000	34.790000
3012.897449	38.990000
3014.131704	37.970000
3015.365766	34.430000
3016.598116	31.480000
3017.828754	32.170000
3019.062238	34.360000
3020.294010	32.070000
3021.524072	32.440000
3022.753942	30.420000
3023.982102	30.430000
3025.211588	38.890000
3026.439366	37.710000
3027.666952	30.970000
3028.895864	37.230000
3030.120034	32.900000
3031.347047	35.960000
3032.570836	29.060000
3033.795952	32.560000
3035.019361	34.060000
3036.242581	38.290000
3037.464095	35.900000
3038.688450	29.860000
3039.908070	28.730000
3041.129015	32.170000
3042.349772	33.000000
3043.568825	35.830000
3044.789204	28.960000
3046.006366	41.850000
3047.224853	28.570000
3048.441639	31.190000
3049.658236	37.300000
3050.874646	32.240000
3052.087842	35.430000
3053.303876	35.710000
3054.516698	31.420000
3055.732357	32.580000
3056.943293	34.430000
3058.155554	31.690000
3059.367629	29.350000
3060.579517	31.340000
3061.789707	33.300000
3062.999711	34.710000
3064.209530	29.960000
3065.417652	36.500000
3066.625588	34.520000
3067.831830	28.690000
3069.039395	31.060000
3070.245267	30.585000
3071.450953	30.110000
3072.656454	33.770000
3073.860262	33.600000
3075.065394	33.250000
3076.268834	32.630000
3077.470581	30.930000
3078.672145	29.300000
3079.873525	33.690000
3081.074721	32.580000
3082.274227	30.410000
3083.473549	32.160000
3084.674195	33.530000
3085.873152	29.950000
3087.068913	35.090000
3088.267504	33.250000
3089.462901	33.060000
3090.659621	30.680000
3091.853149	33.820000
3093.049506	33.410000
3094.244175	30.610000
3095.435654	30.540000
3096.631464	28.760000
3097.822581	32.380000
3099.015020	32.170000
3100.204272	32.020000
3101.396350	30.240000
3102.586743	25.300000
3103.773951	34.270000
3104.962482	31.690000
3106.152335	32.300000
3107.339003	31.770000
3108.525492	31.130000
3109.711801	32.910000
3110.899432	30.650000
3112.083882	30.040000
3113.266651	25.950000
3114.452244	32.840000
3115.636156	30.490000
3116.818390	34.790000
3118.000445	31.630000
3119.182323	30.710000
3120.364022	37.910000
3121.544043	32.200000
3122.722388	26.830000
3123.903554	31.850000
3125.081544	32.150000
3126.259357	31.640000
3127.436993	32.820000
3128.612954	34.130000
3129.788738	27.070000
3130.965844	29.690000
3132.141275	26.700000
3133.315033	33.680000
3134.487119	28.500000
3135.660525	27.770000
3136.833756	34.640000
3138.005314	28.590000
3139.178194	27.900000
3140.347906	30.810000
3141.518939	29.730000
3142.688301	29.500000
3143.855994	27.730000
3145.026502	28.040000
3146.192351	24.220000
3147.362510	31.390000
3148.528011	30.620000
3149.693339	30.680000
3150.858493	28.490000
3152.023473	29.990000
3153.189774	33.230000
3154.351421	31.000000
3155.514389	31.750000
3156.677183	29.170000
3157.839805	31.090000
3159.000762	27.770000
3160.161546	30.570000
3161.322158	32.630000
3162.481107	30.880000
3163.639883	34.170000
3164.798488	33.310000
3165.956921	23.390000
3167.115182	32.980000
3168.271781	31.700000
3169.426719	29.460000
3170.582976	27.390000
3171.737573	26.780000
3172.891998	31.380000
3174.044764	28.100000
3175.197360	29.220000
3176.349785	28.560000
3177.502041	25.850000
3178.654127	28.370000
3179.803066	31.930000
3180.954812	24.960000
3182.104900	26.220000
3183.253332	24.710000
3184.401595	29.980000
3185.549688	30.100000
3186.697613	27.080000
3187.843883	27.710000
3188.989984	28.380000
3190.134430	33.060000
3191.278709	31.970000
3192.422820	25.990000
3193.568249	27.650000
3194.710539	27.370000
3195.852661	29.870000
3196.994616	32.420000
3198.136405	22.780000
3199.278026	24.250000
3200.416511	23.460000
3201.556314	28.440000
3202.697435	26.610000
3203.835421	29.430000
3204.971758	19.890000
3206.107929	28.990000
3207.245418	23.770000
3208.381258	31.480000
3209.518414	28.300000
3210.650958	28.940000
3211.787784	24.150000
3212.919998	27.390000
3214.053530	27.660000
3215.186896	24.980000
3216.317135	23.140000
3217.450172	26.550000
3218.580083	28.950000
3219.711311	26.740000
3220.839413	26.700000
3221.970312	24.610000
3223.099568	24.990000
3224.227179	21.580000
3225.351669	30.200000
3226.480434	31.720000
3227.606077	29.420000
3228.731557	26.970000
3229.855396	23.690000
3230.982029	22.440000
3232.104065	23.140000
3233.227417	24.170000
3234.350607	28.670000
3235.473635	25.090000
3236.595023	26.670000
3237.716250	30.610000
3238.835838	30.020000
3239.955265	23.870000
3241.073054	31.270000
3242.193636	24.010000
3243.311103	27.170000
3244.428411	25.140000
3245.545557	25.070000
3246.661068	28.700000
3247.777894	23.550000
3248.891609	28.260000
3250.008115	31.410000
3251.122985	26.870000
3252.234747	23.760000
3253.346350	23.830000
3254.459267	24.570000
3255.572026	29.720000
3256.681678	26.510000
3257.792645	27.860000
3258.903452	27.490000
3260.012629	27.610000
3261.120174	28.960000
3262.229034	24.940000
3263.337735	31.490000
3264.443334	25.440000
3265.550248	29.780000
3266.655532	24.330000
3267.762130	22.220000
3268.865628	28.230000
3269.970440	23.100000
3271.075095	28.290000
3272.176651	31.690000
3273.278052	23.190000
3274.380766	25.810000
3275.483323	30.020000
3276.582785	26.260000
3277.685029	22.600000
3278.784179	21.320000
3279.881703	36.760000
3280.979072	22.960000
3282.079224	25.310000
3283.176282	29.810000
3284.273185	29.320000
3285.369934	24.680000
3286.462123	26.210000
3287.558561	28.800000
3288.653378	24.740000
3289.748039	31.560000
3290.841079	28.200000
3291.933965	25.360000
3293.025230	28.970000
3294.117808	20.610000
3295.208765	24.530000
3296.298103	23.220000
3297.387288	26.070000
3298.477786	26.780000
3299.565199	25.530000
3300.652460	22.870000
3301.741033	27.450000
3302.829453	29.400000
3303.913326	28.380000
3305.001441	23.960000
3306.086475	28.470000
3307.169893	21.010000
3308.254622	26.640000
3309.337737	24.030000
3310.422163	24.880000
3311.503511	23.040000
3312.586171	29.020000
3313.667217	30.070000
3314.748112	23.020000
3315.827394	20.580000
3316.906525	24.970000
3317.986967	26.150000
3319.064336	31.910000
3320.143016	27.910000
3321.220084	26.940000
3322.297002	28.230000
3323.372309	27.250000
3324.447467	22.360000
3325.523936	23.330000
3326.597335	22.650000
3327.670585	24.290000
3328.745146	23.490000
3329.818097	31.750000
3330.889441	25.970000
3331.962095	25.100000
3333.031682	24.380000
3334.102580	28.190000
3335.171871	23.380000
3336.242473	31.550000
3337.311468	23.710000
3338.378857	22.600000
3339.444641	27.220000
3340.514651	27.280000
3341.581598	29.450000
3342.645483	24.770000
3343.712136	25.680000
3344.777184	23.550000
3345.840630	29.000000
3346.903928	24.840000
3347.967081	23.260000
3349.030087	24.460000
3350.092946	23.180000
3351.154204	24.430000
3352.212405	23.980000
3353.274827	24.500000
3354.334192	24.200000
3355.393412	26.150000
3356.453942	25.010000
3357.509962	27.180000
3358.568747	23.080000
3359.623024	32.290000
3360.680064	24.300000
3361.735507	26.520000
3362.792258	26.010000
3363.847412	26.130000
3364.900968	19.170000
3365.952927	26.030000
3367.007648	29.620000
3368.059320	26.880000
3369.110849	28.930000
3370.163687	23.760000
3371.213477	26.750000
3372.264575	27.800000
3373.312628	21.840000
3374.363441	28.030000
3375.411208	24.240000
3376.458833	29.740000
3377.506315	26.910000
3378.552205	26.350000
3379.599403	24.370000
3380.643559	19.060000
3381.690473	20.430000
3382.735795	23.480000
3383.778077	25.320000
3384.820217	30.420000
3385.863665	19.720000
3386.906973	24.130000
3387.948690	27.170000
3388.990266	25.960000
3390.031702	27.950000
3391.071548	23.850000
3392.109807	27.000000
3393.149373	25.900000
3394.188798	24.710000
3395.226637	28.110000
3396.262888	22.040000
3397.298999	24.360000
3398.336418	24.620000
3399.370804	27.840000
3400.406497	26.560000
3401.442051	24.310000
3402.474574	24.250000
3403.509850	23.210000
3404.542095	22.800000
3405.574202	23.370000
3406.604725	24.960000
3407.636556	29.730000
3408.668247	23.700000
3409.696912	24.310000
3410.725438	24.110000
3411.755272	20.960000
3412.784967	23.220000
3413.811637	23.660000
3414.839614	19.340000
3415.864566	27.570000
3416.892268	27.360000
3417.916947	21.470000
3418.942932	29.320000
3419.967337	31.070000
3420.991606	21.130000
3422.014296	27.120000
3423.036850	23.600000
3424.060710	25.230000
3425.081550	24.410000
3426.102255	26.070000
3427.124265	20.890000
3428.143257	29.600000
3429.162114	27.730000
3430.182276	26.010000
3431.199422	24.210000
