-118.057191	4.910000
-115.387591	4.170000
-112.720926	2.630000
-110.055013	3.570000
-107.392032	0.680000
-104.727622	4.020000
-102.066142	3.110000
-99.403232	1.650000
-96.745430	1.710000
-94.086197	1.610000
-91.427713	8.350000
-88.772154	2.180000
-86.115166	6.640000
-83.463275	7.910000
-80.809955	3.820000
-78.159555	3.420000
-75.507725	0.740000
-72.860986	2.680000
-70.212817	0.630000
-67.565392	-1.420000
-64.920880	3.070000
-62.274940	1.190000
-59.634081	4.150000
-56.991793	4.910000
-54.352413	6.930000
-51.711605	-3.260000
-49.071537	3.340000
-46.436541	8.630000
-43.800116	7.810000
-41.166595	5.970000
-38.531645	5.980000
-35.901760	0.300000
-33.268283	1.870000
-30.639868	6.510000
-28.012186	6.060000
-25.383077	5.800000
-22.759024	9.030000
-20.131382	8.260000
-17.508793	9.360000
-14.886935	20.840000
-12.265809	33.680000
-9.645412	85.860000
-7.027903	263.240000
-4.408966	868.840000
-1.792915	2143.900000
0.822408	2698.020000
3.437004	1727.630000
6.048717	224.790000
8.661859	31.820000
11.269967	18.340000
13.881657	8.600000
16.488316	4.630000
19.096403	9.540000
21.703766	9.450000
24.306104	2.250000
26.912020	3.730000
29.512914	4.750000
32.115237	2.550000
34.712541	1.870000
37.313421	4.340000
39.909287	3.750000
42.506580	2.310000
45.103154	3.510000
47.694719	2.940000
50.287712	-0.030000
52.877844	1.860000
55.469404	6.330000
58.058104	6.240000
60.648231	-1.340000
63.233360	3.730000
65.819916	3.950000
68.405757	1.350000
70.988745	4.720000
73.573160	2.230000
76.150445	-1.970000
78.731297	-0.710000
81.309300	3.750000
83.886593	-0.930000
86.465312	2.610000
89.039050	0.380000
91.614214	4.490000
94.186535	0.790000
96.758148	3.190000
99.326922	0.340000
101.897122	5.260000
104.464483	1.130000
107.033271	2.990000
109.599221	7.470000
112.162337	8.800000
114.729009	5.310000
117.286460	2.310000
119.849596	9.320000
122.407773	8.660000
124.969503	9.710000
127.526278	19.140000
130.084478	21.400000
132.637726	42.250000
135.190275	54.690000
137.746375	74.030000
140.297528	103.040000
142.847982	119.610000
145.397740	141.990000
147.944678	156.410000
150.490920	163.280000
153.038589	169.720000
155.585561	181.190000
158.127597	177.200000
160.668940	177.940000
163.209590	177.340000
165.751666	174.130000
168.290931	167.120000
170.827386	169.760000
173.363151	176.530000
175.900341	167.360000
178.436839	165.840000
180.970532	163.540000
183.501422	165.350000
186.031623	160.300000
188.563249	163.390000
191.092074	165.310000
193.618100	160.440000
196.143441	164.250000
198.670206	161.430000
201.194174	161.920000
203.717458	155.840000
206.240057	161.930000
208.759863	159.440000
211.278986	156.140000
213.797426	157.210000
216.317290	156.680000
218.830153	154.880000
221.346547	160.190000
223.862259	157.710000
226.373082	155.920000
228.885329	157.030000
231.394793	163.280000
233.903579	154.250000
236.411687	162.830000
238.921218	156.680000
241.425870	155.500000
243.929845	156.920000
246.435244	157.720000
248.935768	162.010000
251.439815	165.580000
253.936892	171.790000
256.437491	171.900000
258.935319	174.000000
261.432474	171.360000
263.928956	182.150000
266.420576	188.840000
268.915714	195.390000
271.408087	202.400000
273.899789	206.950000
276.388728	221.780000
278.879090	245.000000
281.366691	257.420000
283.851532	296.390000
286.339887	344.830000
288.821303	448.560000
291.306233	633.040000
293.786318	995.470000
296.269915	1549.930000
298.748669	2222.820000
301.228847	2473.280000
303.706272	1984.640000
306.183034	1193.700000
308.659133	686.760000
311.132483	448.430000
313.605171	336.650000
316.077198	277.050000
318.548564	248.960000
321.017186	246.140000
323.485148	224.500000
325.954533	196.990000
328.419095	187.360000
330.887160	177.630000
333.350406	179.290000
335.812995	175.310000
338.274926	177.580000
340.736201	172.250000
343.194742	170.850000
345.654705	174.550000
348.111935	175.610000
350.568511	173.410000
353.024433	176.470000
355.477626	164.150000
357.932240	166.720000
360.382053	169.680000
362.835363	166.970000
365.283873	162.270000
367.731733	159.920000
370.181014	160.870000
372.625502	151.480000
375.071412	156.450000
377.516673	155.520000
379.959215	152.390000
382.401109	152.110000
384.842355	145.570000
387.280886	154.490000
389.720839	145.270000
392.158078	154.380000
394.592605	143.460000
397.030620	143.930000
399.463858	144.210000
401.898518	145.750000
404.328404	145.640000
406.761776	147.450000
409.190378	150.260000
411.618339	151.780000
414.047720	155.090000
416.472336	151.830000
418.898374	150.190000
421.323771	150.450000
423.748528	152.020000
426.168527	149.960000
428.589947	151.850000
431.008670	147.960000
433.428814	151.110000
435.846263	150.390000
438.265132	148.010000
440.681308	154.170000
443.092737	150.440000
445.507642	156.980000
447.919857	151.150000
450.331438	156.490000
452.742385	151.570000
455.150646	155.520000
457.558274	152.490000
459.965271	158.470000
462.371635	148.290000
464.775317	150.610000
467.178369	152.320000
469.580791	156.040000
471.982584	146.750000
474.381698	148.310000
476.782232	140.450000
479.182137	143.760000
481.577319	142.600000
483.975968	141.650000
486.369897	139.530000
488.763200	137.650000
491.155877	130.570000
493.547929	132.830000
495.941400	126.690000
498.330158	126.440000
500.716250	120.380000
503.103762	113.140000
505.490650	114.110000
507.874875	107.620000
510.260519	102.860000
512.643500	102.570000
515.023821	98.690000
517.405561	103.470000
519.784642	100.210000
522.165142	100.620000
524.542984	95.380000
526.918171	100.540000
529.292740	99.710000
531.668728	93.380000
534.042062	96.530000
536.416814	100.130000
538.786881	96.570000
541.156332	104.880000
543.527201	101.180000
545.893390	103.770000
548.260997	107.940000
550.625958	104.840000
552.990306	103.410000
555.354042	109.260000
557.719195	103.470000
560.079675	106.050000
562.441574	110.280000
564.800833	114.090000
567.157453	112.530000
569.517518	116.040000
571.870893	108.540000
574.227712	107.040000
576.581895	101.010000
578.935471	107.020000
581.288438	101.710000
583.638774	103.990000
585.990526	100.590000
588.335602	97.130000
590.686142	99.790000
593.030009	92.760000
595.379336	87.490000
597.724016	93.790000
600.066070	81.880000
602.409542	85.290000
604.750391	79.160000
607.090638	76.450000
609.428264	79.290000
611.769325	73.730000
614.105749	79.380000
616.443589	74.210000
618.778811	69.400000
621.111418	67.650000
623.445441	72.750000
625.776851	67.060000
628.107662	68.750000
630.437875	71.750000
632.767490	72.650000
635.092483	66.450000
637.422917	63.490000
639.748729	69.090000
642.071935	63.340000
644.396556	62.680000
646.718573	66.900000
649.039995	69.670000
651.358814	63.980000
653.679049	63.370000
655.998691	64.610000
658.315732	65.500000
660.632181	68.680000
662.946033	63.780000
665.261299	60.910000
667.573969	64.710000
669.888054	63.510000
672.197539	66.180000
674.508440	60.860000
676.816748	58.970000
679.124468	61.420000
681.433603	56.890000
683.738145	62.770000
686.042100	58.030000
688.345470	60.200000
690.650254	60.570000
692.950452	53.550000
695.252064	61.200000
697.553092	62.670000
699.849537	57.580000
702.147398	55.580000
704.444675	56.820000
706.741369	58.120000
709.033487	60.870000
711.329016	62.990000
713.619972	62.400000
715.912342	58.510000
718.202136	64.980000
720.491351	55.610000
722.779985	59.820000
725.066048	58.930000
727.353524	61.970000
729.638430	60.200000
731.922757	59.980000
734.204516	60.400000
736.487689	61.280000
738.770285	60.450000
741.048326	62.750000
743.327780	65.480000
745.606659	62.330000
747.884962	60.940000
750.158716	62.660000
752.433884	61.820000
754.708478	61.040000
756.980513	56.480000
759.253960	63.400000
761.524850	58.030000
763.793184	57.410000
766.062931	61.300000
768.330124	59.220000
770.596746	60.990000
772.862799	69.640000
775.126299	59.490000
777.391213	62.050000
779.655557	66.300000
781.915372	63.460000
784.176600	61.490000
786.437260	59.950000
788.695373	68.250000
790.950942	66.220000
793.209902	59.940000
795.462363	64.370000
797.720191	64.270000
799.973499	63.690000
802.224268	60.550000
804.476449	64.610000
806.726092	63.560000
808.977146	63.790000
811.223689	62.070000
813.471645	61.960000
815.717065	61.800000
817.963897	54.840000
820.210168	57.900000
822.451935	61.770000
824.697084	63.110000
826.935761	57.230000
829.177821	60.160000
831.415382	58.000000
833.654354	57.420000
835.890800	56.240000
838.128658	61.570000
840.363990	59.180000
842.596798	63.430000
844.831018	63.370000
847.062716	59.150000
849.293859	55.600000
851.524447	56.620000
853.754481	58.450000
855.983960	58.690000
858.208958	58.270000
860.437331	54.420000
862.661225	54.190000
864.886529	58.230000
867.107358	54.760000
869.331559	58.280000
871.551287	55.660000
873.772426	55.210000
875.993014	52.220000
878.211092	60.750000
880.430581	57.920000
882.645603	56.550000
884.860077	62.250000
887.074004	51.390000
889.287383	57.450000
891.500215	52.330000
893.712501	54.310000
895.922284	54.890000
898.131522	54.880000
900.340215	53.070000
902.546409	58.810000
904.754012	55.090000
906.959118	48.720000
909.163680	56.350000
911.365746	55.650000
913.569222	54.100000
915.770204	46.250000
917.970645	52.550000
920.172494	54.540000
922.367951	56.810000
924.566768	56.770000
926.761147	58.070000
928.958882	57.720000
931.152182	60.430000
933.346891	55.250000
935.539114	60.390000
937.730799	57.490000
939.921946	53.700000
942.110610	55.730000
944.298737	53.340000
946.484384	65.500000
948.673383	59.160000
950.857959	57.570000
953.042000	56.430000
955.229391	57.660000
957.408478	61.400000
959.590916	61.370000
961.772820	63.580000
963.952250	65.850000
966.129207	57.720000
968.307571	64.070000
970.487343	65.940000
972.660766	67.290000
974.837535	65.050000
977.009898	72.160000
979.183667	64.400000
981.353033	72.450000
983.525744	70.250000
985.695988	66.150000
987.865704	65.350000
990.034891	74.130000
992.199681	68.630000
994.367812	74.850000
996.531549	66.410000
998.696692	69.540000
1000.859377	72.030000
1003.021535	72.310000
1005.181237	71.650000
1007.340415	78.750000
1009.500999	74.360000
1011.659128	75.160000
1013.816733	76.810000
1015.973815	71.380000
1018.130374	69.470000
1020.282553	73.240000
1022.436138	75.820000
1024.589202	73.690000
1026.739818	79.190000
1028.891839	82.390000
1031.039487	73.090000
1033.190467	76.060000
1035.337076	80.880000
1037.483167	78.590000
1039.628738	85.120000
1041.775715	83.050000
1043.916404	83.000000
1046.060421	82.960000
1048.201998	79.620000
1050.343059	81.930000
1052.485524	82.130000
1054.621710	81.070000
1056.761222	83.050000
1058.896378	78.740000
1061.034859	81.840000
1063.168987	78.590000
1065.302600	75.230000
1067.437619	84.820000
1069.568288	82.660000
1071.700362	78.390000
1073.830007	79.110000
1075.959140	76.260000
1078.087761	77.960000
1080.215871	76.220000
1082.341555	76.150000
1084.466729	75.350000
1086.593307	71.540000
1088.715548	69.480000
1090.839192	75.810000
1092.958503	77.670000
1095.083042	72.790000
1097.201336	79.080000
1099.321035	72.710000
1101.438315	69.720000
1103.555089	69.080000
1105.671356	72.460000
1107.785208	67.090000
1109.900463	70.730000
1112.011396	62.250000
1114.125640	68.130000
1116.235564	65.550000
1118.346892	59.670000
1120.457715	64.790000
1122.564223	63.590000
1124.674039	63.730000
1126.779541	66.160000
1128.886446	59.690000
1130.987136	61.960000
1133.093038	65.460000
1135.194631	60.920000
1137.297627	59.540000
1139.400122	60.660000
1141.496411	63.150000
1143.597906	57.960000
1145.695099	62.220000
1147.791793	63.660000
1149.887989	58.480000
1151.983688	63.800000
1154.078889	64.010000
1156.171693	65.880000
1158.265899	63.810000
1160.353914	63.490000
1162.447127	61.800000
1164.534152	60.990000
1166.624476	59.280000
1168.710513	63.890000
1170.799847	56.520000
1172.883000	55.900000
1174.967556	57.540000
1177.053512	62.140000
1179.135187	59.560000
1181.218264	55.620000
1183.298955	55.740000
1185.379154	57.890000
1187.458862	58.070000
1189.538079	62.470000
1191.614914	61.820000
1193.689368	65.100000
1195.767114	56.920000
1197.840589	56.730000
1199.915465	57.230000
1201.986074	59.250000
1204.058085	56.770000
1206.127719	59.930000
1208.198754	58.700000
1210.269301	64.250000
1212.335587	58.010000
1214.403274	56.820000
1216.468589	49.250000
1218.535304	58.570000
1220.597763	55.130000
1222.663507	57.290000
1224.724998	57.120000
1226.787888	55.410000
1228.848411	51.760000
1230.908450	55.740000
1232.968007	53.070000
1235.025198	57.380000
1237.081908	55.530000
1239.136255	54.940000
1241.193882	53.010000
1243.249147	48.920000
1245.300171	54.070000
1247.352595	57.740000
1249.404539	50.000000
1251.454125	53.450000
1253.503232	52.430000
1255.551861	53.650000
1257.600011	50.940000
1259.647683	50.330000
1261.691124	49.140000
1263.737840	51.190000
1265.782204	56.690000
1267.826090	51.410000
1269.867626	51.350000
1271.906812	53.810000
1273.949270	53.950000
1275.987506	59.170000
1278.027141	54.520000
1280.066301	55.190000
1282.101243	55.790000
1284.137583	55.020000
1286.171578	50.350000
1288.206972	52.100000
1290.238152	53.950000
1292.270731	47.860000
1294.302837	55.220000
1296.332603	53.590000
1298.363767	54.430000
1300.390723	51.100000
1302.419077	50.970000
1304.443227	51.670000
1306.470641	48.250000
1308.493853	51.520000
1310.518463	52.980000
1312.540739	53.060000
1314.564412	49.860000
1316.585752	54.210000
1318.606624	51.600000
1320.627030	54.290000
1322.643241	53.550000
1324.660851	53.950000
1326.676132	49.660000
1328.694671	52.670000
1330.709022	50.780000
1332.721047	54.400000
1334.736329	48.330000
1336.747426	51.380000
1338.759920	50.800000
1340.768231	52.930000
1342.779798	48.330000
1344.785325	46.570000
1346.794108	51.000000
1348.798713	56.670000
1350.806572	52.930000
1352.813969	53.220000
1354.815335	47.110000
1356.818098	45.520000
1358.820400	54.600000
1360.822243	53.120000
1362.823626	48.060000
1364.822696	52.480000
1366.821307	55.260000
1368.819460	51.000000
1370.817155	51.550000
1372.810686	56.450000
1374.805614	46.510000
1376.800085	47.050000
1378.794099	49.220000
1380.785806	49.890000
1382.777057	51.680000
1384.766003	54.110000
1386.756344	49.690000
1388.746230	54.620000
1390.733813	49.530000
1392.720941	55.270000
1394.705769	46.580000
1396.691990	50.470000
1398.675912	50.080000
1400.659381	49.180000
1402.642398	52.480000
1404.623117	48.120000
1406.605230	49.420000
1408.585046	57.150000
1410.564412	49.520000
1412.539638	51.670000
1414.518104	52.090000
1416.494276	46.580000
1418.469998	53.130000
1420.445271	54.670000
1422.418253	54.270000
1424.390787	54.790000
1426.362874	51.170000
1428.334512	50.540000
1430.302022	51.420000
1432.274607	52.150000
1434.239385	47.600000
1436.209236	52.370000
1438.174962	52.520000
1440.142082	56.710000
1442.106917	53.670000
1444.067634	52.270000
1446.033418	49.250000
1447.993247	52.830000
1449.954469	48.780000
1451.917084	53.040000
1453.875584	54.340000
1455.833642	56.200000
1457.791257	55.040000
1459.748431	54.510000
1461.703329	55.560000
1463.659619	54.390000
1465.613635	50.230000
1467.567211	53.490000
1469.518514	49.140000
1471.471209	57.560000
1473.421633	51.070000
1475.371618	48.250000
1477.321163	53.480000
1479.268440	50.820000
1481.213450	50.030000
1483.159851	54.920000
1485.105816	53.060000
1487.051342	54.420000
1488.994604	54.780000
1490.937429	53.170000
1492.877991	51.390000
1494.819944	56.960000
1496.759636	55.270000
1498.698892	53.570000
1500.637713	51.660000
1502.574275	54.180000
1504.512228	52.220000
1506.447923	59.420000
1508.383184	50.100000
1510.316188	48.760000
1512.248760	52.830000
1514.180900	56.320000
1516.112608	55.700000
1518.042062	55.340000
1519.972907	57.840000
1521.903321	50.160000
1523.829661	49.080000
1525.757393	55.110000
1527.682874	48.920000
1529.607926	53.060000
1531.532549	53.740000
1533.456743	60.040000
1535.378690	56.930000
1537.302026	53.570000
1539.223117	52.880000
1541.141963	51.090000
1543.062199	47.780000
1544.980191	58.200000
1546.897757	56.810000
1548.813081	56.550000
1550.729795	53.520000
1552.642454	52.590000
1554.558317	64.290000
1556.471940	61.130000
1558.383326	54.380000
1560.296100	55.580000
1562.204825	59.780000
1564.114940	54.350000
1566.024631	50.940000
1567.933898	51.440000
1569.840932	50.880000
1571.745733	53.850000
1573.651923	58.290000
1575.555881	57.010000
1577.459419	54.210000
1579.362535	59.480000
1581.263423	57.560000
1583.165698	57.190000
1585.065746	54.810000
1586.967181	51.770000
1588.864583	55.680000
1590.761566	59.160000
1592.658131	51.100000
1594.556084	51.430000
1596.448202	52.740000
1598.343513	52.320000
1600.238407	54.450000
1602.131079	59.780000
1604.023335	52.990000
1605.913371	52.600000
1607.802991	53.480000
1609.692195	51.330000
1611.580985	50.130000
1613.467558	54.720000
1615.355517	56.450000
1617.239460	57.700000
1619.124791	51.660000
1621.009707	51.420000
1622.892411	49.890000
1624.776500	55.810000
1626.656579	52.130000
1628.538044	53.620000
1630.417299	55.730000
1632.297940	51.340000
1634.172777	53.350000
1636.052596	54.540000
1637.928409	49.540000
1639.803812	51.730000
1641.680602	52.860000
1643.551594	52.250000
1645.425768	55.170000
1647.295944	55.040000
1649.169300	54.260000
1651.040453	49.870000
1652.909404	59.490000
1654.779741	55.050000
1656.646084	55.160000
1658.513813	48.940000
1660.379344	51.180000
1662.246259	52.720000
1664.109186	52.510000
1665.973498	52.180000
1667.835614	52.350000
1669.697326	51.440000
1671.560422	48.320000
1673.421324	58.900000
1675.280032	52.070000
1677.138337	53.920000
1678.998027	52.600000
1680.851950	53.410000
1682.709045	54.260000
1684.565738	52.600000
1686.418455	52.960000
1688.274343	44.970000
1690.126256	53.130000
1691.977769	51.190000
1693.828881	56.390000
1695.679593	53.540000
1697.529904	54.110000
1699.378031	50.600000
1701.227541	47.830000
1703.071303	53.930000
1704.920014	54.070000
1706.762980	50.230000
1708.609111	54.350000
1710.451281	54.840000
1712.296615	48.640000
1714.136209	50.180000
1715.977187	52.170000
1717.819548	48.110000
1719.657953	52.200000
1721.497741	50.930000
1723.335354	53.420000
1725.172571	51.370000
1727.007615	49.170000
1728.844042	53.220000
1730.678297	45.590000
1732.512157	49.260000
1734.345624	48.540000
1736.175144	51.140000
1738.007823	55.080000
1739.836558	47.420000
1741.668451	50.930000
1743.496401	51.790000
1745.323959	46.530000
1747.151125	49.970000
1748.977900	52.640000
1750.804284	52.780000
1752.626731	55.330000
1754.452332	52.980000
1756.273999	53.130000
1758.097048	50.040000
1759.917936	57.260000
1761.738434	57.670000
1763.560314	52.770000
1765.376494	48.500000
1767.195826	50.780000
1769.011231	52.570000
1770.829786	50.120000
1772.644416	53.840000
1774.458660	51.940000
1776.272516	48.120000
1778.085986	58.980000
1779.897303	50.610000
1781.710001	46.450000
1783.522312	54.700000
1785.330706	49.410000
1787.140481	43.270000
1788.946340	57.070000
1790.755346	58.560000
1792.560437	51.560000
1794.366910	49.250000
1796.172999	49.890000
1797.975178	48.320000
1799.780500	52.100000
1801.581914	48.750000
1803.384708	50.450000
1805.183596	49.050000
1806.983865	53.410000
1808.783752	50.770000
1810.581498	50.120000
1812.378863	50.450000
1814.175847	49.430000
1815.972451	51.890000
1817.766916	51.420000
1819.562760	47.180000
1821.352950	54.190000
1823.148036	53.510000
1824.937469	47.700000
1826.730039	55.650000
1828.520474	46.390000
1830.308775	50.980000
1832.100211	58.610000
1833.886001	49.310000
1835.673171	51.070000
1837.458209	50.390000
1839.246381	47.210000
1841.030667	53.490000
1842.812824	52.870000
1844.596359	47.600000
1846.377766	52.440000
1848.160552	55.070000
1849.939458	56.090000
1851.719742	47.490000
1853.497900	52.140000
1855.277437	53.620000
1857.054849	55.670000
1858.830137	54.440000
1860.606804	50.240000
1862.381347	54.880000
1864.157269	50.960000
1865.927571	52.330000
1867.700999	51.940000
1869.472308	47.790000
1871.243247	52.160000
1873.015562	57.530000
1874.782265	55.370000
1876.552092	50.530000
1878.318056	52.380000
1880.087144	49.430000
1881.852370	51.160000
1883.617227	46.360000
1885.383462	49.310000
1887.145838	46.070000
1888.907847	53.630000
1890.669488	57.140000
1892.430763	46.050000
1894.191670	47.980000
1895.952211	54.860000
1897.710642	50.590000
1899.468708	55.740000
1901.224665	46.780000
1902.982000	48.120000
1904.738968	51.080000
1906.493831	48.740000
1908.246588	50.280000
1909.998982	47.150000
1911.752751	49.060000
1913.504417	55.140000
1915.253981	49.740000
1917.004921	49.530000
1918.755497	47.190000
1920.502234	47.390000
1922.250348	48.170000
1923.996362	46.560000
1925.743752	51.060000
1927.489043	52.470000
1929.232237	51.900000
1930.976807	50.340000
1932.719280	50.120000
1934.461393	51.440000
1936.203146	51.330000
1937.944540	47.440000
1939.683840	51.310000
1941.422781	52.330000
1943.161363	51.150000
1944.897853	47.820000
1946.633986	49.215000
1948.371493	50.610000
1950.105178	52.350000
1951.840238	51.160000
1953.573210	44.500000
1955.305825	49.150000
1957.038083	51.960000
1958.769985	53.550000
1960.499801	58.570000
1962.227533	49.430000
1963.956638	51.880000
1965.685389	52.360000
1967.412056	48.810000
1969.138369	43.340000
1970.866055	58.160000
1972.588205	51.080000
1974.313456	47.540000
1976.034901	52.200000
1977.759445	53.720000
1979.481910	49.120000
1981.200571	57.080000
1982.922331	52.910000
1984.640289	52.650000
1986.359620	53.400000
1988.075152	56.760000
1989.795505	48.850000
1991.512058	52.040000
1993.224816	48.820000
1994.940669	54.570000
1996.654449	55.270000
1998.367880	51.370000
2000.079240	44.770000
2001.791973	49.320000
2003.500914	57.110000
2005.212949	53.030000
2006.919474	50.820000
2008.629092	47.610000
2010.336642	50.250000
2012.043845	53.110000
2013.748982	53.500000
2015.453772	51.950000
2017.159934	49.780000
2018.862314	51.890000
2020.566066	51.890000
2022.267754	47.900000
2023.969098	53.600000
2025.670096	55.340000
2027.369034	54.300000
2029.069342	52.950000
2030.765876	50.840000
2032.463781	52.970000
2034.159628	52.930000
2035.858559	51.280000
2037.552005	55.120000
2039.246823	48.640000
2040.941297	52.580000
2042.632003	53.110000
2044.325793	48.500000
2046.015816	51.350000
2047.707210	46.440000
2049.396551	54.300000
2051.087262	53.910000
2052.774211	56.430000
2054.460819	55.190000
2056.148798	52.140000
2057.833017	54.880000
2059.518606	53.670000
2061.203856	56.970000
2062.887058	50.240000
2064.571629	51.040000
2066.250738	49.240000
2067.934632	47.380000
2069.613066	54.280000
2071.294576	49.460000
2072.972336	51.970000
2074.649758	45.670000
2076.328551	52.620000
2078.005300	49.360000
2079.680008	51.960000
2081.356085	46.760000
2083.030122	46.620000
2084.703823	51.950000
2086.377189	49.390000
2088.048517	46.060000
2089.719510	49.400000
2091.390169	53.690000
2093.060493	53.480000
2094.730484	52.410000
2096.398439	52.630000
2098.066061	47.710000
2099.731649	47.510000
2101.398605	52.610000
2103.063527	53.860000
2104.728118	51.260000
2106.390677	47.090000
2108.054604	48.880000
2109.716501	51.080000
2111.378066	55.330000
2113.039300	55.150000
2114.698506	53.490000
2116.357382	55.920000
2118.015927	51.540000
2119.674143	46.690000
2121.328635	51.770000
2122.986192	49.760000
2124.643420	49.640000
2126.296926	48.840000
2127.951800	50.760000
2129.602956	47.650000
2131.257173	57.610000
2132.907674	53.170000
2134.559541	45.350000
2136.206000	52.130000
2137.857214	49.140000
2139.504714	49.940000
2141.153581	49.530000
2142.800430	50.810000
2144.446952	47.340000
2146.093149	54.850000
2147.735638	50.260000
2149.381185	54.760000
2151.023025	46.930000
2152.667922	53.720000
2154.309114	52.790000
2155.949982	50.390000
2157.590526	52.110000
2159.229059	53.970000
2160.868957	53.710000
2162.505155	52.360000
2164.142719	50.680000
2165.779960	54.140000
2167.415192	48.410000
2169.050103	53.880000
2170.684692	50.580000
2172.318959	48.390000
2173.949534	48.030000
2175.583159	53.220000
2177.213093	51.520000
2178.844392	53.780000
2180.473687	49.960000
2182.102661	48.310000
2183.731317	51.790000
2185.359653	47.610000
2186.985986	51.500000
2188.612001	51.030000
2190.236015	48.310000
2191.861393	49.810000
2193.484772	49.770000
2195.109514	48.490000
2196.730576	53.240000
2198.351321	55.660000
2199.973431	47.290000
2201.593543	51.880000
2203.211658	51.930000
2204.829458	52.230000
2206.446943	49.280000
2208.064112	49.510000
2209.680966	48.450000
2211.297505	51.110000
2212.912050	46.430000
2214.524603	47.660000
2216.138520	49.600000
2217.750446	52.400000
2219.363735	51.010000
2220.975034	53.180000
2222.584343	50.150000
2224.195016	45.910000
2225.803700	50.360000
2227.412072	44.580000
2229.018456	45.460000
2230.626204	50.130000
2232.231965	49.490000
2233.837415	54.940000
2235.440881	48.500000
2237.045709	49.990000
2238.648553	46.570000
2240.249414	49.450000
2241.851638	51.640000
2243.451879	50.590000
2245.053483	51.660000
2246.651435	49.680000
2248.250749	50.820000
2249.848083	49.780000
2251.445109	51.590000
2253.043496	49.360000
2254.638235	49.530000
2256.230997	51.050000
2257.825122	49.210000
2259.420608	46.050000
2261.012450	47.980000
2262.603985	47.180000
2264.196881	48.530000
2265.784468	51.820000
2267.376752	50.770000
2268.963728	51.610000
2270.553733	47.890000
2272.138433	48.210000
2273.727827	47.590000
2275.311918	52.600000
2276.897371	46.250000
2278.480854	52.730000
2280.067364	49.450000
2281.650240	49.490000
2283.232812	40.890000
2284.815081	46.590000
2286.393721	43.010000
2287.975384	48.550000
2289.553419	46.490000
2291.134477	43.290000
2292.711909	45.180000
2294.287376	47.070000
2295.865866	44.190000
2297.440732	43.780000
2299.015297	45.980000
2300.589562	44.150000
2302.163526	49.250000
2303.737190	43.190000
2305.310553	44.530000
2306.880298	50.450000
2308.449744	38.760000
2310.022209	46.220000
2311.589398	47.400000
2313.159606	48.890000
2314.726199	45.430000
2316.294152	47.790000
2317.860150	49.700000
2319.425849	49.730000
2320.991252	52.380000
2322.554701	44.970000
2324.119508	49.440000
2325.680708	54.450000
2327.244922	61.300000
2328.803875	59.070000
2330.365841	60.520000
2331.925857	53.740000
2333.485577	48.210000
2335.043348	50.410000
2336.600825	47.910000
2338.158006	48.620000
2339.713241	46.300000
2341.268181	50.690000
2342.822828	44.390000
2344.377181	48.180000
2345.931240	43.650000
2347.485005	51.260000
2349.036827	45.170000
2350.586705	45.780000
2352.139591	49.330000
2353.687235	50.170000
2355.237886	45.970000
2356.784947	50.960000
2358.333365	50.130000
2359.881491	51.400000
2361.426030	47.330000
2362.971926	52.100000
2364.515883	46.510000
2366.061198	46.770000
2367.602928	48.740000
2369.146015	42.360000
2370.687167	46.270000
2372.228029	46.460000
2373.768602	44.350000
2375.308886	48.410000
2376.848881	45.050000
2378.385297	45.450000
2379.924715	52.360000
2381.460556	44.540000
2382.997753	44.110000
2384.531375	52.120000
2386.067998	44.190000
2387.602689	48.770000
2389.135451	44.290000
2390.667927	50.660000
2392.198474	45.880000
2393.732019	43.000000
2395.260353	44.230000
2396.790043	48.980000
2398.319448	42.790000
2399.848567	46.070000
2401.377402	39.140000
2402.901031	50.820000
2404.429297	46.940000
2405.952359	46.430000
2407.480055	47.890000
2409.000912	44.030000
2410.526402	50.430000
2412.048331	42.990000
2413.571616	51.450000
2415.092980	46.860000
2416.612424	45.580000
2418.133223	46.650000
2419.652103	46.490000
2421.170701	52.550000
2422.687382	47.170000
2424.205417	46.560000
2425.723171	48.410000
2427.237374	51.520000
2428.751296	49.310000
2430.264938	52.530000
2431.779935	48.890000
2433.291383	46.250000
2434.804186	46.820000
2436.315076	50.160000
2437.825686	52.010000
2439.334385	51.480000
2440.846071	42.510000
2442.354212	46.640000
2443.862076	41.700000
2445.369662	51.190000
2446.873707	47.120000
2448.380738	45.280000
2449.885860	44.450000
2451.390705	51.670000
2452.893643	46.590000
2454.396304	46.580000
2455.898689	51.860000
2457.399169	46.340000
2458.901002	47.080000
2460.400931	47.240000
2461.900584	47.750000
2463.399962	43.770000
2464.897436	44.130000
2466.393010	47.710000
2467.891563	43.050000
2469.386587	45.080000
2470.882965	43.800000
2472.375816	46.830000
2473.870019	41.070000
2475.363949	48.860000
2476.854356	46.060000
2478.347739	43.770000
2479.839225	50.160000
2481.328814	46.210000
2482.818131	42.560000
2484.305553	49.220000
2485.795950	43.310000
2487.282828	41.240000
2488.771058	46.450000
2490.255772	46.040000
2491.740215	43.280000
2493.226010	48.910000
2494.709912	46.710000
2496.195166	44.280000
2497.675286	44.370000
2499.158378	45.570000
2500.639580	41.240000
2502.120513	44.240000
2503.599557	46.370000
2505.078332	43.950000
2506.556839	43.270000
2508.035078	49.610000
2509.513048	48.790000
2510.987514	41.650000
2512.464948	44.040000
2513.938879	42.620000
2515.414161	45.430000
2516.889175	39.630000
2518.360688	44.740000
2519.833552	41.710000
2521.304532	44.910000
2522.776863	42.760000
2524.244081	43.020000
2525.714264	41.850000
2527.182567	46.710000
2528.650605	43.150000
2530.118378	41.260000
2531.585886	46.690000
2533.053129	43.260000
2534.516880	48.180000
2535.981981	45.200000
2537.445205	46.460000
2538.909779	43.370000
2540.370863	42.870000
2541.833297	39.440000
2543.295468	40.270000
2544.754153	41.650000
2546.217410	47.940000
2547.675570	44.860000
2549.135079	46.800000
2550.589495	45.480000
2552.048480	46.910000
2553.505594	45.100000
2554.960837	49.610000
2556.415819	46.970000
2557.868931	46.110000
2559.323392	42.710000
2560.775984	39.720000
2562.228316	41.690000
2563.678780	44.310000
2565.132200	44.630000
2566.580538	49.370000
2568.031832	46.470000
2569.481259	42.690000
2570.927215	45.330000
2572.376125	43.580000
2573.821564	45.480000
2575.268352	45.930000
2576.713276	40.680000
2578.157943	42.870000
2579.603957	48.470000
2581.046504	47.020000
2582.490399	45.160000
2583.930829	38.960000
2585.372607	42.360000
2586.812524	38.400000
2588.253789	45.420000
2589.691593	46.440000
2591.132346	41.440000
2592.568036	44.820000
2594.006676	40.500000
2595.443459	38.910000
2596.878385	42.270000
2598.316260	39.490000
2599.749077	46.640000
2601.183240	55.070000
2602.615550	46.980000
2604.049206	39.120000
2605.481009	42.890000
2606.912559	48.050000
2608.343855	42.840000
2609.773300	45.540000
2611.202492	38.920000
2612.629833	41.290000
2614.058521	42.370000
2615.486956	39.540000
2616.911944	42.460000
2618.338279	40.950000
2619.762765	49.100000
2621.188597	38.610000
2622.610985	44.960000
2624.034719	45.670000
2625.456606	40.660000
2626.878244	40.800000
2628.298036	38.110000
2629.719174	44.180000
2631.140062	35.250000
2632.557512	42.990000
2633.977901	40.270000
2635.394853	49.070000
2636.811557	47.360000
2638.228012	39.480000
2639.644219	40.900000
2641.060177	44.620000
2642.474295	43.590000
2643.888166	46.520000
2645.300197	41.530000
2646.713573	40.050000
2648.123519	42.390000
2649.536400	38.230000
2650.945854	43.420000
2652.355061	42.860000
2653.762432	42.510000
2655.172737	45.260000
2656.581206	39.790000
2657.987840	44.910000
2659.394229	41.140000
2660.798784	41.530000
2662.204683	45.050000
2663.608749	42.390000
2665.012571	38.370000
2666.416148	43.830000
2667.817893	46.770000
2669.220982	44.080000
2670.620654	39.990000
2672.021668	41.750000
2673.419267	45.250000
2674.819796	38.530000
2676.216910	42.530000
2677.615367	40.470000
2679.011996	40.250000
2680.408383	39.390000
2681.804529	40.450000
2683.198848	43.080000
2684.594510	44.520000
2685.986762	44.110000
2687.380358	40.750000
2688.772129	42.910000
2690.165242	40.680000
2691.556532	43.150000
2692.945999	42.000000
2694.335226	42.500000
2695.724214	42.780000
2697.114544	40.170000
2698.499889	41.880000
2699.888158	40.060000
2701.274607	42.340000
2702.660817	46.250000
2704.046789	41.450000
2705.429361	39.870000
2706.813276	40.240000
2708.196953	37.810000
2709.580392	47.920000
2710.960435	38.850000
2712.341820	38.020000
2713.721389	35.600000
2715.102300	44.030000
2716.481396	42.390000
2717.858677	41.470000
2719.237300	44.440000
2720.614110	39.930000
2721.990684	44.310000
2723.367022	38.830000
2724.741548	41.610000
2726.117415	44.310000
2727.489895	42.320000
2728.865292	41.720000
2730.235727	40.850000
2731.607504	43.590000
2732.979046	39.000000
2734.348781	42.250000
2735.719855	44.700000
2737.089122	37.090000
2738.458155	43.370000
2739.825381	34.970000
2741.192375	44.780000
2742.559136	40.150000
2743.925664	36.830000
2745.290387	40.900000
2746.654879	41.480000
2748.019138	42.450000
2749.383165	39.720000
2750.746961	40.100000
2752.107383	41.230000
2753.470716	40.430000
2754.829106	36.950000
2756.190406	40.760000
2757.548335	41.800000
2758.909174	40.270000
2760.268212	43.810000
2761.623882	44.970000
2762.982460	38.690000
2764.337672	40.180000
2765.692654	39.940000
2767.045839	39.630000
2768.401931	41.490000
2769.754659	37.950000
2771.107158	42.220000
2772.459429	36.740000
2773.813039	39.630000
2775.163287	48.040000
2776.511742	40.860000
2777.863101	41.900000
2779.211101	43.690000
2780.560440	38.600000
2781.907986	38.670000
2783.255305	36.930000
2784.602398	41.860000
2785.947700	39.030000
2787.292776	38.120000
2788.637626	39.200000
2789.982249	40.540000
2791.323521	36.670000
2792.666131	41.730000
2794.008515	38.010000
2795.350675	36.380000
2796.689485	36.980000
2798.031194	45.000000
2799.369556	33.210000
2800.709255	37.140000
2802.047168	42.750000
2803.383297	40.590000
2804.719202	40.660000
2806.056445	47.090000
2807.391904	38.570000
2808.727140	42.020000
2810.060593	36.220000
2811.395384	34.560000
2812.726833	36.580000
2814.061178	34.830000
2815.390625	35.300000
2816.721409	32.320000
2818.051971	39.060000
2819.380754	37.020000
2820.710873	40.550000
2822.039214	38.280000
2823.367334	39.730000
2824.693677	41.100000
2826.021355	38.310000
2827.345701	39.000000
2828.671382	39.550000
2829.995288	40.450000
2831.318975	31.930000
2832.643997	39.270000
2833.965689	35.480000
2835.287163	39.250000
2836.608418	42.340000
2837.929454	40.890000
2839.248718	39.850000
2840.569317	35.980000
2841.888144	35.880000
2843.206753	40.680000
2844.523592	37.920000
2845.840213	43.030000
2847.156616	36.770000
2848.471251	40.490000
2849.787220	38.550000
2851.099869	36.950000
2852.413854	33.730000
2853.727622	41.920000
2855.041173	40.210000
2856.352957	42.960000
2857.662976	35.170000
2858.974328	42.450000
2860.282366	42.590000
2861.591739	38.570000
2862.900896	43.530000
2864.209838	37.250000
2865.517017	32.730000
2866.822432	41.340000
2868.129182	37.240000
2869.434169	35.530000
2870.738943	34.710000
2872.041955	41.740000
2873.347849	38.080000
2874.648887	38.980000
2875.951260	38.870000
2877.251873	39.420000
2878.553820	41.480000
2879.855554	39.630000
2881.153983	34.420000
2882.453747	45.180000
2883.751752	33.880000
2885.049546	37.620000
2886.345584	35.710000
2887.642955	40.390000
2888.938570	33.830000
2890.233974	35.350000
2891.529168	35.140000
2892.821063	35.130000
2894.115835	38.980000
2895.407310	40.200000
2896.700119	39.690000
2897.992716	38.390000
2899.282020	36.510000
2900.572656	34.270000
2901.861541	29.910000
2903.151759	44.540000
2904.438685	36.150000
2905.726943	36.070000
2907.013451	36.300000
2908.299752	38.930000
2909.585844	38.120000
2910.870188	36.570000
2912.157404	32.430000
2913.439792	38.830000
2914.723513	31.490000
2916.005488	38.100000
2917.287256	33.150000
2918.567278	35.250000
2919.850170	34.230000
2921.131317	37.710000
2922.409182	30.310000
2923.689916	34.990000
2924.967369	39.500000
2926.244617	35.820000
2927.520122	29.630000
2928.798495	43.010000
2930.072053	33.180000
2931.348479	33.360000
2932.623164	35.960000
2933.896109	37.370000
2935.170384	36.560000
2936.442920	34.450000
2937.715252	33.950000
2938.984310	34.080000
2940.256234	35.800000
2941.526420	32.280000
2942.796403	34.520000
2944.066182	29.680000
2945.334224	36.740000
2946.600531	34.050000
2947.866635	32.730000
2949.134069	40.270000
2950.399769	39.080000
2951.665266	43.630000
2952.930561	38.150000
2954.192591	37.520000
2955.455952	34.900000
2956.719110	35.840000
2957.980537	36.440000
2959.243293	34.880000
2960.504318	35.990000
2961.763612	35.620000
2963.022705	36.820000
2964.281598	37.540000
2965.540291	37.860000
2966.798784	32.850000
2968.055548	35.110000
2969.312112	36.100000
2970.566949	28.200000
2971.823115	32.750000
2973.076025	34.060000
2974.330265	33.980000
2975.584306	33.270000
2976.836621	31.160000
2978.088738	34.630000
2979.339130	36.810000
2980.592377	32.420000
2981.840847	34.530000
2983.092171	32.270000
2984.340247	33.480000
2985.588125	34.260000
2986.835806	34.550000
2988.083291	34.930000
2989.329054	28.170000
2990.574620	32.840000
2991.821514	25.460000
2993.065164	37.040000
2994.310142	33.920000
2995.551877	31.050000
2996.796463	33.270000
2998.039329	31.850000
2999.278955	31.170000
3000.521432	33.700000
3001.760668	31.470000
3003.001232	36.780000
3004.240079	36.810000
3005.478732	37.110000
3006.715669	34.690000
3007.953933	32.740000
3009.190483	30.590000
3010.426838	35.720000
3011.663000	35.390000
3012.897449	32.990000
3014.131704	33.590000
3015.365766	35.130000
3016.598116	29.340000
3017.828754	35.750000
3019.062238	37.040000
3020.294010	36.530000
3021.524072	32.550000
3022.753942	30.110000
3023.982102	35.260000
3025.211588	33.110000
3026.439366	34.490000
3027.666952	34.530000
3028.895864	37.210000
3030.120034	36.110000
3031.347047	34.200000
3032.570836	30.920000
3033.795952	29.460000
3035.019361	30.330000
3036.242581	30.290000
3037.464095	33.110000
3038.688450	34.940000
3039.908070	35.060000
3041.129015	36.020000
3042.349772	28.420000
3043.568825	33.320000
3044.789204	34.800000
3046.006366	31.220000
3047.224853	34.250000
3048.441639	33.110000
3049.658236	32.490000
3050.874646	31.400000
3052.087842	35.740000
3053.303876	33.350000
3054.516698	30.830000
3055.732357	29.790000
3056.943293	36.280000
3058.155554	32.660000
3059.367629	26.330000
3060.579517	23.120000
3061.789707	35.270000
3062.999711	30.260000
3064.209530	30.710000
3065.417652	30.240000
3066.625588	34.190000
3067.831830	33.480000
3069.039395	31.820000
3070.245267	30.640000
3071.450953	29.460000
3072.656454	33.630000
3073.860262	31.810000
3075.065394	34.220000
3076.268834	34.030000
3077.470581	34.260000
3078.672145	27.270000
3079.873525	32.270000
3081.074721	32.170000
3082.274227	33.860000
3083.473549	35.330000
3084.674195	34.220000
3085.873152	34.440000
3087.068913	28.530000
3088.267504	33.130000
3089.462901	32.740000
3090.659621	32.790000
3091.853149	32.460000
3093.049506	30.810000
3094.244175	31.160000
3095.435654	25.420000
3096.631464	30.130000
3097.822581	31.180000
3099.015020	32.720000
3100.204272	27.780000
3101.396350	36.750000
3102.586743	31.820000
3103.773951	33.700000
3104.962482	27.410000
3106.152335	33.790000
3107.339003	28.610000
3108.525492	33.000000
3109.711801	31.020000
3110.899432	34.180000
3112.083882	31.380000
3113.266651	34.130000
3114.452244	28.850000
3115.636156	31.670000
3116.818390	32.060000
3118.000445	32.440000
3119.182323	30.590000
3120.364022	32.180000
3121.544043	32.780000
3122.722388	25.110000
3123.903554	34.060000
3125.081544	30.070000
3126.259357	28.330000
3127.436993	30.640000
3128.612954	29.300000
3129.788738	35.790000
3130.965844	32.920000
3132.141275	27.600000
3133.315033	30.630000
3134.487119	29.820000
3135.660525	29.410000
3136.833756	36.260000
3138.005314	33.280000
3139.178194	31.860000
3140.347906	29.210000
3141.518939	36.060000
3142.688301	33.830000
3143.855994	33.440000
3145.026502	28.280000
3146.192351	30.090000
3147.362510	29.240000
3148.528011	28.470000
3149.693339	35.800000
3150.858493	29.520000
3152.023473	33.100000
3153.189774	31.370000
3154.351421	29.370000
3155.514389	30.210000
3156.677183	28.640000
3157.839805	29.250000
3159.000762	26.860000
3160.161546	29.730000
3161.322158	25.990000
3162.481107	29.300000
3163.639883	25.800000
3164.798488	34.980000
3165.956921	36.170000
3167.115182	31.130000
3168.271781	29.210000
3169.426719	28.760000
3170.582976	31.140000
3171.737573	28.370000
3172.891998	30.980000
3174.044764	26.680000
3175.197360	34.050000
3176.349785	32.650000
3177.502041	25.550000
3178.654127	33.000000
3179.803066	28.390000
3180.954812	25.140000
3182.104900	26.610000
3183.253332	30.250000
3184.401595	32.570000
3185.549688	30.460000
3186.697613	29.920000
3187.843883	31.430000
3188.989984	34.050000
3190.134430	37.500000
3191.278709	30.690000
3192.422820	32.140000
3193.568249	32.190000
3194.710539	24.180000
3195.852661	32.350000
3196.994616	32.750000
3198.136405	25.240000
3199.278026	27.970000
3200.416511	26.580000
3201.556314	30.500000
3202.697435	31.610000
3203.835421	28.120000
3204.971758	31.640000
3206.107929	26.020000
3207.245418	30.670000
3208.381258	28.270000
3209.518414	22.830000
3210.650958	29.880000
3211.787784	31.450000
3212.919998	35.050000
3214.053530	31.430000
3215.186896	29.150000
3216.317135	21.560000
3217.450172	31.120000
3218.580083	29.010000
3219.711311	29.740000
3220.839413	25.270000
3221.970312	27.670000
3223.099568	29.240000
3224.227179	25.710000
3225.351669	23.950000
3226.480434	29.030000
3227.606077	24.180000
3228.731557	24.370000
3229.855396	25.820000
3230.982029	27.220000
3232.104065	23.470000
3233.227417	26.200000
3234.350607	28.110000
3235.473635	27.100000
3236.595023	23.800000
3237.716250	30.770000
3238.835838	27.410000
3239.955265	26.310000
3241.073054	30.590000
3242.193636	26.440000
3243.311103	32.920000
3244.428411	27.130000
3245.545557	25.190000
3246.661068	26.830000
3247.777894	23.120000
3248.891609	28.210000
3250.008115	28.480000
3251.122985	34.380000
3252.234747	31.630000
3253.346350	23.150000
3254.459267	27.370000
3255.572026	31.650000
3256.681678	30.140000
3257.792645	27.830000
3258.903452	26.070000
3260.012629	30.040000
3261.120174	29.460000
3262.229034	25.550000
3263.337735	22.270000
3264.443334	28.480000
3265.550248	29.140000
3266.655532	30.180000
3267.762130	26.650000
3268.865628	28.350000
3269.970440	32.250000
3271.075095	32.820000
3272.176651	26.270000
3273.278052	26.490000
3274.380766	23.410000
3275.483323	24.730000
3276.582785	29.060000
3277.685029	25.820000
3278.784179	28.130000
3279.881703	31.970000
3280.979072	25.970000
3282.079224	30.490000
3283.176282	24.480000
3284.273185	26.490000
3285.369934	28.190000
3286.462123	25.350000
3287.558561	30.670000
3288.653378	28.010000
3289.748039	26.610000
3290.841079	25.780000
3291.933965	29.290000
3293.025230	29.380000
3294.117808	22.010000
3295.208765	23.940000
3296.298103	22.920000
3297.387288	25.610000
3298.477786	24.850000
3299.565199	29.650000
3300.652460	25.730000
3301.741033	25.360000
3302.829453	23.780000
3303.913326	29.040000
3305.001441	27.710000
3306.086475	24.370000
3307.169893	29.110000
3308.254622	27.330000
3309.337737	27.500000
3310.422163	24.720000
3311.503511	21.500000
3312.586171	25.230000
3313.667217	25.680000
3314.748112	25.760000
3315.827394	25.480000
3316.906525	30.620000
3317.986967	29.470000
3319.064336	23.160000
3320.143016	24.660000
3321.220084	27.350000
3322.297002	23.810000
3323.372309	30.780000
3324.447467	24.600000
3325.523936	29.620000
3326.597335	27.610000
3327.670585	28.080000
3328.745146	28.490000
3329.818097	21.080000
3330.889441	27.730000
3331.962095	28.370000
3333.031682	27.930000
3334.102580	20.960000
3335.171871	29.830000
3336.242473	27.520000
3337.311468	27.640000
3338.378857	32.130000
3339.444641	28.270000
3340.514651	25.710000
3341.581598	26.950000
3342.645483	23.290000
3343.712136	22.240000
3344.777184	27.430000
3345.840630	22.990000
3346.903928	28.210000
3347.967081	22.550000
3349.030087	26.880000
3350.092946	23.030000
3351.154204	25.910000
3352.212405	23.830000
3353.274827	27.040000
3354.334192	21.630000
3355.393412	24.210000
3356.453942	25.990000
3357.509962	27.120000
3358.568747	25.520000
3359.623024	26.660000
3360.680064	24.360000
3361.735507	26.830000
3362.792258	25.770000
3363.847412	27.520000
3364.900968	26.060000
3365.952927	30.450000
3367.007648	26.770000
3368.059320	26.330000
3369.110849	22.920000
3370.163687	23.580000
3371.213477	25.160000
3372.264575	21.860000
3373.312628	26.020000
3374.363441	24.250000
3375.411208	24.610000
3376.458833	24.500000
3377.506315	28.420000
3378.552205	27.090000
3379.599403	18.010000
3380.643559	24.880000
3381.690473	21.630000
3382.735795	27.660000
3383.778077	26.180000
3384.820217	23.940000
3385.863665	26.470000
3386.906973	26.770000
3387.948690	28.670000
3388.990266	28.110000
3390.031702	26.690000
3391.071548	24.120000
3392.109807	23.010000
3393.149373	22.280000
3394.188798	24.650000
3395.226637	24.570000
3396.262888	28.860000
3397.298999	17.640000
3398.336418	23.450000
3399.370804	26.710000
3400.406497	27.650000
3401.442051	24.710000
3402.474574	18.870000
3403.509850	27.970000
3404.542095	24.200000
3405.574202	24.860000
3406.604725	25.020000
3407.636556	24.120000
3408.668247	25.610000
3409.696912	20.140000
3410.725438	22.150000
3411.755272	24.290000
3412.784967	22.020000
3413.811637	21.580000
3414.839614	24.700000
3415.864566	25.960000
3416.892268	27.810000
3417.916947	27.590000
3418.942932	24.160000
3419.967337	23.140000
3420.991606	26.320000
3422.014296	22.880000
3423.036850	22.770000
3424.060710	24.030000
3425.081550	24.340000
3426.102255	26.990000
3427.124265	26.790000
3428.143257	23.100000
3429.162114	23.370000
3430.182276	22.290000
3431.199422	23.010000
