-117.753856	-45.666667
-115.084255	3.666667
-112.417590	-12.000000
-109.751678	-10.666667
-107.088697	-35.000000
-104.424286	-4.666667
-101.762806	-26.666667
-99.099897	46.666667
-96.442095	-10.666667
-93.782862	35.333333
-91.124378	-13.000000
-88.468819	19.333333
-85.811831	-51.666667
-83.159940	37.333333
-80.506620	-29.000000
-77.856220	-33.666667
-75.204390	12.333333
-72.557651	3.333333
-69.909482	13.333333
-67.262057	-23.666667
-64.617545	-2.000000
-61.971604	-9.666667
-59.330746	-20.666667
-56.688457	12.000000
-54.049078	-5.666667
-51.408270	48.000000
-48.768201	-59.000000
-46.133206	-29.000000
-43.496781	-16.333333
-40.863260	-25.333333
-38.228309	55.666667
-35.598425	-19.000000
-32.964947	67.333333
-30.336532	11.000000
-27.708851	-30.666667
-25.079742	48.000000
-22.455689	5.333333
-19.828047	95.000000
-17.205458	48.000000
-14.583600	133.333333
-11.962473	184.666667
-9.342077	537.666667
-6.724568	1807.666667
-4.105631	5761.333333
-1.489580	12278.000000
1.125743	11760.333333
3.740339	5602.333333
6.352053	532.333333
8.965194	98.666667
11.573302	17.666667
14.184992	46.666667
16.791651	-16.000000
19.399738	-7.666667
22.007101	17.000000
24.609439	-43.000000
27.215355	-15.666667
29.816250	-2.000000
32.418572	-41.666667
35.015876	-31.333333
37.616756	-14.000000
40.212622	8.333333
42.809915	59.666667
45.406489	23.333333
47.998054	171.333333
50.591047	-25.333333
53.181179	6.333333
55.772739	-11.333333
58.361439	17.666667
60.951567	-78.000000
63.536695	62.000000
66.123251	-55.333333
68.709092	-27.666667
71.292080	-35.333333
73.876495	34.333333
76.453780	-26.333333
79.034632	-46.666667
81.612635	11.333333
84.189928	-37.666667
86.768647	-58.666667
89.342385	-21.000000
91.917549	-38.666667
94.489870	-7.000000
97.061484	-61.000000
99.630257	-20.666667
102.200457	-32.333333
104.767818	50.666667
107.336606	-13.333333
109.902556	-54.666667
112.465672	-33.666667
115.032345	-39.333333
117.589795	6.666667
120.152931	-19.000000
122.711108	36.000000
125.272839	49.333333
127.829613	51.000000
130.387813	123.333333
132.941061	185.000000
135.493610	367.000000
138.049711	514.666667
140.600863	616.333333
143.151317	687.000000
145.701075	774.666667
148.248013	774.666667
150.794255	844.666667
153.341924	838.333333
155.888896	874.333333
158.430932	931.000000
160.972275	928.666667
163.512926	863.000000
166.055001	895.333333
168.594266	900.000000
171.130721	895.000000
173.666486	859.000000
176.203676	895.666667
178.740174	823.000000
181.273868	775.000000
183.804757	789.666667
186.334958	839.000000
188.866584	842.000000
191.395410	777.000000
193.921436	769.000000
196.446776	917.666667
198.973541	787.666667
201.497510	797.000000
204.020793	786.666667
206.543392	772.666667
209.063198	777.333333
211.582321	874.000000
214.100761	772.666667
216.620625	834.666667
219.133488	794.333333
221.649882	778.666667
224.165595	848.333333
226.676417	887.666667
229.188664	822.666667
231.698128	862.666667
234.206914	806.333333
236.715022	809.000000
239.224554	809.000000
241.729205	885.000000
244.233180	816.000000
246.738579	779.000000
249.239103	851.666667
251.743150	866.666667
254.240227	861.000000
256.740826	807.000000
259.238654	947.333333
261.735809	910.666667
264.232291	911.333333
266.723911	863.000000
269.219049	872.333333
271.711422	873.666667
274.203124	880.000000
276.692063	875.000000
279.182425	901.333333
281.670026	942.333333
284.154867	918.333333
286.643222	843.333333
289.124639	898.333333
291.609569	926.666667
294.089653	940.666667
296.573250	931.666667
299.052005	937.333333
301.532182	880.333333
304.009608	927.666667
306.486370	986.333333
308.962468	931.000000
311.435818	1039.666667
313.908507	1057.666667
316.380534	1085.333333
318.851899	1248.000000
321.320521	1388.000000
323.788483	1239.333333
326.257868	1238.666667
328.722430	1164.666667
331.190495	1057.666667
333.653741	1058.666667
336.116330	1002.000000
338.578261	1035.000000
341.039536	1035.000000
343.498077	1074.333333
345.958040	1010.666667
348.415271	1059.666667
350.871847	973.000000
353.327768	979.666667
355.780961	1167.333333
358.235576	998.333333
360.685389	1022.666667
363.138698	1009.000000
365.587208	995.000000
368.035068	999.000000
370.484349	968.666667
372.928837	1062.666667
375.374747	1028.666667
377.820008	1056.333333
380.262550	1043.666667
382.704444	1039.666667
385.145690	1006.666667
387.584221	946.333333
390.024174	985.666667
392.461413	1007.000000
394.895940	984.000000
397.333955	942.666667
399.767193	992.666667
402.201853	1055.666667
404.631740	1047.666667
407.065112	1002.666667
409.493713	1014.666667
411.921674	953.000000
414.351055	997.333333
416.775672	992.000000
419.201709	1065.000000
421.627107	1008.666667
424.051864	1039.333333
426.471862	969.333333
428.893282	1060.000000
431.312005	976.000000
433.732149	986.666667
436.149598	1053.333333
438.568467	1068.000000
440.984643	994.333333
443.396072	1019.000000
445.810977	1006.666667
448.223192	962.000000
450.634773	1061.333333
453.045720	983.333333
455.453981	937.333333
457.861610	992.666667
460.268606	1032.333333
462.674970	946.000000
465.078653	937.000000
467.481705	970.333333
469.884127	935.000000
472.285919	941.666667
474.685033	935.000000
477.085567	979.000000
479.485472	915.333333
481.880654	1009.666667
484.279303	964.333333
486.673232	995.000000
489.066535	949.000000
491.459212	994.333333
493.851264	966.000000
496.244735	876.666667
498.633493	831.666667
501.019585	820.000000
503.407097	783.333333
505.793985	721.000000
508.178210	705.666667
510.563854	648.333333
512.946835	612.666667
515.327156	581.666667
517.708896	632.666667
520.087977	611.666667
522.468477	571.333333
524.846319	556.333333
527.221506	497.666667
529.596075	531.000000
531.972063	538.666667
534.345397	531.666667
536.720150	514.333333
539.090216	468.000000
541.459667	484.333333
543.830537	487.000000
546.196725	469.333333
548.564332	488.666667
550.929293	483.666667
553.293641	476.333333
555.657377	417.666667
558.022530	479.666667
560.383011	445.333333
562.744909	453.333333
565.104168	438.000000
567.460788	443.000000
569.820854	425.333333
572.174228	499.333333
574.531047	423.333333
576.885231	432.000000
579.238806	408.333333
581.591773	405.333333
583.942109	427.333333
586.293861	431.000000
588.638937	406.333333
590.989477	399.666667
593.333344	442.333333
595.682672	432.333333
598.027351	433.000000
600.369406	456.000000
602.712878	387.000000
605.053727	379.333333
607.393973	390.666667
609.731599	413.666667
612.072660	439.333333
614.409084	384.000000
616.746924	418.000000
619.082146	449.333333
621.414753	363.666667
623.748777	394.333333
626.080186	332.000000
628.410997	354.333333
630.741210	373.333333
633.070826	337.666667
635.395818	383.000000
637.726252	347.000000
640.052064	442.666667
642.375270	332.666667
644.699892	350.333333
647.021908	352.333333
649.343330	401.000000
651.662149	367.333333
653.982384	374.333333
656.302026	320.666667
658.619067	287.000000
660.935517	481.000000
663.249368	369.000000
665.564634	331.000000
667.877304	376.666667
670.191389	297.000000
672.500875	290.666667
674.811775	302.000000
677.120083	325.000000
679.427803	369.000000
681.736938	325.333333
684.041480	355.333333
686.345436	313.666667
688.648805	336.000000
690.953589	292.666667
693.253787	294.666667
695.555400	293.000000
697.856427	292.666667
700.152873	248.666667
702.450733	285.333333
704.748011	328.333333
707.044704	254.000000
709.336822	288.000000
711.632351	295.666667
713.923307	232.666667
716.215677	262.333333
718.505471	322.666667
720.794686	281.666667
723.083320	293.333333
725.369383	293.666667
727.656859	324.333333
729.941765	316.666667
732.226092	288.333333
734.507852	317.333333
736.791025	292.333333
739.073621	264.333333
741.351661	303.666667
743.631115	287.333333
745.909994	285.333333
748.188297	301.000000
750.462051	391.000000
752.737219	300.666667
755.011813	269.333333
757.283848	291.666667
759.557296	275.666667
761.828186	311.000000
764.096519	318.333333
766.366267	398.666667
768.633459	302.000000
770.900081	355.333333
773.166134	322.666667
775.429635	329.333333
777.694548	308.333333
779.958893	379.000000
782.218707	357.000000
784.479935	342.000000
786.740595	376.666667
788.998708	398.333333
791.254277	332.666667
793.513237	330.666667
795.765698	346.000000
798.023526	338.333333
800.276835	284.000000
802.527603	353.666667
804.779784	288.000000
807.029427	409.666667
809.280481	289.333333
811.527024	279.333333
813.774980	331.000000
816.020400	353.333333
818.267233	376.000000
820.513503	322.666667
822.755270	263.666667
825.000419	291.000000
827.239096	294.666667
829.481156	311.333333
831.718717	298.000000
833.957689	348.000000
836.194135	305.333333
838.431993	284.333333
840.667325	254.333333
842.900133	273.000000
845.134353	246.000000
847.366051	289.333333
849.597194	271.666667
851.827782	263.333333
854.057816	280.000000
856.287295	355.333333
858.512294	256.000000
860.740666	281.666667
862.964560	249.000000
865.189864	287.000000
867.410693	269.000000
869.634894	282.000000
871.854622	240.000000
874.075761	234.000000
876.296349	253.000000
878.514428	280.666667
880.733916	233.333333
882.948938	249.000000
885.163412	291.666667
887.377339	290.666667
889.590718	259.333333
891.803551	230.000000
894.015836	258.666667
896.225620	279.333333
898.434858	242.333333
900.643550	246.333333
902.849744	242.333333
905.057347	266.000000
907.262453	271.666667
909.467015	264.666667
911.669082	209.333333
913.872558	333.333333
916.073540	219.000000
918.273980	282.000000
920.475829	251.333333
922.671287	240.000000
924.870103	212.666667
927.064482	295.000000
929.262218	294.333333
931.455518	257.666667
933.650226	290.000000
935.842449	267.666667
938.034134	372.000000
940.225281	242.000000
942.413945	287.666667
944.602072	288.333333
946.787719	228.000000
948.976718	226.000000
951.161294	270.666667
953.345335	260.000000
955.532726	291.000000
957.711814	376.666667
959.894251	307.666667
962.076155	322.000000
964.255585	264.000000
966.432542	427.666667
968.610907	379.666667
970.790678	329.333333
972.964101	307.666667
975.140870	392.000000
977.313233	349.333333
979.487003	358.000000
981.656369	336.000000
983.829079	353.666667
985.999323	336.000000
988.169039	370.333333
990.338226	343.666667
992.503016	416.666667
994.671148	383.000000
996.834884	392.000000
999.000028	407.333333
1001.162712	403.666667
1003.324871	442.666667
1005.484572	417.000000
1007.643750	392.000000
1009.804334	396.000000
1011.962463	442.333333
1014.120068	424.333333
1016.277150	451.333333
1018.433709	429.666667
1020.585888	437.000000
1022.739474	454.000000
1024.892537	494.333333
1027.043153	427.333333
1029.195174	468.333333
1031.342822	503.333333
1033.493802	479.000000
1035.640412	486.666667
1037.786502	499.000000
1039.932074	589.666667
1042.079050	489.000000
1044.219739	546.666667
1046.363756	501.000000
1048.505334	565.666667
1050.646394	469.000000
1052.788859	504.666667
1054.925045	504.000000
1057.064557	574.333333
1059.199713	495.666667
1061.338194	524.666667
1063.472322	517.666667
1065.605936	545.666667
1067.740954	479.666667
1069.871623	570.333333
1072.003698	510.333333
1074.133342	478.000000
1076.262475	522.000000
1078.391097	523.333333
1080.519207	474.666667
1082.644891	487.333333
1084.770065	452.000000
1086.896642	435.666667
1089.018883	477.333333
1091.142528	421.333333
1093.261838	468.333333
1095.386377	403.666667
1097.504672	438.666667
1099.624370	452.666667
1101.741650	430.000000
1103.858424	447.666667
1105.974691	400.666667
1108.088543	387.000000
1110.203798	395.000000
1112.314731	404.333333
1114.428975	365.333333
1116.538900	389.666667
1118.650227	403.000000
1120.761051	386.000000
1122.867558	301.333333
1124.977374	350.000000
1127.082876	323.000000
1129.189782	381.666667
1131.290471	341.666667
1133.396373	361.333333
1135.497966	360.333333
1137.600962	327.666667
1139.703457	311.000000
1141.799746	295.333333
1143.901241	317.000000
1145.998434	396.000000
1148.095128	314.666667
1150.191325	372.000000
1152.287023	313.000000
1154.382224	282.000000
1156.475028	323.000000
1158.569234	369.333333
1160.657249	333.333333
1162.750462	329.000000
1164.837487	333.000000
1166.927812	302.333333
1169.013848	354.666667
1171.103182	334.666667
1173.186335	316.666667
1175.270891	325.333333
1177.356847	277.333333
1179.438522	292.666667
1181.521599	247.666667
1183.602290	277.666667
1185.682490	288.666667
1187.762198	304.000000
1189.841414	298.333333
1191.918249	300.666667
1193.992703	321.000000
1196.070449	324.666667
1198.143924	272.000000
1200.218801	311.666667
1202.289410	263.333333
1204.361420	280.000000
1206.431054	271.666667
1208.502089	287.000000
1210.572636	294.000000
1212.638922	294.000000
1214.706609	280.666667
1216.771924	282.666667
1218.838639	259.333333
1220.901098	285.000000
1222.966843	355.666667
1225.028333	261.666667
1227.091223	299.333333
1229.151746	264.666667
1231.211786	246.333333
1233.271342	210.000000
1235.328534	320.333333
1237.385243	257.000000
1239.439590	228.666667
1241.497217	308.666667
1243.552482	268.333333
1245.603506	321.666667
1247.655930	247.666667
1249.707875	243.666667
1251.757461	225.666667
1253.806568	340.000000
1255.855196	273.000000
1257.903346	246.666667
1259.951018	229.333333
1261.994459	261.000000
1264.041175	259.666667
1266.085539	286.000000
1268.129425	281.333333
1270.170961	282.666667
1272.210147	371.333333
1274.252605	246.000000
1276.290842	294.333333
1278.330476	283.666667
1280.369636	277.333333
1282.404578	289.000000
1284.440918	294.333333
1286.474913	292.666667
1288.510307	275.000000
1290.541487	316.000000
1292.574066	302.000000
1294.606172	392.333333
1296.635938	389.666667
1298.667102	370.666667
1300.694058	371.000000
1302.722412	417.333333
1304.746562	367.666667
1306.773977	417.666667
1308.797189	395.333333
1310.821799	437.666667
1312.844074	468.000000
1314.867747	500.666667
1316.889087	477.000000
1318.909960	467.000000
1320.930365	518.000000
1322.946576	543.333333
1324.964186	509.666667
1326.979467	543.000000
1328.998007	567.666667
1331.012357	593.000000
1333.024382	669.666667
1335.039665	645.333333
1337.050762	591.666667
1339.063255	659.666667
1341.071566	598.000000
1343.083133	609.666667
1345.088661	559.000000
1347.097443	544.000000
1349.102049	524.000000
1351.109908	537.000000
1353.117304	472.333333
1355.118670	549.666667
1357.121433	525.333333
1359.123736	442.333333
1361.125578	449.666667
1363.126962	464.000000
1365.126031	441.666667
1367.124642	400.666667
1369.122795	370.333333
1371.120490	378.000000
1373.114021	334.000000
1375.108949	308.333333
1377.103420	317.666667
1379.097434	372.000000
1381.089141	311.000000
1383.080392	301.666667
1385.069338	276.333333
1387.059679	271.666667
1389.049565	289.000000
1391.037148	293.000000
1393.024277	287.333333
1395.009104	291.000000
1396.995326	299.333333
1398.979247	274.000000
1400.962716	272.000000
1402.945733	251.000000
1404.926452	258.333333
1406.908565	319.000000
1408.888381	235.000000
1410.867747	336.000000
1412.842974	247.333333
1414.821439	223.333333
1416.797611	271.666667
1418.773333	221.000000
1420.748606	252.000000
1422.721588	243.000000
1424.694123	221.666667
1426.666209	222.333333
1428.637847	244.666667
1430.605358	299.000000
1432.577942	265.666667
1434.542720	231.666667
1436.512571	261.333333
1438.478297	231.666667
1440.445417	220.000000
1442.410253	230.333333
1444.370969	234.000000
1446.336753	226.666667
1448.296582	211.333333
1450.257804	249.333333
1452.220419	250.333333
1454.178919	250.666667
1456.136977	224.000000
1458.094592	219.333333
1460.051766	244.000000
1462.006664	203.333333
1463.962954	228.333333
1465.916970	212.333333
1467.870546	320.333333
1469.821849	214.666667
1471.774544	292.666667
1473.724968	237.000000
1475.674953	257.666667
1477.624498	258.666667
1479.571775	228.666667
1481.516785	327.666667
1483.463187	242.000000
1485.409151	225.333333
1487.354677	306.000000
1489.297939	281.666667
1491.240764	232.666667
1493.181326	251.000000
1495.123279	240.666667
1497.062971	215.000000
1499.002227	291.666667
1500.941049	214.666667
1502.877611	243.666667
1504.815563	344.333333
1506.751258	251.333333
1508.686519	254.000000
1510.619523	230.666667
1512.552095	317.333333
1514.484235	238.000000
1516.415943	297.666667
1518.345398	299.333333
1520.276242	262.333333
1522.206656	298.000000
1524.132997	299.000000
1526.060728	301.666667
1527.986209	253.666667
1529.911261	261.333333
1531.835884	260.000000
1533.760078	285.666667
1535.682025	378.000000
1537.605361	284.000000
1539.526452	314.666667
1541.445298	297.666667
1543.365534	273.000000
1545.283526	455.000000
1547.201092	347.000000
1549.116416	417.000000
1551.033130	447.333333
1552.945789	424.666667
1554.861652	469.666667
1556.775276	393.000000
1558.686661	415.333333
1560.599435	427.666667
1562.508160	422.000000
1564.418275	522.666667
1566.327966	486.000000
1568.237233	509.666667
1570.144267	490.666667
1572.049068	517.333333
1573.955258	522.000000
1575.859216	473.000000
1577.762754	481.000000
1579.665870	447.666667
1581.566758	546.000000
1583.469034	453.333333
1585.369081	472.000000
1587.270517	423.333333
1589.167918	390.333333
1591.064902	565.666667
1592.961467	457.333333
1594.859419	434.666667
1596.751537	393.666667
1598.646849	412.000000
1600.541742	381.000000
1602.434414	481.666667
1604.326670	392.666667
1606.216706	347.000000
1608.106326	334.000000
1609.995531	325.333333
1611.884320	373.000000
1613.770893	316.333333
1615.658852	368.000000
1617.542796	310.666667
1619.428126	364.000000
1621.313043	275.333333
1623.195746	276.666667
1625.079835	286.000000
1626.959914	278.666667
1628.841379	235.000000
1630.720634	231.333333
1632.601275	248.000000
1634.476112	237.666667
1636.355931	233.333333
1638.231744	155.000000
1640.107148	238.333333
1641.983937	199.333333
1643.854929	305.666667
1645.729103	197.000000
1647.599279	220.333333
1649.472635	221.333333
1651.343788	225.666667
1653.212739	223.000000
1655.083076	188.000000
1656.949419	183.666667
1658.817149	196.000000
1660.682679	222.000000
1662.549594	165.666667
1664.412521	216.333333
1666.276833	167.000000
1668.138950	264.333333
1670.000661	190.666667
1671.863757	208.333333
1673.724659	168.333333
1675.583367	215.000000
1677.441672	161.666667
1679.301362	172.000000
1681.155285	211.666667
1683.012380	196.333333
1684.869073	153.000000
1686.721790	201.666667
1688.577678	199.333333
1690.429592	242.666667
1692.281105	181.666667
1694.132217	175.666667
1695.982928	146.333333
1697.833239	165.666667
1699.681366	226.000000
1701.530876	148.333333
1703.374638	188.333333
1705.223350	258.000000
1707.066315	125.333333
1708.912446	173.000000
1710.754616	141.333333
1712.599950	239.000000
1714.439544	143.000000
1716.280522	201.333333
1718.122883	177.666667
1719.961288	174.000000
1721.801076	183.666667
1723.638689	185.666667
1725.475906	168.000000
1727.310950	185.666667
1729.147377	144.666667
1730.981632	197.333333
1732.815493	217.666667
1734.648959	223.333333
1736.478479	236.666667
1738.311158	205.000000
1740.139893	170.000000
1741.971786	163.000000
1743.799736	195.666667
1745.627294	137.000000
1747.454461	171.333333
1749.281235	185.666667
1751.107619	130.333333
1752.930066	109.333333
1754.755667	167.000000
1756.577334	218.333333
1758.400383	133.666667
1760.221271	146.666667
1762.041769	142.666667
1763.863649	141.000000
1765.679829	135.000000
1767.499161	167.000000
1769.314566	174.000000
1771.133122	156.333333
1772.947752	159.666667
1774.761995	300.333333
1776.575852	135.666667
1778.389322	147.666667
1780.200638	140.333333
1782.013336	180.666667
1783.825647	183.000000
1785.634041	172.666667
1787.443816	151.333333
1789.249675	136.333333
1791.058681	217.000000
1792.863773	149.000000
1794.670245	132.333333
1796.476334	131.666667
1798.278513	191.333333
1800.083835	144.666667
1801.885249	129.333333
1803.688043	132.333333
1805.486932	160.000000
1807.287200	239.333333
1809.087088	106.000000
1810.884833	201.666667
1812.682198	219.666667
1814.479182	161.333333
1816.275786	135.666667
1818.070251	147.000000
1819.866096	82.333333
1821.656285	141.333333
1823.451371	185.000000
1825.240804	118.000000
1827.033375	223.000000
1828.823810	119.666667
1830.612110	148.000000
1832.403546	121.333333
1834.189336	118.333333
1835.976506	123.666667
1837.761544	144.666667
1839.549716	165.333333
1841.334002	140.000000
1843.116159	117.333333
1844.899694	157.666667
1846.681102	153.666667
1848.463887	153.333333
1850.242793	128.000000
1852.023077	162.666667
1853.801236	135.000000
1855.580772	173.666667
1857.358184	117.000000
1859.133472	133.333333
1860.910139	162.000000
1862.684683	187.000000
1864.460604	126.000000
1866.230906	182.666667
1868.004335	132.333333
1869.775644	143.000000
1871.546582	122.666667
1873.318897	125.000000
1875.085600	133.333333
1876.855427	131.666667
1878.621391	145.333333
1880.390479	138.666667
1882.155705	129.000000
1883.920563	277.333333
1885.686797	190.666667
1887.449173	193.000000
1889.211182	177.333333
1890.972824	130.666667
1892.734098	158.000000
1894.495006	99.333333
1896.255546	133.333333
1898.013977	190.000000
1899.772043	132.000000
1901.528001	147.000000
1903.285335	151.000000
1905.042303	126.333333
1906.797166	294.333333
1908.549923	174.666667
1910.302317	132.333333
1912.056087	119.000000
1913.807753	123.333333
1915.557316	161.333333
1917.308256	138.666667
1919.058832	148.333333
1920.805570	147.000000
1922.553683	134.333333
1924.299697	149.666667
1926.047087	152.333333
1927.792378	130.333333
1929.535572	135.000000
1931.280142	126.000000
1933.022615	119.666667
1934.764728	190.333333
1936.506482	167.666667
1938.247875	148.333333
1939.987175	150.000000
1941.726116	188.666667
1943.464698	128.666667
1945.201188	173.000000
1946.937321	180.333333
1948.674828	187.666667
1950.408514	148.333333
1952.143574	149.666667
1953.876545	147.333333
1955.609160	132.666667
1957.341418	151.333333
1959.073320	126.000000
1960.803136	118.666667
1962.530868	135.000000
1964.259973	111.666667
1965.988724	161.000000
1967.715391	146.333333
1969.441704	185.333333
1971.169390	174.333333
1972.891540	118.333333
1974.616792	122.000000
1976.338236	159.000000
1978.062780	157.333333
1979.785245	156.666667
1981.503906	177.333333
1983.225666	290.666667
1984.943624	171.666667
1986.662956	138.000000
1988.378487	129.666667
1990.098840	194.666667
1991.815393	110.666667
1993.528151	200.000000
1995.244004	122.666667
1996.957785	157.000000
1998.671215	150.333333
2000.382575	173.333333
2002.095308	144.666667
2003.804249	208.000000
2005.516284	183.000000
2007.222809	149.333333
2008.932427	127.000000
2010.639977	134.333333
2012.347180	135.000000
2014.052317	153.666667
2015.757107	146.000000
2017.463269	331.666667
2019.165649	121.333333
2020.869401	135.000000
2022.571090	155.333333
2024.272433	131.000000
2025.973431	117.333333
2027.672369	153.333333
2029.372678	221.666667
2031.069211	289.333333
2032.767116	159.666667
2034.462963	233.333333
2036.161895	131.333333
2037.855341	171.666667
2039.550158	196.666667
2041.244632	149.333333
2042.935338	215.333333
2044.629128	172.333333
2046.319151	222.000000
2048.010545	165.000000
2049.699886	131.333333
2051.390597	157.000000
2053.077546	136.000000
2054.764154	148.333333
2056.452133	131.333333
2058.136352	235.333333
2059.821941	172.666667
2061.507191	126.666667
2063.190393	143.333333
2064.874965	191.000000
2066.554073	175.000000
2068.237967	155.666667
2069.916401	142.000000
2071.597912	159.333333
2073.275671	203.666667
2074.953094	178.333333
2076.631886	151.666667
2078.308635	159.666667
2079.983343	166.000000
2081.659420	140.000000
2083.333457	177.666667
2085.007158	134.666667
2086.680524	225.333333
2088.351852	122.000000
2090.022845	170.666667
2091.693504	194.666667
2093.363829	166.000000
2095.033819	129.666667
2096.701774	121.333333
2098.369396	113.000000
2100.034984	146.333333
2101.701940	213.333333
2103.366863	158.666667
2105.031453	203.333333
2106.694012	187.333333
2108.357940	177.333333
2110.019836	219.666667
2111.681401	204.666667
2113.342636	130.000000
2115.001841	135.666667
2116.660717	140.666667
2118.319262	224.666667
2119.977478	156.333333
2121.631971	185.666667
2123.289528	174.333333
2124.946755	196.000000
2126.600262	169.000000
2128.255136	178.333333
2129.906291	158.333333
2131.560509	134.000000
2133.211009	134.333333
2134.862877	335.333333
2136.509336	184.333333
2138.160549	229.000000
2139.808049	164.000000
2141.456917	162.000000
2143.103765	209.666667
2144.750287	199.000000
2146.396485	156.666667
2148.038973	227.000000
2149.684520	181.000000
2151.326360	158.333333
2152.971257	186.333333
2154.612449	148.333333
2156.253317	204.333333
2157.893862	164.000000
2159.532394	148.000000
2161.172292	166.000000
2162.808490	171.000000
2164.446054	174.333333
2166.083296	138.666667
2167.718528	138.000000
2169.353438	209.000000
2170.988027	142.000000
2172.622295	172.000000
2174.252869	195.666667
2175.886494	204.333333
2177.516428	185.333333
2179.147727	149.000000
2180.777022	171.333333
2182.405996	149.666667
2184.034652	167.000000
2185.662988	160.333333
2187.289321	152.666667
2188.915336	177.000000
2190.539350	173.000000
2192.164729	144.333333
2193.788107	154.000000
2195.412850	188.000000
2197.033911	193.333333
2198.654657	139.333333
2200.276766	148.666667
2201.896878	196.333333
2203.514994	158.666667
2205.132794	146.333333
2206.750278	200.333333
2208.367447	165.000000
2209.984301	135.666667
2211.600840	196.000000
2213.215385	178.333333
2214.827938	170.333333
2216.441856	140.666667
2218.053781	156.666667
2219.667071	173.666667
2221.278369	166.666667
2222.887679	154.666667
2224.498351	153.000000
2226.107035	156.333333
2227.715407	185.333333
2229.321791	143.333333
2230.929539	204.666667
2232.535300	222.000000
2234.140750	168.333333
2235.744216	183.000000
2237.349044	204.666667
2238.951888	199.000000
2240.552749	123.333333
2242.154973	152.333333
2243.755214	202.000000
2245.356819	193.000000
2246.954770	126.000000
2248.554084	197.666667
2250.151418	149.666667
2251.748444	177.666667
2253.346831	153.333333
2254.941570	157.666667
2256.534333	191.666667
2258.128457	281.666667
2259.723943	205.666667
2261.315785	158.666667
2262.907320	173.000000
2264.500216	195.333333
2266.087803	176.666667
2267.680087	168.333333
2269.267063	174.666667
2270.857068	178.666667
2272.441768	185.000000
2274.031162	165.000000
2275.615253	200.000000
2277.200706	183.333333
2278.784190	201.333333
2280.370699	165.333333
2281.953575	198.000000
2283.536147	166.000000
2285.118417	173.000000
2286.697056	179.333333
2288.278719	146.666667
2289.856755	215.000000
2291.437813	233.000000
2293.015244	203.333333
2294.590712	173.666667
2296.169202	218.000000
2297.744067	149.666667
2299.318632	136.000000
2300.892897	157.000000
2302.466861	157.666667
2304.040525	187.666667
2305.613888	178.333333
2307.183633	117.666667
2308.753079	165.333333
2310.325544	196.333333
2311.892734	133.333333
2313.462941	177.333333
2315.029534	259.000000
2316.597487	172.333333
2318.163485	139.666667
2319.729185	181.333333
2321.294587	139.666667
2322.858036	229.000000
2324.422844	161.000000
2325.984043	215.333333
2327.548257	269.000000
2329.107210	304.333333
2330.669176	308.666667
2332.229192	235.333333
2333.788912	154.000000
2335.346683	276.000000
2336.904160	191.666667
2338.461341	209.333333
2340.016576	174.333333
2341.571516	205.666667
2343.126163	189.333333
2344.680516	195.000000
2346.234575	230.666667
2347.788341	162.333333
2349.340162	183.000000
2350.890040	148.666667
2352.442926	245.333333
2353.990570	142.000000
2355.541221	187.000000
2357.088282	149.000000
2358.636700	149.333333
2360.184826	155.333333
2361.729365	138.333333
2363.275261	131.666667
2364.819218	139.666667
2366.364533	182.666667
2367.906263	191.333333
2369.449351	151.000000
2370.990502	214.000000
2372.531364	151.000000
2374.071937	213.333333
2375.612221	168.333333
2377.152216	205.000000
2378.688632	195.000000
2380.228050	150.000000
2381.763891	181.333333
2383.301088	155.666667
2384.834711	144.333333
2386.371333	174.666667
2387.906024	206.000000
2389.438786	173.333333
2390.971262	218.666667
2392.501809	139.666667
2394.035354	197.333333
2395.563688	149.000000
2397.093378	210.000000
2398.622783	146.000000
2400.151903	236.000000
2401.680737	167.333333
2403.204367	148.333333
2404.732632	158.333333
2406.255694	237.333333
2407.783391	179.333333
2409.304247	217.333333
2410.829737	157.666667
2412.351667	196.666667
2413.874951	188.000000
2415.396315	162.666667
2416.915759	245.666667
2418.436558	169.333333
2419.955438	139.000000
2421.474036	170.666667
2422.990717	250.666667
2424.508753	149.000000
2426.026507	254.000000
2427.540709	157.000000
2429.054631	240.000000
2430.568274	258.000000
2432.083270	191.000000
2433.594718	170.666667
2435.107521	185.000000
2436.618411	178.666667
2438.129021	190.000000
2439.637720	116.333333
2441.149406	166.666667
2442.657548	125.333333
2444.165411	178.000000
2445.672997	169.000000
2447.177043	171.666667
2448.684073	187.333333
2450.189195	143.333333
2451.694040	179.666667
2453.196978	193.333333
2454.699639	141.333333
2456.202024	157.666667
2457.702504	192.333333
2459.204337	160.333333
2460.704266	153.333333
2462.203919	173.333333
2463.703297	165.000000
2465.200772	288.333333
2466.696345	165.666667
2468.194898	138.000000
2469.689923	148.666667
2471.186300	141.000000
2472.679151	189.000000
2474.173354	218.333333
2475.667284	138.333333
2477.157691	208.000000
2478.651075	214.666667
2480.142560	148.666667
2481.632149	179.000000
2483.121467	193.333333
2484.608888	185.000000
2486.099285	139.666667
2487.586163	95.000000
2489.074393	169.666667
2490.559107	298.666667
2492.043550	198.666667
2493.529345	189.333333
2495.013247	212.000000
2496.498501	167.000000
2497.978621	158.666667
2499.461713	154.666667
2500.942915	144.666667
2502.423848	180.000000
2503.902892	146.333333
2505.381668	134.666667
2506.860175	116.666667
2508.338413	157.666667
2509.816383	168.000000
2511.290849	130.666667
2512.768283	108.666667
2514.242214	115.333333
2515.717496	129.000000
2517.192510	168.000000
2518.664023	151.000000
2520.136887	135.333333
2521.607868	143.666667
2523.080198	167.333333
2524.547416	155.333333
2526.017600	128.000000
2527.485902	162.333333
2528.953940	168.000000
2530.421713	169.000000
2531.889221	149.000000
2533.356464	127.333333
2534.820216	172.333333
2536.285317	156.000000
2537.748541	121.000000
2539.213114	108.333333
2540.674198	146.333333
2542.136633	159.000000
2543.598804	112.333333
2545.057488	114.666667
2546.520745	167.666667
2547.978905	160.000000
2549.438414	192.333333
2550.892830	285.333333
2552.351816	230.000000
2553.808929	188.666667
2555.264172	216.000000
2556.719154	182.333333
2558.172266	156.000000
2559.626727	172.666667
2561.079319	183.666667
2562.531651	137.333333
2563.982115	139.666667
2565.435535	127.666667
2566.883873	161.666667
2568.335167	181.333333
2569.784594	142.000000
2571.230550	141.666667
2572.679460	128.000000
2574.124899	190.333333
2575.571687	145.000000
2577.016611	199.333333
2578.461278	127.666667
2579.907292	143.333333
2581.349839	196.000000
2582.793734	267.333333
2584.234164	169.666667
2585.675942	146.000000
2587.115860	125.666667
2588.557125	124.666667
2589.994928	156.333333
2591.435681	139.000000
2592.871371	214.333333
2594.310011	166.333333
2595.746794	140.666667
2597.181720	151.666667
2598.619595	204.666667
2600.052412	144.000000
2601.486576	163.333333
2602.918885	175.000000
2604.352541	191.666667
2605.784344	188.666667
2607.215894	146.333333
2608.647190	181.000000
2610.076635	192.333333
2611.505827	193.333333
2612.933168	157.666667
2614.361856	144.666667
2615.790291	161.333333
2617.215280	245.666667
2618.641614	220.000000
2620.066100	186.666667
2621.491932	188.666667
2622.914320	137.000000
2624.338054	174.000000
2625.759942	135.666667
2627.181579	154.666667
2628.601371	153.000000
2630.022509	180.666667
2631.443397	169.666667
2632.860847	175.333333
2634.281236	204.000000
2635.698188	130.666667
2637.114892	209.000000
2638.531347	261.000000
2639.947554	191.000000
2641.363512	227.333333
2642.777630	326.000000
2644.191501	145.666667
2645.603532	257.333333
2647.016908	206.333333
2648.426854	298.333333
2649.839736	219.000000
2651.249189	235.666667
2652.658396	205.333333
2654.065767	177.333333
2655.476072	198.333333
2656.884541	194.000000
2658.291175	239.333333
2659.697564	203.333333
2661.102119	244.000000
2662.508018	236.666667
2663.912084	264.666667
2665.315906	262.333333
2666.719483	248.666667
2668.121228	223.333333
2669.524317	320.666667
2670.923989	248.000000
2672.325004	248.666667
2673.722602	304.000000
2675.123131	239.000000
2676.520245	266.333333
2677.918702	226.666667
2679.315331	229.666667
2680.711719	183.333333
2682.107864	219.000000
2683.502183	190.666667
2684.897845	220.666667
2686.290097	177.666667
2687.683693	135.000000
2689.075464	223.666667
2690.468577	232.666667
2691.859867	216.333333
2693.249334	239.666667
2694.638562	197.000000
2696.027549	214.666667
2697.417879	238.333333
2698.803224	174.333333
2700.191494	174.666667
2701.577943	200.333333
2702.964153	225.666667
2704.350124	216.333333
2705.732697	181.333333
2707.116611	162.666667
2708.500288	185.000000
2709.883727	236.333333
2711.263770	173.333333
2712.645155	184.000000
2714.024724	200.000000
2715.405635	143.000000
2716.784731	209.000000
2718.162012	164.666667
2719.540635	180.000000
2720.917445	140.666667
2722.294019	159.000000
2723.670357	171.000000
2725.044883	146.000000
2726.420750	220.666667
2727.793230	166.333333
2729.168627	133.000000
2730.539062	149.000000
2731.910839	155.000000
2733.282382	142.333333
2734.652116	132.666667
2736.023190	114.666667
2737.392457	142.000000
2738.761490	181.666667
2740.128716	218.000000
2741.495710	128.333333
2742.862471	136.000000
2744.228999	155.333333
2745.593723	133.333333
2746.958214	158.666667
2748.322473	160.333333
2749.686501	148.000000
2751.050296	158.000000
2752.410718	196.000000
2753.774051	140.000000
2755.132441	147.000000
2756.493741	159.333333
2757.851670	177.000000
2759.212509	182.666667
2760.571547	153.333333
2761.927217	133.666667
2763.285796	164.333333
2764.641007	148.666667
2765.995989	124.000000
2767.349174	132.666667
2768.705266	204.000000
2770.057994	579.000000
2771.410493	97.333333
2772.762764	152.666667
2774.116374	158.333333
2775.466622	122.666667
2776.815077	143.666667
2778.166436	140.000000
2779.514436	193.666667
2780.863775	118.333333
2782.211321	211.333333
2783.558640	167.000000
2784.905733	143.333333
2786.251035	145.000000
2787.596111	160.000000
2788.940961	121.333333
2790.285585	117.000000
2791.626856	141.666667
2792.969466	137.333333
2794.311851	233.666667
2795.654010	210.000000
2796.992820	146.000000
2798.334530	169.666667
2799.672891	110.666667
2801.012590	162.333333
2802.350503	121.000000
2803.686632	137.666667
2805.022538	128.333333
2806.359780	168.666667
2807.695239	145.333333
2809.030475	138.666667
2810.363929	190.333333
2811.698719	113.666667
2813.030168	169.666667
2814.364513	146.666667
2815.693960	170.000000
2817.024744	175.333333
2818.355306	104.333333
2819.684089	125.000000
2821.014209	158.000000
2822.342549	107.000000
2823.670669	145.000000
2824.997012	183.333333
2826.324690	132.333333
2827.649036	120.333333
2828.974717	161.000000
2830.298624	184.000000
2831.622310	106.333333
2832.947332	162.666667
2834.269025	137.666667
2835.590498	172.000000
2836.911753	184.000000
2838.232789	184.666667
2839.552053	121.333333
2840.872652	176.666667
2842.191479	142.666667
2843.510088	154.000000
2844.826927	126.000000
2846.143548	171.333333
2847.459951	99.333333
2848.774586	115.333333
2850.090555	172.333333
2851.403204	141.000000
2852.717189	126.333333
2854.030957	233.666667
2855.344508	153.000000
2856.656292	119.666667
2857.966311	137.333333
2859.277664	159.333333
2860.585701	133.666667
2861.895074	158.000000
2863.204231	166.000000
2864.513173	140.666667
2865.820352	101.666667
2867.125767	161.333333
2868.432517	139.000000
2869.737504	133.666667
2871.042278	155.000000
2872.345290	170.333333
2873.651184	173.000000
2874.952223	163.000000
2876.254595	100.333333
2877.555208	157.666667
2878.857155	166.000000
2880.158889	138.000000
2881.457319	144.000000
2882.757082	186.333333
2884.055088	150.333333
2885.352882	157.666667
2886.648919	212.666667
2887.946290	178.000000
2889.241905	151.000000
2890.537310	158.333333
2891.832503	159.666667
2893.124398	242.666667
2894.419170	112.666667
2895.710646	129.666667
2897.003454	184.666667
2898.296052	211.000000
2899.585355	175.333333
2900.875991	167.666667
2902.164877	130.333333
2903.455094	217.000000
2904.742020	196.333333
2906.030278	134.333333
2907.316787	145.333333
2908.603087	141.333333
2909.889179	196.666667
2911.173523	112.666667
2912.460739	132.666667
2913.743128	186.666667
2915.026849	120.666667
2916.308823	184.666667
2917.590591	160.333333
2918.870613	246.000000
2920.153505	200.666667
2921.434652	170.000000
2922.712517	129.333333
2923.993251	128.333333
2925.270704	214.333333
2926.547952	121.333333
2927.823457	147.333333
2929.101830	200.000000
2930.375388	204.333333
2931.651814	144.666667
2932.926499	181.666667
2934.199444	184.333333
2935.473719	131.333333
2936.746255	126.000000
2938.018587	162.000000
2939.287646	211.000000
2940.559570	139.000000
2941.829756	120.333333
2943.099738	147.666667
2944.369517	145.000000
2945.637559	134.000000
2946.903866	126.333333
2948.169970	174.333333
2949.437405	162.666667
2950.703104	134.333333
2951.968601	169.333333
2953.233896	186.000000
2954.495927	182.333333
2955.759287	96.666667
2957.022446	138.666667
2958.283872	100.666667
2959.546628	167.666667
2960.807653	149.333333
2962.066947	171.666667
2963.326040	158.333333
2964.584933	75.333333
2965.843626	150.000000
2967.102119	89.333333
2968.358883	114.666667
2969.615448	128.666667
2970.870284	203.000000
2972.126450	112.333333
2973.379360	220.000000
2974.633600	95.000000
2975.887641	178.333333
2977.139956	149.666667
2978.392073	132.333333
2979.642465	132.000000
2980.895712	206.333333
2982.144182	123.000000
2983.395506	167.666667
2984.643582	87.000000
2985.891460	143.333333
2987.139141	122.666667
2988.386626	147.666667
2989.632389	172.666667
2990.877955	109.666667
2992.124850	103.666667
2993.368499	198.666667
2994.613477	121.333333
2995.855212	99.000000
2997.099798	77.000000
2998.342665	173.333333
2999.582290	111.333333
3000.824767	81.000000
3002.064003	139.000000
3003.304567	121.666667
3004.543414	271.333333
3005.782067	105.666667
3007.019004	100.000000
3008.257268	155.666667
3009.493818	67.000000
3010.730174	196.666667
3011.966336	90.333333
3013.200784	128.666667
3014.435039	124.666667
3015.669101	127.666667
3016.901451	137.666667
3018.132089	90.666667
3019.365573	95.000000
3020.597346	123.666667
3021.827407	96.666667
3023.057277	90.333333
3024.285437	121.333333
3025.514924	221.000000
3026.742701	110.000000
3027.970287	155.666667
3029.199199	135.333333
3030.423369	116.000000
3031.650382	163.333333
3032.874172	58.333333
3034.099287	129.333333
3035.322696	82.000000
3036.545916	131.000000
3037.767430	137.000000
3038.991785	113.666667
3040.211405	133.333333
3041.432351	109.000000
3042.653107	139.000000
3043.872160	109.333333
3045.092539	171.666667
3046.309701	103.666667
3047.528188	123.000000
3048.744974	150.333333
3049.961571	122.333333
3051.177981	103.333333
3052.391177	104.666667
3053.607211	105.333333
3054.820033	112.000000
3056.035692	98.000000
3057.246628	119.000000
3058.458890	151.333333
3059.670964	112.666667
3060.882852	125.000000
3062.093042	97.000000
3063.303047	59.000000
3064.512865	138.666667
3065.720987	112.666667
3066.928923	74.000000
3068.135165	117.000000
3069.342731	119.000000
3070.548602	126.000000
3071.754288	133.000000
3072.959790	107.666667
3074.163598	84.666667
3075.368730	63.666667
3076.572169	85.666667
3077.773916	149.333333
3078.975480	102.000000
3080.176860	126.000000
3081.378056	101.666667
3082.577562	103.666667
3083.776884	112.000000
3084.977530	100.333333
3086.176487	138.333333
3087.372248	110.333333
3088.570839	110.000000
3089.766236	216.000000
3090.962957	92.000000
3092.156485	88.666667
3093.352841	42.666667
3094.547510	142.666667
3095.738989	132.000000
3096.934799	55.333333
3098.125916	75.000000
3099.318356	139.666667
3100.507607	91.333333
3101.699685	167.666667
3102.890079	95.666667
3104.077286	80.333333
3105.265817	79.333333
3106.455670	103.333333
3107.642338	72.666667
3108.828827	196.000000
3110.015136	76.333333
3111.202768	91.666667
3112.387217	58.333333
3113.569986	114.666667
3114.755579	277.333333
3115.939491	92.666667
3117.121725	72.666667
3118.303781	78.333333
3119.485658	107.666667
3120.667357	105.000000
3121.847379	107.000000
3123.025723	72.333333
3124.206889	110.666667
3125.384879	109.333333
3126.562692	89.000000
3127.740328	83.666667
3128.916289	96.333333
3130.092074	110.666667
3131.269179	202.000000
3132.444611	70.666667
3133.618369	124.000000
3134.790454	79.666667
3135.963860	109.333333
3137.137091	79.333333
3138.308649	118.666667
3139.481529	99.333333
3140.651241	149.333333
3141.822274	159.333333
3142.991636	76.333333
3144.159329	65.333333
3145.329837	145.333333
3146.495686	70.000000
3147.665845	71.000000
3148.831346	79.000000
3149.996674	60.000000
3151.161828	81.333333
3152.326809	140.333333
3153.493109	79.333333
3154.654756	65.333333
3155.817724	174.000000
3156.980518	94.000000
3158.143140	72.000000
3159.304097	175.666667
3160.464881	86.000000
3161.625494	64.333333
3162.784442	59.000000
3163.943218	64.666667
3165.101823	173.666667
3166.260256	81.666667
3167.418517	90.333333
3168.575116	81.333333
3169.730054	97.000000
3170.886311	61.000000
3172.040908	77.333333
3173.195333	83.333333
3174.348099	76.666667
3175.500695	121.666667
3176.653121	84.666667
3177.805376	111.666667
3178.957462	37.000000
3180.106401	121.666667
3181.258147	69.333333
3182.408236	103.000000
3183.556667	101.000000
3184.704930	102.000000
3185.853024	96.333333
3187.000948	72.666667
3188.147218	208.333333
3189.293319	65.666667
3190.437766	88.333333
3191.582044	79.666667
3192.726155	104.000000
3193.871584	68.666667
3195.013874	103.000000
3196.155996	87.000000
3197.297952	123.666667
3198.439740	95.333333
3199.581361	85.333333
3200.719846	112.666667
3201.859650	77.666667
3203.000770	136.666667
3204.138756	87.000000
3205.275093	128.666667
3206.411264	105.333333
3207.548753	149.000000
3208.684593	108.333333
3209.821749	151.000000
3210.954294	79.666667
3212.091119	104.666667
3213.223333	117.333333
3214.356865	73.666667
3215.490231	84.000000
3216.620470	95.000000
3217.753508	99.333333
3218.883418	192.000000
3220.014646	159.000000
3221.142748	160.000000
3222.273648	72.666667
3223.402903	56.000000
3224.530514	79.333333
3225.655004	127.333333
3226.783769	87.333333
3227.909412	115.666667
3229.034892	96.000000
3230.158731	140.666667
3231.285365	59.666667
3232.407400	71.666667
3233.530752	95.333333
3234.653942	152.666667
3235.776970	113.000000
3236.898358	62.666667
3238.019585	84.666667
3239.139173	52.333333
3240.258600	101.666667
3241.376390	108.666667
3242.496971	85.333333
3243.614439	107.666667
3244.731746	79.666667
3245.848892	224.333333
3246.964403	83.666667
3248.081229	68.666667
3249.194944	107.000000
3250.311450	83.666667
3251.426320	139.666667
3252.538082	94.000000
3253.649685	70.333333
3254.762603	133.000000
3255.875361	86.333333
3256.985013	58.000000
3258.095980	110.333333
3259.206788	109.333333
3260.315964	73.666667
3261.423509	241.000000
3262.532369	95.666667
3263.641070	79.000000
3264.746669	74.000000
3265.853583	181.000000
3266.958867	418.000000
3268.065465	135.000000
3269.168963	51.333333
3270.273775	108.666667
3271.378430	90.333333
3272.479987	172.666667
3273.581387	135.666667
3274.684101	45.000000
3275.786658	57.333333
3276.886120	87.333333
3277.988364	129.000000
3279.087514	101.000000
3280.185038	172.666667
3281.282407	88.666667
3282.382559	65.000000
3283.479617	110.666667
3284.576521	60.666667
3285.673269	114.333333
3286.765458	53.333333
3287.861897	103.666667
3288.956713	176.666667
3290.051374	81.000000
3291.144414	154.666667
3292.237300	82.666667
3293.328565	56.666667
3294.421143	62.333333
3295.512101	115.666667
3296.601439	149.666667
3297.690624	79.333333
3298.781121	78.333333
3299.868534	166.333333
3300.955795	70.000000
3302.044368	93.000000
3303.132788	58.000000
3304.216661	71.000000
3305.304776	59.333333
3306.389810	55.666667
3307.473228	102.333333
3308.557958	109.000000
3309.641072	77.000000
3310.725498	53.000000
3311.806846	74.666667
3312.889506	44.666667
3313.970552	113.333333
3315.051447	45.333333
3316.130729	50.333333
3317.209860	70.000000
3318.290303	77.333333
3319.367671	108.666667
3320.446351	42.000000
3321.523419	78.000000
3322.600337	47.666667
3323.675645	39.000000
3324.750803	67.666667
3325.827272	31.666667
3326.900670	69.333333
3327.973920	60.666667
3329.048481	46.000000
3330.121432	46.666667
3331.192776	41.000000
3332.265430	57.333333
3333.335017	84.333333
3334.405915	89.000000
3335.475206	106.000000
3336.545808	74.000000
3337.614803	30.666667
3338.682192	81.666667
3339.747976	59.333333
3340.817986	74.333333
3341.884933	81.000000
3342.948818	180.000000
3344.015471	40.333333
3345.080520	29.666667
3346.143965	210.666667
3347.207263	45.333333
3348.270416	44.666667
3349.333422	45.000000
3350.396281	35.333333
3351.457539	45.333333
3352.515740	51.333333
3353.578162	27.666667
3354.637527	84.666667
3355.696748	82.333333
3356.757277	42.000000
3357.813297	69.666667
3358.872082	83.000000
3359.926359	56.666667
3360.983400	50.000000
3362.038842	31.333333
3363.095593	67.000000
3364.150747	19.333333
3365.204303	17.000000
3366.256262	54.333333
3367.310983	25.666667
3368.362656	72.333333
3369.414184	55.666667
3370.467022	42.666667
3371.516812	49.333333
3372.567911	52.666667
3373.615963	45.000000
3374.666776	59.666667
3375.714543	14.666667
3376.762168	7.333333
3377.809651	31.000000
3378.855540	242.666667
3379.902739	64.666667
3380.946894	41.333333
3381.993808	48.333333
3383.039130	87.666667
3384.081412	63.333333
3385.123552	38.666667
3386.167001	37.333333
3387.210308	-1.000000
3388.252025	7.333333
3389.293601	103.666667
3390.335037	34.666667
3391.374884	29.000000
3392.413142	78.333333
3393.452708	12.666667
3394.492134	84.000000
3395.529972	48.666667
3396.566223	12.666667
3397.602334	82.000000
3398.639753	18.333333
3399.674139	28.000000
3400.709833	34.333333
3401.745387	46.333333
3402.777909	25.000000
3403.813185	7.333333
3404.845430	20.000000
3405.877537	15.333333
3406.908060	41.000000
3407.939891	24.000000
3408.971583	46.666667
3410.000247	76.666667
3411.028774	0.333333
3412.058607	28.000000
3413.088303	64.000000
3414.114972	102.000000
3415.142949	20.333333
3416.167901	80.333333
3417.195603	34.000000
3418.220282	34.000000
3419.246267	79.000000
3420.270673	37.666667
3421.294941	56.000000
3422.317631	11.000000
3423.340186	16.000000
3424.364045	123.666667
3425.384885	44.666667
3426.405590	39.333333
3427.427600	42.666667
3428.446592	46.666667
3429.465449	39.333333
3430.485612	43.000000
3431.502757	24.333333
