-118.033050	2.500000
-115.363449	-0.400000
-112.696784	5.300000
-110.030871	-2.000000
-107.367891	-12.600000
-104.703480	-4.000000
-102.042000	-0.200000
-99.379091	0.900000
-96.721288	-3.600000
-94.062056	-7.400000
-91.403572	-3.800000
-88.748013	4.900000
-86.091024	9.300000
-83.439134	-12.700000
-80.785814	20.700000
-78.135413	26.000000
-75.483584	1.200000
-72.836845	-5.400000
-70.188676	14.500000
-67.541250	-5.200000
-64.896739	-4.900000
-62.250798	-11.300000
-59.609939	0.300000
-56.967651	3.400000
-54.328272	-16.200000
-51.687464	20.200000
-49.047395	14.200000
-46.412400	-8.200000
-43.775975	14.000000
-41.142453	-8.000000
-38.507503	-9.400000
-35.877619	4.300000
-33.244141	12.100000
-30.615726	-7.000000
-27.988045	3.500000
-25.358935	6.200000
-22.734883	13.000000
-20.107240	37.800000
-17.484652	51.700000
-14.862794	83.200000
-12.241667	136.900000
-9.621271	358.700000
-7.003762	1216.300000
-4.384825	3685.700000
-1.768774	8211.700000
0.846550	10074.600000
3.461145	5072.900000
6.072859	674.000000
8.686000	109.800000
11.294109	51.100000
13.905798	7.600000
16.512457	7.300000
19.120545	20.400000
21.727907	19.600000
24.330245	13.300000
26.936161	22.300000
29.537056	16.600000
32.139378	12.400000
34.736682	7.200000
37.337563	-1.400000
39.933428	7.100000
42.530721	-4.500000
45.127295	18.300000
47.718860	10.700000
50.311854	2.100000
52.901986	19.500000
55.493545	12.600000
58.082246	14.600000
60.672373	8.600000
63.257501	-12.400000
65.844057	11.000000
68.429898	-17.300000
71.012886	8.000000
73.597301	0.400000
76.174586	-0.900000
78.755438	15.500000
81.333441	-0.400000
83.910734	13.400000
86.489454	16.800000
89.063191	0.600000
91.638355	1.100000
94.210676	11.300000
96.782290	16.900000
99.351063	2.600000
101.921263	-5.700000
104.488624	17.300000
107.057412	18.200000
109.623363	16.100000
112.186479	12.300000
114.753151	13.600000
117.310601	9.900000
119.873737	1.700000
122.431914	45.200000
124.993645	42.000000
127.550419	59.600000
130.108619	107.100000
132.661867	148.000000
135.214417	261.600000
137.770517	341.400000
140.321669	479.200000
142.872124	557.900000
145.421881	629.700000
147.968819	691.100000
150.515062	718.600000
153.062730	743.900000
155.609702	754.200000
158.151738	734.400000
160.693082	714.100000
163.233732	758.200000
165.775807	727.100000
168.315072	717.200000
170.851527	731.300000
173.387292	735.200000
175.924482	701.500000
178.460981	725.400000
180.994674	696.000000
183.525563	701.100000
186.055764	716.200000
188.587391	712.800000
191.116216	683.700000
193.642242	683.700000
196.167582	731.300000
198.694347	704.900000
201.218316	719.200000
203.741599	697.300000
206.264198	711.400000
208.784004	672.600000
211.303127	698.800000
213.821567	690.200000
216.341432	679.700000
218.854294	677.200000
221.370688	721.400000
223.886401	676.300000
226.397223	688.600000
228.909470	700.300000
231.418934	714.400000
233.927720	709.500000
236.435828	725.500000
238.945360	728.200000
241.450011	728.300000
243.953986	694.600000
246.459385	718.500000
248.959909	715.700000
251.463956	743.400000
253.961033	713.600000
256.461632	742.800000
258.959460	744.800000
261.456615	733.400000
263.953098	748.600000
266.444717	723.400000
268.939856	759.400000
271.432228	752.000000
273.923930	774.400000
276.412869	778.500000
278.903231	752.400000
281.390832	746.300000
283.875673	775.100000
286.364029	774.800000
288.845445	773.300000
291.330375	762.900000
293.810459	757.000000
296.294056	774.500000
298.772811	784.100000
301.252988	805.800000
303.730414	794.400000
306.207176	781.700000
308.683274	838.900000
311.156624	852.600000
313.629313	885.200000
316.101340	951.700000
318.572705	1069.600000
321.041327	1088.700000
323.509289	1110.200000
325.978674	1037.100000
328.443236	972.800000
330.911302	914.400000
333.374547	865.200000
335.837136	851.400000
338.299068	859.400000
340.760343	859.300000
343.218883	885.000000
345.678846	850.100000
348.136077	867.000000
350.592653	856.900000
353.048575	858.400000
355.501767	832.900000
357.956382	834.100000
360.406195	847.900000
362.859504	824.900000
365.308014	821.500000
367.755874	857.100000
370.205156	813.300000
372.649643	849.200000
375.095553	851.400000
377.540814	868.100000
379.983356	860.800000
382.425250	860.500000
384.866496	836.700000
387.305028	858.900000
389.744980	860.700000
392.182219	842.400000
394.616746	838.600000
397.054761	851.000000
399.488000	822.600000
401.922659	839.900000
404.352546	852.600000
406.785918	851.900000
409.214520	879.800000
411.642480	867.000000
414.071861	866.400000
416.496478	867.600000
418.922515	843.900000
421.347913	869.400000
423.772670	868.100000
426.192668	862.500000
428.614088	883.200000
431.032811	870.400000
433.452955	875.700000
435.870404	873.900000
438.289274	880.500000
440.705449	887.500000
443.116878	853.100000
445.531783	863.100000
447.943998	890.600000
450.355579	845.100000
452.766527	882.700000
455.174787	881.100000
457.582416	840.300000
459.989412	854.900000
462.395777	826.200000
464.799459	805.400000
467.202511	801.800000
469.604933	808.600000
472.006725	816.200000
474.405839	792.200000
476.806373	821.600000
479.206278	796.600000
481.601461	797.100000
484.000109	807.300000
486.394038	812.300000
488.787341	819.900000
491.180019	798.800000
493.572070	774.000000
495.965541	758.500000
498.354299	712.000000
500.740391	702.800000
503.127903	656.000000
505.514792	608.700000
507.899016	597.700000
510.284660	591.100000
512.667642	540.600000
515.047962	544.600000
517.429702	517.300000
519.808784	516.400000
522.189283	498.000000
524.567126	496.300000
526.942312	472.600000
529.316881	483.700000
531.692869	459.600000
534.066204	474.000000
536.440956	473.900000
538.811022	460.600000
541.180474	443.000000
543.551343	440.600000
545.917531	437.700000
548.285138	436.300000
550.650099	428.400000
553.014448	453.300000
555.378183	444.300000
557.743336	418.200000
560.103817	419.500000
562.465715	407.800000
564.824974	419.300000
567.181594	417.000000
569.541660	405.600000
571.895034	408.300000
574.251853	400.800000
576.606037	384.500000
578.959612	392.200000
581.312580	387.400000
583.662915	413.300000
586.014668	413.700000
588.359744	385.800000
590.710283	380.300000
593.054150	405.400000
595.403478	389.000000
597.748157	403.100000
600.090212	388.400000
602.433684	389.800000
604.774533	366.900000
607.114779	369.800000
609.452405	373.300000
611.793466	350.200000
614.129890	351.800000
616.467730	376.100000
618.802952	378.400000
621.135559	345.800000
623.469583	374.100000
625.800992	343.400000
628.131803	366.400000
630.462016	341.500000
632.791632	356.500000
635.116624	354.200000
637.447058	346.400000
639.772871	347.200000
642.096076	349.300000
644.420698	352.300000
646.742714	321.900000
649.064136	325.800000
651.382955	323.700000
653.703191	310.800000
656.022832	324.700000
658.339874	323.600000
660.656323	315.400000
662.970174	329.300000
665.285441	307.100000
667.598111	291.000000
669.912196	303.900000
672.221681	285.600000
674.532581	301.700000
676.840889	307.000000
679.148609	295.100000
681.457744	308.400000
683.762286	313.600000
686.066242	314.400000
688.369611	281.800000
690.674396	296.700000
692.974593	288.200000
695.276206	282.100000
697.577233	296.800000
699.873679	310.700000
702.171539	275.300000
704.468817	260.100000
706.765511	289.400000
709.057629	279.900000
711.353157	307.700000
713.644113	270.000000
715.936483	268.400000
718.226277	271.800000
720.515492	267.500000
722.804127	280.700000
725.090189	271.600000
727.377665	297.900000
729.662571	276.400000
731.946899	285.500000
734.228658	297.900000
736.511831	312.500000
738.794427	291.300000
741.072467	313.900000
743.351921	303.500000
745.630800	293.100000
747.909104	301.400000
750.182857	304.100000
752.458025	292.500000
754.732619	288.900000
757.004654	301.800000
759.278102	301.800000
761.548992	303.900000
763.817326	294.600000
766.087073	291.200000
768.354265	320.500000
770.620888	314.600000
772.886940	334.300000
775.150441	312.700000
777.415354	328.400000
779.679699	333.800000
781.939513	348.700000
784.200741	335.700000
786.461401	343.500000
788.719515	334.300000
790.975084	317.600000
793.234043	335.300000
795.486504	322.800000
797.744332	314.800000
799.997641	339.600000
802.248409	325.100000
804.500591	324.700000
806.750233	310.000000
809.001287	276.300000
811.247830	306.300000
813.495786	312.600000
815.741206	315.900000
817.988039	323.000000
820.234309	273.700000
822.476076	290.500000
824.721225	285.100000
826.959903	283.200000
829.201962	293.200000
831.439523	286.200000
833.678496	292.200000
835.914942	274.900000
838.152799	285.500000
840.388131	279.500000
842.620939	280.700000
844.855159	274.300000
847.086857	268.300000
849.318000	279.700000
851.548588	271.200000
853.778622	252.100000
856.008101	258.300000
858.233100	263.400000
860.461472	256.100000
862.685366	247.800000
864.910671	267.100000
867.131500	264.500000
869.355701	250.000000
871.575429	284.400000
873.796567	289.600000
876.017155	264.900000
878.235234	265.000000
880.454722	249.900000
882.669744	274.700000
884.884218	287.300000
887.098145	268.600000
889.311524	280.300000
891.524357	270.300000
893.736642	260.200000
895.946426	260.500000
898.155664	305.800000
900.364357	288.800000
902.570550	263.000000
904.778153	258.900000
906.983259	265.800000
909.187821	252.900000
911.389888	260.500000
913.593364	265.000000
915.794346	260.800000
917.994786	266.100000
920.196635	285.100000
922.392093	248.600000
924.590909	273.700000
926.785288	265.500000
928.983024	272.300000
931.176324	270.900000
933.371033	277.300000
935.563255	291.400000
937.754940	261.000000
939.946087	274.900000
942.134751	283.400000
944.322878	266.700000
946.508525	312.900000
948.697525	318.900000
950.882100	291.700000
953.066141	282.600000
955.253533	327.400000
957.432620	315.000000
959.615058	345.800000
961.796961	325.300000
963.976391	330.900000
966.153348	342.700000
968.331713	348.100000
970.511485	371.300000
972.684907	343.800000
974.861677	358.700000
977.034039	340.700000
979.207809	368.500000
981.377175	377.600000
983.549885	376.600000
985.720130	366.900000
987.889845	401.500000
990.059032	402.600000
992.223822	382.400000
994.391954	403.800000
996.555690	398.000000
998.720834	422.000000
1000.883518	408.800000
1003.045677	411.300000
1005.205379	435.000000
1007.364556	414.000000
1009.525140	420.200000
1011.683269	414.100000
1013.840875	437.800000
1015.997956	443.800000
1018.154515	425.300000
1020.306694	458.300000
1022.460280	455.700000
1024.613344	451.600000
1026.763959	426.800000
1028.915980	474.100000
1031.063629	467.000000
1033.214609	463.000000
1035.361218	466.000000
1037.507308	487.800000
1039.652880	488.200000
1041.799857	495.500000
1043.940545	492.900000
1046.084562	505.600000
1048.226140	503.300000
1050.367200	484.900000
1052.509666	481.300000
1054.645851	497.800000
1056.785363	521.600000
1058.920519	500.500000
1061.059000	508.100000
1063.193128	507.600000
1065.326742	511.900000
1067.461760	502.300000
1069.592429	518.800000
1071.724504	466.100000
1073.854148	480.200000
1075.983281	480.400000
1078.111903	495.500000
1080.240013	465.800000
1082.365697	480.200000
1084.490871	461.400000
1086.617449	434.500000
1088.739689	450.900000
1090.863334	445.600000
1092.982644	444.400000
1095.107183	426.500000
1097.225478	408.600000
1099.345176	425.000000
1101.462457	408.300000
1103.579230	403.000000
1105.695497	393.800000
1107.809349	381.600000
1109.924604	380.000000
1112.035537	395.300000
1114.149782	379.400000
1116.259706	365.500000
1118.371033	391.800000
1120.481857	371.600000
1122.588364	389.000000
1124.698180	353.100000
1126.803682	350.800000
1128.910588	341.300000
1131.011278	363.700000
1133.117180	361.600000
1135.218773	351.700000
1137.321768	362.500000
1139.424264	338.700000
1141.520552	360.700000
1143.622047	333.000000
1145.719240	343.500000
1147.815934	325.000000
1149.912131	329.300000
1152.007829	330.200000
1154.103030	337.600000
1156.195834	326.600000
1158.290040	346.400000
1160.378055	352.600000
1162.471268	337.000000
1164.558293	323.900000
1166.648618	328.100000
1168.734654	336.700000
1170.823988	340.800000
1172.907141	322.000000
1174.991697	326.200000
1177.077654	330.600000
1179.159329	349.700000
1181.242405	324.000000
1183.323096	342.900000
1185.403296	324.100000
1187.483004	309.300000
1189.562221	345.900000
1191.639055	313.700000
1193.713509	331.100000
1195.791255	325.400000
1197.864730	335.900000
1199.939607	342.500000
1202.010216	328.100000
1204.082226	349.500000
1206.151860	312.200000
1208.222895	304.900000
1210.293442	323.300000
1212.359729	300.400000
1214.427416	308.700000
1216.492730	317.400000
1218.559445	314.900000
1220.621904	297.800000
1222.687649	305.600000
1224.749139	302.000000
1226.812029	292.000000
1228.872552	316.200000
1230.932592	302.800000
1232.992148	294.800000
1235.049340	289.200000
1237.106049	304.900000
1239.160396	324.600000
1241.218023	313.600000
1243.273288	301.200000
1245.324312	319.100000
1247.376737	323.700000
1249.428681	312.300000
1251.478267	278.500000
1253.527374	294.500000
1255.576002	305.400000
1257.624152	298.300000
1259.671824	290.400000
1261.715265	318.600000
1263.761982	305.500000
1265.806345	315.800000
1267.850231	318.600000
1269.891767	307.200000
1271.930953	290.400000
1273.973412	294.100000
1276.011648	335.600000
1278.051283	327.300000
1280.090442	318.400000
1282.125384	311.800000
1284.161724	339.400000
1286.195719	324.900000
1288.231113	354.900000
1290.262293	355.000000
1292.294872	348.300000
1294.326979	365.200000
1296.356745	375.600000
1298.387908	377.700000
1300.414864	368.300000
1302.443218	390.100000
1304.467368	392.100000
1306.494783	425.300000
1308.517995	421.800000
1310.542605	426.700000
1312.564880	447.200000
1314.588553	481.600000
1316.609893	479.600000
1318.630766	492.600000
1320.651171	515.600000
1322.667383	549.600000
1324.684992	538.900000
1326.700273	555.700000
1328.718813	578.300000
1330.733163	602.200000
1332.745188	580.900000
1334.760471	631.900000
1336.771568	624.400000
1338.784061	612.400000
1340.792372	636.600000
1342.803939	594.500000
1344.809467	612.500000
1346.818250	590.200000
1348.822855	584.600000
1350.830714	566.700000
1352.838111	537.300000
1354.839477	507.700000
1356.842239	502.300000
1358.844542	455.700000
1360.846385	474.700000
1362.847768	444.700000
1364.846837	417.600000
1366.845448	420.900000
1368.843601	400.700000
1370.841296	395.800000
1372.834828	387.500000
1374.829755	377.400000
1376.824226	361.200000
1378.818240	362.500000
1380.809947	363.600000
1382.801198	341.600000
1384.790144	334.700000
1386.780485	339.600000
1388.770372	341.500000
1390.757954	318.500000
1392.745083	320.900000
1394.729910	326.500000
1396.716132	324.500000
1398.700053	313.400000
1400.683522	342.400000
1402.666539	312.500000
1404.647258	310.000000
1406.629371	298.700000
1408.609187	298.100000
1410.588553	287.700000
1412.563780	302.400000
1414.542245	319.100000
1416.518417	299.200000
1418.494139	286.400000
1420.469412	275.600000
1422.442395	288.900000
1424.414929	328.000000
1426.387015	292.500000
1428.358653	284.000000
1430.326164	307.300000
1432.298748	296.900000
1434.263526	317.300000
1436.233377	288.100000
1438.199103	286.500000
1440.166223	286.400000
1442.131059	269.800000
1444.091775	274.700000
1446.057559	302.500000
1448.017388	272.800000
1449.978610	278.800000
1451.941225	266.000000
1453.899725	287.000000
1455.857783	301.500000
1457.815398	298.100000
1459.772572	293.300000
1461.727470	298.500000
1463.683761	281.700000
1465.637777	291.200000
1467.591352	295.200000
1469.542655	277.000000
1471.495350	292.100000
1473.445774	305.200000
1475.395759	289.400000
1477.345305	311.800000
1479.292582	273.400000
1481.237591	289.300000
1483.183993	288.500000
1485.129957	268.400000
1487.075484	286.000000
1489.018745	284.000000
1490.961570	304.600000
1492.902132	302.200000
1494.844086	299.700000
1496.783777	273.300000
1498.723033	317.700000
1500.661855	304.800000
1502.598417	274.300000
1504.536370	296.500000
1506.472064	305.400000
1508.407325	301.800000
1510.340329	294.700000
1512.272901	292.000000
1514.205041	306.900000
1516.136749	297.100000
1518.066204	314.800000
1519.997049	298.600000
1521.927462	297.400000
1523.853803	320.600000
1525.781534	302.100000
1527.707016	318.900000
1529.632068	310.900000
1531.556690	332.000000
1533.480884	330.200000
1535.402831	358.500000
1537.326167	371.900000
1539.247258	359.600000
1541.166104	362.100000
1543.086340	365.600000
1545.004332	374.000000
1546.921898	390.700000
1548.837223	404.400000
1550.753937	435.800000
1552.666595	452.400000
1554.582458	453.500000
1556.496082	476.700000
1558.407467	503.900000
1560.320242	506.200000
1562.228967	504.600000
1564.139081	548.100000
1566.048772	545.100000
1567.958040	543.300000
1569.865073	528.600000
1571.769874	524.100000
1573.676064	552.600000
1575.580023	560.700000
1577.483560	550.900000
1579.386677	520.100000
1581.287564	517.500000
1583.189840	520.000000
1585.089887	500.000000
1586.991323	464.000000
1588.888724	492.100000
1590.785708	461.600000
1592.682273	468.700000
1594.580225	441.700000
1596.472343	435.000000
1598.367655	459.300000
1600.262548	419.000000
1602.155221	425.700000
1604.047476	420.000000
1605.937512	400.000000
1607.827132	413.600000
1609.716337	395.300000
1611.605126	395.000000
1613.491699	402.600000
1615.379659	372.400000
1617.263602	357.300000
1619.148932	345.100000
1621.033849	357.700000
1622.916552	352.300000
1624.800642	332.100000
1626.680720	296.800000
1628.562185	323.500000
1630.441440	318.800000
1632.322082	286.800000
1634.196919	286.200000
1636.076737	285.600000
1637.952550	284.300000
1639.827954	268.000000
1641.704743	268.600000
1643.575735	270.300000
1645.449910	291.000000
1647.320085	261.000000
1649.193441	277.200000
1651.064594	264.300000
1652.933545	258.700000
1654.803882	273.000000
1656.670225	261.600000
1658.537955	266.900000
1660.403485	262.600000
1662.270401	255.300000
1664.133327	257.300000
1665.997640	255.200000
1667.859756	269.400000
1669.721467	256.000000
1671.584563	249.400000
1673.445465	254.800000
1675.304174	256.000000
1677.162479	256.400000
1679.022168	248.200000
1680.876091	231.600000
1682.733187	258.900000
1684.589879	264.000000
1686.442596	257.900000
1688.298484	248.800000
1690.150398	254.400000
1692.001911	238.500000
1693.853023	255.800000
1695.703734	216.000000
1697.554045	248.600000
1699.402172	253.200000
1701.251683	227.900000
1703.095444	212.300000
1704.944156	228.500000
1706.787121	231.400000
1708.633252	242.600000
1710.475422	245.700000
1712.320756	218.100000
1714.160350	250.000000
1716.001329	235.100000
1717.843690	241.800000
1719.682094	238.900000
1721.521882	244.600000
1723.359495	224.400000
1725.196713	229.000000
1727.031757	236.200000
1728.868184	225.300000
1730.702438	242.700000
1732.536299	243.600000
1734.369765	234.500000
1736.199285	252.400000
1738.031964	249.000000
1739.860699	246.000000
1741.692592	215.000000
1743.520542	225.300000
1745.348100	241.600000
1747.175267	227.900000
1749.002042	250.600000
1750.828425	225.600000
1752.650872	243.000000
1754.476474	238.600000
1756.298140	202.500000
1758.121189	223.500000
1759.942077	224.600000
1761.762575	235.500000
1763.584455	236.700000
1765.400635	226.900000
1767.219967	238.300000
1769.035372	218.900000
1770.853928	232.600000
1772.668558	216.200000
1774.482801	246.700000
1776.296658	218.700000
1778.110128	218.100000
1779.921444	248.500000
1781.734142	216.900000
1783.546453	247.300000
1785.354847	241.700000
1787.164622	233.300000
1788.970481	219.000000
1790.779487	241.600000
1792.584579	234.400000
1794.391052	219.600000
1796.197140	215.200000
1797.999319	223.300000
1799.804641	224.300000
1801.606055	222.000000
1803.408850	234.100000
1805.207738	208.100000
1807.008007	233.700000
1808.807894	224.000000
1810.605639	198.200000
1812.403004	222.700000
1814.199988	226.500000
1815.996592	246.700000
1817.791057	222.800000
1819.586902	227.000000
1821.377091	213.900000
1823.172177	213.400000
1824.961610	223.700000
1826.754181	229.600000
1828.544616	219.600000
1830.332916	206.100000
1832.124352	224.000000
1833.910143	241.400000
1835.697312	220.300000
1837.482351	218.500000
1839.270522	203.800000
1841.054808	223.200000
1842.836965	240.300000
1844.620501	219.400000
1846.401908	221.600000
1848.184693	244.500000
1849.963599	209.200000
1851.743883	234.200000
1853.522042	221.400000
1855.301578	251.500000
1857.078990	213.200000
1858.854279	211.500000
1860.630945	222.500000
1862.405489	223.600000
1864.181410	217.600000
1865.951712	239.700000
1867.725141	211.500000
1869.496450	235.400000
1871.267388	231.900000
1873.039704	219.600000
1874.806406	218.300000
1876.576233	222.900000
1878.342197	231.700000
1880.111285	237.700000
1881.876511	210.700000
1883.641369	208.600000
1885.407603	210.300000
1887.169979	217.800000
1888.931988	221.300000
1890.693630	228.400000
1892.454904	227.600000
1894.215812	216.900000
1895.976352	213.300000
1897.734784	231.300000
1899.492849	227.900000
1901.248807	228.800000
1903.006141	231.800000
1904.763110	221.200000
1906.517972	213.600000
1908.270729	211.200000
1910.023123	230.700000
1911.776893	222.700000
1913.528559	228.400000
1915.278122	230.200000
1917.029062	218.400000
1918.779638	223.400000
1920.526376	228.100000
1922.274489	222.100000
1924.020503	196.100000
1925.767893	236.900000
1927.513184	212.600000
1929.256378	234.700000
1931.000948	223.900000
1932.743421	215.600000
1934.485534	221.200000
1936.227288	208.300000
1937.968681	214.100000
1939.707981	235.700000
1941.446922	236.000000
1943.185504	217.900000
1944.921995	228.900000
1946.658127	225.250000
1948.395635	221.600000
1950.129320	230.900000
1951.864380	242.500000
1953.597351	225.300000
1955.329966	218.400000
1957.062224	243.000000
1958.794126	223.000000
1960.523943	227.700000
1962.251674	239.400000
1963.980780	238.600000
1965.709530	245.000000
1967.436197	241.400000
1969.162510	235.900000
1970.890197	213.600000
1972.612347	219.400000
1974.337598	228.200000
1976.059042	233.400000
1977.783586	220.100000
1979.506051	242.000000
1981.224712	217.600000
1982.946472	247.500000
1984.664430	229.600000
1986.383762	239.600000
1988.099294	231.200000
1989.819646	249.800000
1991.536200	244.300000
1993.248957	221.400000
1994.964810	237.900000
1996.678591	226.000000
1998.392022	237.900000
2000.103382	227.900000
2001.816114	216.800000
2003.525055	259.800000
2005.237090	238.400000
2006.943615	231.200000
2008.653233	244.000000
2010.360783	235.900000
2012.067986	218.900000
2013.773123	226.900000
2015.477913	243.100000
2017.184076	242.500000
2018.886455	231.800000
2020.590207	240.100000
2022.291896	231.800000
2023.993239	262.900000
2025.694238	231.300000
2027.393175	219.900000
2029.093484	230.300000
2030.790017	257.100000
2032.487922	220.700000
2034.183769	218.000000
2035.882701	238.500000
2037.576147	249.900000
2039.270964	228.000000
2040.965438	262.800000
2042.656144	253.900000
2044.349934	234.300000
2046.039958	236.800000
2047.731351	251.400000
2049.420692	220.700000
2051.111404	228.600000
2052.798352	210.800000
2054.484960	227.100000
2056.172939	222.500000
2057.857158	209.900000
2059.542747	222.300000
2061.227997	228.400000
2062.911199	229.000000
2064.595771	218.400000
2066.274879	215.800000
2067.958774	238.100000
2069.637207	232.600000
2071.318718	223.800000
2072.996477	208.800000
2074.673900	228.500000
2076.352692	228.800000
2078.029441	221.400000
2079.704149	238.800000
2081.380227	217.000000
2083.054263	217.600000
2084.727964	251.000000
2086.401331	231.600000
2088.072658	238.100000
2089.743651	234.800000
2091.414310	224.900000
2093.084635	231.900000
2094.754626	250.000000
2096.422580	239.800000
2098.090202	246.800000
2099.755790	227.700000
2101.422746	221.400000
2103.087669	232.200000
2104.752260	228.000000
2106.414819	249.200000
2108.078746	241.900000
2109.740642	261.100000
2111.402207	252.800000
2113.063442	222.000000
2114.722647	248.100000
2116.381523	241.500000
2118.040068	237.900000
2119.698284	223.800000
2121.352777	244.300000
2123.010334	237.000000
2124.667561	246.400000
2126.321068	230.600000
2127.975942	214.400000
2129.627097	244.600000
2131.281315	241.500000
2132.931815	217.700000
2134.583683	233.600000
2136.230142	242.100000
2137.881355	225.300000
2139.528856	233.600000
2141.177723	230.600000
2142.824571	224.400000
2144.471094	239.200000
2146.117291	227.900000
2147.759779	227.500000
2149.405326	237.700000
2151.047166	235.100000
2152.692063	240.500000
2154.333255	247.000000
2155.974123	259.700000
2157.614668	222.500000
2159.253200	220.500000
2160.893098	216.500000
2162.529296	244.500000
2164.166860	232.900000
2165.804102	230.000000
2167.439334	229.400000
2169.074244	236.500000
2170.708833	214.300000
2172.343101	231.400000
2173.973675	239.100000
2175.607301	213.600000
2177.237234	248.800000
2178.868534	229.700000
2180.497828	232.100000
2182.126803	236.100000
2183.755458	235.200000
2185.383794	235.300000
2187.010127	242.700000
2188.636142	223.600000
2190.260156	226.800000
2191.885535	217.000000
2193.508913	247.500000
2195.133656	241.500000
2196.754718	224.900000
2198.375463	238.800000
2199.997572	236.500000
2201.617684	239.500000
2203.235800	231.400000
2204.853600	227.000000
2206.471084	250.200000
2208.088253	228.200000
2209.705107	257.500000
2211.321646	243.900000
2212.936191	223.700000
2214.548745	218.000000
2216.162662	222.800000
2217.774588	241.500000
2219.387877	215.800000
2220.999175	236.200000
2222.608485	211.500000
2224.219157	228.200000
2225.827841	218.800000
2227.436213	229.900000
2229.042598	218.200000
2230.650345	249.300000
2232.256107	244.400000
2233.861557	234.700000
2235.465022	243.300000
2237.069850	228.800000
2238.672694	243.500000
2240.273555	220.900000
2241.875779	242.400000
2243.476021	224.400000
2245.077625	236.800000
2246.675576	239.100000
2248.274890	242.200000
2249.872224	231.900000
2251.469250	231.000000
2253.067637	244.400000
2254.662377	240.500000
2256.255139	229.400000
2257.849264	246.500000
2259.444750	229.800000
2261.036591	256.100000
2262.628126	204.600000
2264.221022	222.500000
2265.808609	247.700000
2267.400893	218.400000
2268.987869	231.500000
2270.577874	259.500000
2272.162574	226.400000
2273.751968	233.500000
2275.336059	248.800000
2276.921512	223.300000
2278.504996	247.300000
2280.091505	242.000000
2281.674381	239.300000
2283.256954	233.500000
2284.839223	223.300000
2286.417862	224.400000
2287.999526	231.200000
2289.577561	240.300000
2291.158619	214.000000
2292.736050	215.050000
2294.311518	216.100000
2295.890008	218.200000
2297.464874	234.900000
2299.039439	225.800000
2300.613703	225.000000
2302.187667	232.300000
2303.761331	229.400000
2305.334695	239.900000
2306.904439	231.800000
2308.473886	213.700000
2310.046350	231.700000
2311.613540	225.800000
2313.183747	227.200000
2314.750341	207.100000
2316.318293	216.200000
2317.884291	219.500000
2319.449991	219.500000
2321.015393	238.800000
2322.578842	236.700000
2324.143650	247.700000
2325.704849	274.200000
2327.269063	274.700000
2328.828016	317.200000
2330.389982	273.500000
2331.949998	248.900000
2333.509718	228.600000
2335.067489	223.400000
2336.624966	229.900000
2338.182148	237.600000
2339.737382	232.600000
2341.292322	244.300000
2342.846969	246.800000
2344.401322	204.200000
2345.955381	222.500000
2347.509147	230.300000
2349.060968	207.900000
2350.610846	228.800000
2352.163733	226.000000
2353.711376	240.800000
2355.262027	211.300000
2356.809088	225.000000
2358.357506	222.700000
2359.905632	211.600000
2361.450171	224.900000
2362.996067	254.100000
2364.540024	225.000000
2366.085339	236.800000
2367.627069	233.500000
2369.170157	221.500000
2370.711308	218.900000
2372.252170	240.600000
2373.792743	239.900000
2375.333027	221.400000
2376.873022	239.500000
2378.409438	221.600000
2379.948856	243.500000
2381.484697	220.100000
2383.021895	230.000000
2384.555517	230.700000
2386.092139	244.000000
2387.626831	204.300000
2389.159592	273.000000
2390.692068	228.400000
2392.222615	214.600000
2393.756160	233.100000
2395.284494	241.400000
2396.814184	241.600000
2398.343589	233.900000
2399.872709	237.100000
2401.401543	249.900000
2402.925173	240.900000
2404.453438	232.200000
2405.976500	228.700000
2407.504197	235.300000
2409.025054	267.100000
2410.550543	223.000000
2412.072473	244.500000
2413.595757	248.600000
2415.117121	236.400000
2416.636565	243.900000
2418.157364	228.400000
2419.676244	249.600000
2421.194843	225.300000
2422.711523	255.800000
2424.229559	229.400000
2425.747313	235.000000
2427.261515	252.900000
2428.775438	230.100000
2430.289080	251.600000
2431.804076	253.100000
2433.315525	230.700000
2434.828327	225.000000
2436.339217	236.000000
2437.849828	223.600000
2439.358527	243.800000
2440.870212	219.500000
2442.378354	229.300000
2443.886218	228.600000
2445.393803	226.400000
2446.897849	238.400000
2448.404879	226.800000
2449.910001	249.900000
2451.414846	224.400000
2452.917784	234.500000
2454.420445	215.800000
2455.922831	230.300000
2457.423310	204.000000
2458.925143	233.600000
2460.425072	215.900000
2461.924725	236.200000
2463.424103	241.000000
2464.921578	230.700000
2466.417151	226.200000
2467.915704	223.500000
2469.410729	211.700000
2470.907106	216.800000
2472.399957	231.800000
2473.894161	225.000000
2475.388091	232.300000
2476.878497	227.500000
2478.371881	252.500000
2479.863367	205.400000
2481.352956	231.000000
2482.842273	190.400000
2484.329694	219.000000
2485.820091	239.000000
2487.306969	235.700000
2488.795200	230.200000
2490.279913	241.700000
2491.764356	230.300000
2493.250151	220.200000
2494.734054	221.500000
2496.219307	233.600000
2497.699427	228.300000
2499.182519	226.600000
2500.663722	230.400000
2502.144655	232.200000
2503.623698	227.900000
2505.102474	218.900000
2506.580981	243.600000
2508.059219	226.700000
2509.537190	230.800000
2511.011655	232.500000
2512.489089	230.200000
2513.963020	230.700000
2515.438302	242.200000
2516.913316	233.800000
2518.384829	238.300000
2519.857693	202.700000
2521.328674	236.100000
2522.801005	233.700000
2524.268222	241.100000
2525.738406	233.200000
2527.206709	220.700000
2528.674746	233.100000
2530.142519	218.600000
2531.610027	235.300000
2533.077271	253.300000
2534.541022	216.700000
2536.006123	219.400000
2537.469347	221.500000
2538.933920	248.700000
2540.395005	210.800000
2541.857439	208.600000
2543.319610	221.700000
2544.778294	242.400000
2546.241551	252.700000
2547.699711	241.400000
2549.159220	240.200000
2550.613636	212.500000
2552.072622	254.700000
2553.529735	217.400000
2554.984978	236.600000
2556.439960	227.100000
2557.893072	249.500000
2559.347533	224.300000
2560.800125	228.200000
2562.252457	246.700000
2563.702921	239.800000
2565.156342	240.100000
2566.604680	251.700000
2568.055973	234.800000
2569.505400	228.000000
2570.951356	246.100000
2572.400266	233.400000
2573.845705	232.400000
2575.292493	233.600000
2576.737417	239.900000
2578.182084	256.500000
2579.628098	234.600000
2581.070645	221.600000
2582.514540	234.100000
2583.954970	230.100000
2585.396748	228.900000
2586.836666	236.900000
2588.277931	233.100000
2589.715734	223.700000
2591.156487	244.200000
2592.592177	229.700000
2594.030817	228.900000
2595.467600	236.900000
2596.902527	228.200000
2598.340401	236.800000
2599.773218	220.300000
2601.207382	246.700000
2602.639691	232.100000
2604.073348	228.400000
2605.505150	252.900000
2606.936700	251.900000
2608.367996	213.200000
2609.797441	237.100000
2611.226633	233.300000
2612.653974	252.500000
2614.082662	236.500000
2615.511097	278.500000
2616.936086	232.400000
2618.362420	222.600000
2619.786907	275.500000
2621.212738	275.400000
2622.635126	266.200000
2624.058860	266.000000
2625.480748	269.900000
2626.902385	269.900000
2628.322178	251.200000
2629.743316	261.900000
2631.164204	270.700000
2632.581653	286.300000
2634.002042	268.200000
2635.418994	263.300000
2636.835698	270.500000
2638.252153	273.000000
2639.668360	287.100000
2641.084319	272.200000
2642.498437	270.700000
2643.912307	273.300000
2645.324338	294.100000
2646.737714	280.000000
2648.147660	272.200000
2649.560542	284.500000
2650.969995	283.500000
2652.379202	299.600000
2653.786573	279.100000
2655.196878	286.300000
2656.605347	279.800000
2658.011981	315.700000
2659.418370	285.500000
2660.822926	308.400000
2662.228825	287.100000
2663.632890	305.100000
2665.036712	303.000000
2666.440289	317.600000
2667.842035	288.700000
2669.245124	309.200000
2670.644795	290.700000
2672.045810	315.900000
2673.443409	295.200000
2674.843937	279.400000
2676.241051	303.200000
2677.639508	311.300000
2679.036137	310.200000
2680.432525	295.600000
2681.828670	292.200000
2683.222989	295.200000
2684.618651	271.700000
2686.010904	307.000000
2687.404499	285.300000
2688.796270	281.600000
2690.189384	305.700000
2691.580673	306.600000
2692.970140	301.500000
2694.359368	272.600000
2695.748355	272.900000
2697.138685	308.100000
2698.524031	279.300000
2699.912300	279.000000
2701.298749	257.200000
2702.684959	292.600000
2704.070930	279.900000
2705.453503	273.300000
2706.837418	262.800000
2708.221094	282.700000
2709.604533	265.500000
2710.984576	250.200000
2712.365961	260.200000
2713.745530	262.800000
2715.126441	259.600000
2716.505537	233.600000
2717.882819	252.200000
2719.261442	241.100000
2720.638251	261.000000
2722.014825	235.100000
2723.391163	235.800000
2724.765689	249.700000
2726.141556	247.200000
2727.514036	239.800000
2728.889433	253.200000
2730.259869	237.300000
2731.631645	240.400000
2733.003188	222.300000
2734.372922	259.200000
2735.743996	237.500000
2737.113263	225.700000
2738.482296	231.600000
2739.849522	251.500000
2741.216516	247.200000
2742.583277	209.600000
2743.949805	222.100000
2745.314529	213.900000
2746.679020	240.400000
2748.043279	222.100000
2749.407307	230.500000
2750.771102	245.300000
2752.131525	225.300000
2753.494857	223.400000
2754.853247	223.900000
2756.214547	216.600000
2757.572476	212.800000
2758.933315	214.200000
2760.292353	222.100000
2761.648023	203.900000
2763.006602	195.700000
2764.361813	218.000000
2765.716795	216.300000
2767.069980	218.900000
2768.426072	209.800000
2769.778800	193.700000
2771.131299	214.300000
2772.483571	218.900000
2773.837180	237.000000
2775.187428	210.800000
2776.535883	209.400000
2777.887242	202.500000
2779.235242	209.200000
2780.584581	221.400000
2781.932127	218.800000
2783.279447	210.200000
2784.626539	207.800000
2785.971841	196.400000
2787.316917	189.200000
2788.661767	214.600000
2790.006391	198.300000
2791.347662	192.800000
2792.690272	173.700000
2794.032657	209.800000
2795.374816	205.800000
2796.713626	193.700000
2798.055336	208.400000
2799.393697	214.500000
2800.733396	219.600000
2802.071309	213.000000
2803.407438	207.900000
2804.743344	215.800000
2806.080586	227.300000
2807.416045	213.200000
2808.751281	197.000000
2810.084735	218.900000
2811.419525	201.700000
2812.750974	204.500000
2814.085319	199.200000
2815.414766	191.900000
2816.745550	213.400000
2818.076112	200.500000
2819.404895	198.500000
2820.735015	218.500000
2822.063356	222.300000
2823.391475	222.200000
2824.717818	190.000000
2826.045496	205.900000
2827.369842	214.800000
2828.695524	197.800000
2830.019430	198.500000
2831.343116	214.300000
2832.668138	205.000000
2833.989831	175.900000
2835.311304	209.300000
2836.632559	192.600000
2837.953595	203.200000
2839.272859	205.900000
2840.593458	194.300000
2841.912285	202.800000
2843.230894	196.300000
2844.547733	206.100000
2845.864354	204.300000
2847.180758	211.400000
2848.495392	198.600000
2849.811361	196.800000
2851.124011	201.600000
2852.437995	206.400000
2853.751763	203.500000
2855.065314	184.900000
2856.377099	201.200000
2857.687117	180.100000
2858.998470	199.400000
2860.306508	207.200000
2861.615880	210.200000
2862.925037	199.100000
2864.233979	193.600000
2865.541158	213.700000
2866.846573	207.300000
2868.153323	213.100000
2869.458311	199.100000
2870.763084	206.500000
2872.066097	209.000000
2873.371990	207.900000
2874.673029	201.500000
2875.975401	212.000000
2877.276015	216.500000
2878.577961	192.400000
2879.879695	199.600000
2881.178125	205.100000
2882.477888	224.300000
2883.775894	195.000000
2885.073688	201.400000
2886.369725	203.900000
2887.667096	208.100000
2888.962712	207.900000
2890.258116	201.900000
2891.553309	184.000000
2892.845204	213.600000
2894.139976	199.400000
2895.431452	213.800000
2896.724260	216.200000
2898.016858	206.800000
2899.306161	210.100000
2900.596798	196.900000
2901.885683	216.700000
2903.175900	209.200000
2904.462826	206.700000
2905.751084	222.600000
2907.037593	205.000000
2908.323893	180.400000
2909.609985	204.900000
2910.894329	199.100000
2912.181545	202.500000
2913.463934	208.300000
2914.747655	201.700000
2916.029629	236.700000
2917.311397	225.600000
2918.591419	188.200000
2919.874311	182.600000
2921.155458	199.900000
2922.433323	206.400000
2923.714057	196.800000
2924.991510	196.700000
2926.268758	205.400000
2927.544263	187.000000
2928.822636	199.900000
2930.096195	195.600000
2931.372621	196.500000
2932.647305	192.900000
2933.920250	197.100000
2935.194526	203.500000
2936.467061	195.100000
2937.739393	213.800000
2939.008452	195.700000
2940.280376	202.200000
2941.550562	197.200000
2942.820544	200.900000
2944.090323	217.600000
2945.358365	182.000000
2946.624672	173.500000
2947.890776	207.200000
2949.158211	206.900000
2950.423910	187.500000
2951.689407	221.800000
2952.954703	206.300000
2954.216733	197.400000
2955.480093	198.500000
2956.743252	211.200000
2958.004678	201.100000
2959.267435	195.900000
2960.528459	195.500000
2961.787753	200.900000
2963.046846	189.900000
2964.305739	200.400000
2965.564432	188.800000
2966.822925	191.400000
2968.079689	191.000000
2969.336254	199.000000
2970.591090	193.500000
2971.847256	189.400000
2973.100166	200.700000
2974.354406	181.800000
2975.608447	202.900000
2976.860762	189.100000
2978.112879	187.700000
2979.363271	178.200000
2980.616518	198.700000
2981.864988	193.700000
2983.116313	180.400000
2984.364388	192.500000
2985.612266	187.200000
2986.859948	198.800000
2988.107432	194.600000
2989.353195	177.800000
2990.598761	177.500000
2991.845656	177.900000
2993.089306	187.400000
2994.334283	183.700000
2995.576018	177.100000
2996.820604	202.800000
2998.063471	180.200000
2999.303097	186.200000
3000.545573	185.600000
3001.784809	187.500000
3003.025373	171.000000
3004.264220	198.000000
3005.502873	188.800000
3006.739810	180.100000
3007.978075	181.900000
3009.214624	177.200000
3010.450980	177.700000
3011.687142	172.600000
3012.921590	188.200000
3014.155845	184.400000
3015.389907	185.800000
3016.622257	187.000000
3017.852895	183.200000
3019.086379	180.100000
3020.318152	161.100000
3021.548213	163.000000
3022.778083	167.700000
3024.006243	189.000000
3025.235730	169.200000
3026.463507	181.100000
3027.691093	188.300000
3028.920005	180.100000
3030.144175	173.300000
3031.371188	172.400000
3032.594978	192.800000
3033.820093	176.500000
3035.043503	184.600000
3036.266722	184.800000
3037.488236	169.700000
3038.712591	172.500000
3039.932211	187.100000
3041.153157	175.500000
3042.373913	162.700000
3043.592967	165.400000
3044.813345	187.300000
3046.030507	160.900000
3047.248994	178.400000
3048.465780	165.000000
3049.682377	159.300000
3050.898787	187.100000
3052.111983	182.900000
3053.328017	170.600000
3054.540839	156.600000
3055.756498	160.500000
3056.967434	169.900000
3058.179696	187.700000
3059.391770	180.200000
3060.603658	175.600000
3061.813849	161.100000
3063.023853	168.000000
3064.233671	166.300000
3065.441793	177.700000
3066.649730	155.800000
3067.855971	193.000000
3069.063537	173.500000
3070.269408	162.400000
3071.475094	151.300000
3072.680596	185.600000
3073.884404	162.700000
3075.089536	158.300000
3076.292975	195.700000
3077.494722	162.100000
3078.696286	168.400000
3079.897666	178.500000
3081.098862	185.800000
3082.298368	169.200000
3083.497691	195.000000
3084.698337	178.100000
3085.897293	183.800000
3087.093054	168.100000
3088.291645	171.700000
3089.487042	187.200000
3090.683763	178.400000
3091.877291	180.600000
3093.073647	185.700000
3094.268316	191.300000
3095.459795	169.500000
3096.655605	163.100000
3097.846722	168.800000
3099.039162	182.500000
3100.228413	185.300000
3101.420491	158.000000
3102.610885	164.000000
3103.798093	165.800000
3104.986623	185.000000
3106.176476	175.800000
3107.363144	180.200000
3108.549633	161.200000
3109.735943	181.200000
3110.923574	177.900000
3112.108023	180.100000
3113.290793	156.100000
3114.476385	143.500000
3115.660298	163.000000
3116.842531	159.400000
3118.024587	143.700000
3119.206464	176.600000
3120.388163	166.900000
3121.568185	160.000000
3122.746530	178.000000
3123.927695	154.000000
3125.105685	167.200000
3126.283498	157.100000
3127.461134	181.400000
3128.637095	171.200000
3129.812880	157.700000
3130.989985	178.100000
3132.165417	172.000000
3133.339175	163.100000
3134.511260	179.400000
3135.684666	180.900000
3136.857897	175.900000
3138.029456	155.800000
3139.202335	175.300000
3140.372047	172.700000
3141.543080	187.900000
3142.712442	180.400000
3143.880135	171.800000
3145.050643	171.700000
3146.216492	159.500000
3147.386651	145.400000
3148.552152	173.600000
3149.717480	153.400000
3150.882634	178.400000
3152.047615	154.800000
3153.213915	156.000000
3154.375562	156.900000
3155.538530	170.400000
3156.701325	167.400000
3157.863946	141.600000
3159.024903	168.300000
3160.185688	183.500000
3161.346300	170.000000
3162.505248	156.800000
3163.664024	158.100000
3164.822629	154.800000
3165.981062	153.300000
3167.139323	156.700000
3168.295923	159.000000
3169.450861	158.700000
3170.607118	180.700000
3171.761714	162.900000
3172.916140	157.700000
3174.068905	154.700000
3175.221501	149.600000
3176.373927	167.600000
3177.526182	155.300000
3178.678268	151.800000
3179.827207	152.000000
3180.978953	147.200000
3182.129042	168.900000
3183.277473	189.900000
3184.425736	156.400000
3185.573830	159.500000
3186.721755	157.300000
3187.868024	147.100000
3189.014125	170.900000
3190.158572	169.000000
3191.302850	165.600000
3192.446961	147.400000
3193.592390	154.300000
3194.734680	166.600000
3195.876802	152.300000
3197.018758	165.500000
3198.160546	174.500000
3199.302167	151.800000
3200.440653	169.000000
3201.580456	164.500000
3202.721576	163.900000
3203.859563	176.600000
3204.995899	150.900000
3206.132071	164.900000
3207.269559	144.200000
3208.405399	136.100000
3209.542556	163.900000
3210.675100	162.200000
3211.811925	140.100000
3212.944140	169.300000
3214.077671	168.700000
3215.211037	159.500000
3216.341277	163.400000
3217.474314	146.300000
3218.604224	157.600000
3219.735452	176.400000
3220.863554	145.600000
3221.994454	158.200000
3223.123709	162.600000
3224.251321	135.100000
3225.375810	165.200000
3226.504575	160.200000
3227.630218	157.400000
3228.755698	159.800000
3229.879537	139.100000
3231.006171	150.800000
3232.128207	136.500000
3233.251559	162.800000
3234.374748	155.500000
3235.497776	147.800000
3236.619164	146.700000
3237.740391	157.400000
3238.859979	138.800000
3239.979406	138.800000
3241.097196	155.600000
3242.217777	155.600000
3243.335245	147.600000
3244.452552	150.400000
3245.569699	144.400000
3246.685209	139.600000
3247.802035	151.700000
3248.915750	166.900000
3250.032256	153.900000
3251.147126	153.800000
3252.258888	153.800000
3253.370491	155.600000
3254.483409	129.800000
3255.596167	154.400000
3256.705819	151.200000
3257.816786	157.700000
3258.927594	143.600000
3260.036770	153.100000
3261.144315	149.400000
3262.253175	128.100000
3263.361876	148.700000
3264.467475	132.500000
3265.574389	160.700000
3266.679673	155.200000
3267.786271	148.500000
3268.889769	142.800000
3269.994581	149.900000
3271.099236	132.600000
3272.200793	155.600000
3273.302193	163.900000
3274.404907	145.400000
3275.507465	153.100000
3276.606926	144.800000
3277.709171	133.700000
3278.808320	174.500000
3279.905844	132.800000
3281.003214	147.300000
3282.103365	148.500000
3283.200424	152.700000
3284.297327	155.900000
3285.394075	190.200000
3286.486264	159.300000
3287.582703	158.500000
3288.677519	160.300000
3289.772180	154.300000
3290.865220	142.900000
3291.958106	147.100000
3293.049371	144.900000
3294.141949	138.800000
3295.232907	163.700000
3296.322245	154.300000
3297.411430	155.800000
3298.501927	172.900000
3299.589340	150.900000
3300.676601	144.800000
3301.765174	151.300000
3302.853594	140.300000
3303.937468	133.600000
3305.025582	154.300000
3306.110616	157.200000
3307.194034	167.000000
3308.278764	142.800000
3309.361878	152.600000
3310.446304	139.800000
3311.527653	157.500000
3312.610313	141.300000
3313.691358	144.900000
3314.772253	157.200000
3315.851535	143.900000
3316.930666	158.600000
3318.011109	139.600000
3319.088477	148.000000
3320.167157	149.500000
3321.244225	135.200000
3322.321143	150.900000
3323.396451	139.400000
3324.471609	135.500000
3325.548078	132.400000
3326.621476	145.700000
3327.694726	134.000000
3328.769287	169.100000
3329.842239	145.900000
3330.913582	143.300000
3331.986236	170.500000
3333.055823	138.500000
3334.126721	143.000000
3335.196013	149.200000
3336.266614	144.500000
3337.335609	150.600000
3338.402999	139.500000
3339.468783	135.500000
3340.538793	140.300000
3341.605739	143.900000
3342.669625	126.500000
3343.736277	136.600000
3344.801326	158.000000
3345.864771	144.000000
3346.928070	138.500000
3347.991222	147.800000
3349.054228	144.300000
3350.117088	151.400000
3351.178345	158.500000
3352.236546	147.000000
3353.298968	155.200000
3354.358334	144.600000
3355.417554	124.800000
3356.478083	143.900000
3357.534104	119.300000
3358.592888	161.200000
3359.647165	137.600000
3360.704206	139.500000
3361.759648	139.300000
3362.816399	134.100000
3363.871553	163.900000
3364.925109	140.700000
3365.977068	136.200000
3367.031790	152.000000
3368.083462	147.700000
3369.134990	125.200000
3370.187828	136.900000
3371.237618	152.700000
3372.288717	162.300000
3373.336769	145.400000
3374.387582	166.300000
3375.435349	141.000000
3376.482974	145.400000
3377.530457	158.400000
3378.576347	136.800000
3379.623545	171.000000
3380.667700	144.700000
3381.714614	133.300000
3382.759937	128.900000
3383.802218	124.300000
3384.844358	127.500000
3385.887807	135.400000
3386.931114	127.400000
3387.972831	139.700000
3389.014408	152.900000
3390.055843	144.200000
3391.095690	145.600000
3392.133948	132.900000
3393.173514	134.900000
3394.212940	108.500000
3395.250778	136.700000
3396.287029	134.200000
3397.323140	148.800000
3398.360559	142.800000
3399.394945	128.000000
3400.430639	150.000000
3401.466193	125.200000
3402.498715	128.900000
3403.533991	127.100000
3404.566237	158.200000
3405.598343	148.100000
3406.628867	128.100000
3407.660697	129.400000
3408.692389	132.600000
3409.721053	138.700000
3410.749580	135.300000
3411.779413	146.500000
3412.809109	141.500000
3413.835779	155.300000
3414.863755	133.700000
3415.888707	152.300000
3416.916410	125.600000
3417.941088	137.200000
3418.967073	128.800000
3419.991479	129.500000
3421.015748	160.000000
3422.038438	137.400000
3423.060992	128.100000
3424.084852	130.000000
3425.105692	130.800000
3426.126396	135.700000
3427.148406	125.300000
3428.167398	131.800000
3429.186255	131.300000
3430.206418	139.400000
3431.223564	153.000000
