-118.304647	1.500000
-115.635047	-0.300000
-112.968382	5.900000
-110.302469	-22.000000
-107.639489	6.500000
-104.975078	12.000000
-102.313598	18.700000
-99.650689	0.600000
-96.992886	11.400000
-94.333654	-3.900000
-91.675170	-0.900000
-89.019611	-6.600000
-86.362622	5.200000
-83.710732	-2.400000
-81.057412	3.200000
-78.407011	-11.100000
-75.755182	6.200000
-73.108442	6.000000
-70.460274	7.600000
-67.812848	-17.200000
-65.168337	-4.600000
-62.522396	-13.300000
-59.881537	4.500000
-57.239249	-18.900000
-54.599870	5.700000
-51.959061	-16.600000
-49.318993	8.200000
-46.683998	-1.400000
-44.047573	0.300000
-41.414051	1.800000
-38.779101	7.000000
-36.149216	11.500000
-33.515739	29.700000
-30.887324	-2.100000
-28.259643	29.700000
-25.630533	21.600000
-23.006480	35.800000
-20.378838	27.800000
-17.756249	52.800000
-15.134392	76.500000
-12.513265	170.100000
-9.892869	406.100000
-7.275360	1325.000000
-4.656423	3932.600000
-2.040371	8700.100000
0.574952	9062.800000
3.189547	4642.800000
5.801261	507.800000
8.414403	78.500000
11.022511	12.600000
13.634201	31.700000
16.240860	10.700000
18.848947	9.800000
21.456310	7.700000
24.058648	24.700000
26.664564	7.800000
29.265458	-3.800000
31.867780	-9.000000
34.465085	12.500000
37.065965	-8.200000
39.661830	5.800000
42.259124	-19.000000
44.855698	21.700000
47.447263	3.400000
50.040256	17.900000
52.630388	-7.000000
55.221947	21.400000
57.810648	1.500000
60.400775	10.600000
62.985903	-5.200000
65.572459	-11.300000
68.158301	-17.700000
70.741289	6.100000
73.325703	-1.300000
75.902989	8.800000
78.483841	13.500000
81.061844	-5.000000
83.639137	10.500000
86.217856	4.700000
88.791593	0.800000
91.366758	8.900000
93.939079	-15.300000
96.510692	10.800000
99.079465	9.200000
101.649665	17.300000
104.217026	11.500000
106.785814	14.700000
109.351765	-8.200000
111.914881	-1.000000
114.481553	14.700000
117.039004	26.800000
119.602140	29.500000
122.160316	49.600000
124.722047	52.400000
127.278821	112.500000
129.837021	147.300000
132.390269	199.100000
134.942819	255.900000
137.498919	393.100000
140.050071	494.200000
142.600526	565.600000
145.150283	609.700000
147.697221	700.200000
150.243464	696.300000
152.791132	757.800000
155.338104	711.600000
157.880141	723.600000
160.421484	692.400000
162.962134	732.500000
165.504210	716.400000
168.043474	711.500000
170.579930	687.900000
173.115694	747.000000
175.652884	691.000000
178.189383	707.300000
180.723076	682.700000
183.253965	666.600000
185.784166	706.200000
188.315793	715.500000
190.844618	672.700000
193.370644	706.000000
195.895984	674.400000
198.422749	677.900000
200.946718	670.700000
203.470002	696.000000
205.992601	679.600000
208.512407	689.500000
211.031529	656.300000
213.549970	678.900000
216.069834	668.700000
218.582697	677.100000
221.099091	687.300000
223.614803	688.900000
226.125625	687.700000
228.637872	704.000000
231.147337	689.400000
233.656122	701.000000
236.164230	720.200000
238.673762	708.400000
241.178413	698.600000
243.682388	721.800000
246.187787	697.600000
248.688311	743.600000
251.192358	730.600000
253.689435	719.000000
256.190035	723.600000
258.687863	710.200000
261.185018	715.600000
263.681500	751.800000
266.173119	752.200000
268.668258	758.500000
271.160630	736.100000
273.652332	765.600000
276.141271	713.500000
278.631633	755.000000
281.119234	749.100000
283.604075	801.700000
286.092431	762.000000
288.573847	769.900000
291.058777	740.500000
293.538862	771.600000
296.022459	766.500000
298.501213	795.800000
300.981390	804.100000
303.458816	804.400000
305.935578	786.700000
308.411676	805.000000
310.885027	798.300000
313.357715	897.800000
315.829742	923.700000
318.301108	1023.600000
320.769729	1105.900000
323.237692	1118.700000
325.707076	1023.400000
328.171638	937.600000
330.639704	895.500000
333.102950	876.900000
335.565538	867.400000
338.027470	883.200000
340.488745	835.500000
342.947286	853.000000
345.407249	856.100000
347.864479	842.400000
350.321055	825.300000
352.776977	851.300000
355.230169	858.800000
357.684784	847.700000
360.134597	847.600000
362.587906	845.900000
365.036416	863.200000
367.484276	873.300000
369.933558	832.000000
372.378046	837.300000
374.823956	849.400000
377.269216	849.400000
379.711758	841.700000
382.153652	850.500000
384.594899	845.700000
387.033430	871.900000
389.473382	815.700000
391.910622	866.700000
394.345149	834.900000
396.783164	851.200000
399.216402	831.200000
401.651061	825.700000
404.080948	845.600000
406.514320	843.800000
408.942922	853.500000
411.370882	848.600000
413.800264	810.800000
416.224880	862.900000
418.650918	831.200000
421.076315	834.900000
423.501072	821.600000
425.921071	858.700000
428.342490	851.000000
430.761214	852.800000
433.181358	837.300000
435.598807	859.700000
438.017676	868.800000
440.433852	856.800000
442.845280	882.500000
445.260185	858.400000
447.672401	867.700000
450.083982	857.100000
452.494929	836.800000
454.903190	858.000000
457.310818	828.700000
459.717814	851.200000
462.124179	822.500000
464.527861	826.800000
466.930913	775.100000
469.333335	799.000000
471.735127	789.700000
474.134241	780.700000
476.534775	802.200000
478.934680	819.100000
481.329863	789.600000
483.728512	801.400000
486.122440	795.900000
488.515743	798.700000
490.908421	784.900000
493.300473	776.700000
495.693943	754.500000
498.082701	735.800000
500.468793	683.600000
502.856305	643.600000
505.243194	595.900000
507.627419	590.700000
510.013062	580.700000
512.396044	570.000000
514.776365	523.400000
517.158105	537.700000
519.537186	479.200000
521.917686	500.900000
524.295528	479.000000
526.670714	499.000000
529.045284	469.700000
531.421271	482.200000
533.794606	460.200000
536.169358	458.200000
538.539425	443.900000
540.908876	438.700000
543.279745	428.600000
545.645933	419.400000
548.013540	435.700000
550.378502	435.300000
552.742850	397.800000
555.106585	428.700000
557.471738	410.000000
559.832219	385.700000
562.194118	417.800000
564.553376	429.500000
566.909996	411.200000
569.270062	404.400000
571.623436	384.100000
573.980255	421.300000
576.334439	370.800000
578.688014	396.400000
581.040982	383.700000
583.391317	386.800000
585.743070	382.900000
588.088146	373.300000
590.438685	371.000000
592.782552	394.900000
595.131880	360.100000
597.476559	417.100000
599.818614	397.100000
602.162086	409.500000
604.502935	410.900000
606.843181	397.000000
609.180808	373.200000
611.521869	363.300000
613.858292	370.000000
616.196132	358.700000
618.531355	357.000000
620.863962	365.800000
623.197985	327.700000
625.529394	356.300000
627.860205	336.500000
630.190419	349.700000
632.520034	347.500000
634.845026	346.400000
637.175460	334.200000
639.501273	332.000000
641.824478	348.100000
644.149100	330.000000
646.471116	326.300000
648.792538	341.500000
651.111358	329.300000
653.431593	332.000000
655.751235	307.500000
658.068276	316.900000
660.384725	312.400000
662.698576	331.200000
665.013843	311.100000
667.326513	312.300000
669.640598	289.800000
671.950083	315.000000
674.260984	309.100000
676.569292	289.100000
678.877012	307.400000
681.186146	295.400000
683.490688	295.500000
685.794644	286.300000
688.098014	280.400000
690.402798	303.500000
692.702995	273.800000
695.004608	300.400000
697.305635	261.600000
699.602081	286.200000
701.899942	264.400000
704.197219	293.500000
706.493913	284.700000
708.786031	280.800000
711.081560	258.900000
713.372515	287.300000
715.664885	254.300000
717.954680	284.500000
720.243894	275.300000
722.532529	268.700000
724.818591	284.500000
727.106068	270.500000
729.390973	281.100000
731.675301	297.900000
733.957060	277.500000
736.240233	298.700000
738.522829	285.500000
740.800869	294.800000
743.080324	301.200000
745.359202	307.200000
747.637506	285.200000
749.911260	315.000000
752.186427	285.100000
754.461021	299.900000
756.733056	287.200000
759.006504	311.800000
761.277394	311.100000
763.545728	309.400000
765.815475	316.400000
768.082667	299.800000
770.349290	301.100000
772.615342	317.000000
774.878843	326.900000
777.143757	335.200000
779.408101	330.300000
781.667916	343.800000
783.929143	319.700000
786.189803	315.600000
788.447917	292.900000
790.703486	333.100000
792.962446	316.400000
795.214906	325.100000
797.472734	310.700000
799.726043	343.400000
801.976812	312.200000
804.228993	297.300000
806.478635	310.300000
808.729690	305.900000
810.976233	289.300000
813.224188	312.200000
815.469609	291.900000
817.716441	298.700000
819.962712	276.800000
822.204478	328.200000
824.449628	283.600000
826.688305	293.500000
828.930364	286.000000
831.167925	295.100000
833.406898	274.200000
835.643344	296.500000
837.881201	285.200000
840.116533	272.200000
842.349342	262.300000
844.583562	282.800000
846.815259	241.700000
849.046402	271.000000
851.276990	239.000000
853.507024	272.800000
855.736504	243.000000
857.961502	262.300000
860.189875	244.900000
862.413768	267.300000
864.639073	249.100000
866.859902	269.000000
869.084103	272.900000
871.303831	258.900000
873.524969	277.200000
875.745557	272.500000
877.963636	270.900000
880.183124	286.700000
882.398146	277.000000
884.612620	292.100000
886.826547	261.200000
889.039927	272.400000
891.252759	274.500000
893.465045	271.600000
895.674828	263.400000
897.884066	257.300000
900.092759	293.300000
902.298952	279.100000
904.506556	279.700000
906.711661	267.500000
908.916223	253.600000
911.118290	274.700000
913.321766	251.300000
915.522748	266.700000
917.723188	230.500000
919.925037	271.800000
922.120495	262.300000
924.319312	275.400000
926.513690	275.300000
928.711426	268.500000
930.904726	243.800000
933.099435	277.200000
935.291658	265.800000
937.483342	279.000000
939.674489	268.700000
941.863153	282.400000
944.051281	272.100000
946.236928	273.800000
948.425927	266.800000
950.610503	317.500000
952.794544	291.700000
954.981935	310.200000
957.161022	309.800000
959.343460	317.600000
961.525364	323.300000
963.704793	338.500000
965.881750	304.900000
968.060115	349.700000
970.239887	351.300000
972.413310	354.500000
974.590079	327.200000
976.762441	347.600000
978.936211	359.900000
981.105577	371.300000
983.278287	359.400000
985.448532	394.800000
987.618247	365.800000
989.787435	381.400000
991.952225	375.000000
994.120356	406.700000
996.284092	371.300000
998.449236	401.400000
1000.611920	400.600000
1002.774079	421.400000
1004.933781	405.400000
1007.092958	446.700000
1009.253542	418.200000
1011.411671	435.300000
1013.569277	419.800000
1015.726359	439.800000
1017.882917	425.300000
1020.035096	446.600000
1022.188682	419.000000
1024.341746	439.500000
1026.492361	450.700000
1028.644383	474.500000
1030.792031	467.300000
1032.943011	476.500000
1035.089620	458.800000
1037.235710	472.000000
1039.381282	458.500000
1041.528259	481.900000
1043.668947	475.200000
1045.812965	497.000000
1047.954542	487.600000
1050.095603	505.700000
1052.238068	484.500000
1054.374253	506.700000
1056.513765	513.100000
1058.648922	521.500000
1060.787403	485.200000
1062.921530	492.000000
1065.055144	490.300000
1067.190162	523.400000
1069.320832	468.700000
1071.452906	500.200000
1073.582551	487.600000
1075.711684	485.700000
1077.840305	479.300000
1079.968415	464.800000
1082.094099	456.600000
1084.219273	444.700000
1086.345851	423.900000
1088.468091	441.700000
1090.591736	415.500000
1092.711046	433.300000
1094.835585	400.200000
1096.953880	419.500000
1099.073579	415.200000
1101.190859	393.300000
1103.307632	390.900000
1105.423900	392.200000
1107.537751	386.200000
1109.653007	400.700000
1111.763939	376.500000
1113.878184	392.600000
1115.988108	366.200000
1118.099436	375.100000
1120.210259	339.100000
1122.316766	363.000000
1124.426582	361.600000
1126.532085	383.600000
1128.638990	341.800000
1130.739680	370.600000
1132.845582	357.400000
1134.947175	374.500000
1137.050171	332.300000
1139.152666	367.800000
1141.248954	316.600000
1143.350449	336.200000
1145.447642	363.800000
1147.544337	323.100000
1149.640533	307.300000
1151.736231	351.800000
1153.831432	333.000000
1155.924236	355.200000
1158.018442	339.400000
1160.106457	345.200000
1162.199671	339.000000
1164.286696	332.800000
1166.377020	320.000000
1168.463056	340.400000
1170.552391	326.800000
1172.635544	347.900000
1174.720099	343.500000
1176.806056	332.800000
1178.887731	319.900000
1180.970807	336.100000
1183.051498	333.400000
1185.131698	337.800000
1187.211406	301.000000
1189.290623	291.900000
1191.367458	338.700000
1193.441911	345.300000
1195.519657	303.800000
1197.593133	337.800000
1199.668009	307.600000
1201.738618	334.900000
1203.810628	317.300000
1205.880263	317.600000
1207.951297	302.500000
1210.021845	314.400000
1212.088131	306.500000
1214.155818	308.800000
1216.221133	313.300000
1218.287848	313.500000
1220.350307	304.200000
1222.416051	302.600000
1224.477541	311.700000
1226.540432	318.600000
1228.600955	276.500000
1230.660994	288.700000
1232.720550	300.200000
1234.777742	307.900000
1236.834452	301.600000
1238.888798	314.500000
1240.946426	295.200000
1243.001691	306.500000
1245.052715	275.000000
1247.105139	303.700000
1249.157083	289.200000
1251.206669	315.800000
1253.255776	285.900000
1255.304404	333.700000
1257.352554	277.600000
1259.400226	286.100000
1261.443667	302.800000
1263.490384	292.400000
1265.534747	295.500000
1267.578634	326.900000
1269.620169	298.300000
1271.659355	304.000000
1273.701814	327.000000
1275.740050	305.000000
1277.779685	317.100000
1279.818845	335.600000
1281.853786	320.200000
1283.890126	348.300000
1285.924122	325.000000
1287.959515	335.300000
1289.990696	354.000000
1292.023274	339.300000
1294.055381	345.400000
1296.085147	359.000000
1298.116310	376.100000
1300.143267	375.700000
1302.171621	353.300000
1304.195770	385.400000
1306.223185	415.000000
1308.246397	411.800000
1310.271007	428.500000
1312.293283	450.100000
1314.316956	445.800000
1316.338295	492.300000
1318.359168	467.800000
1320.379573	511.300000
1322.395785	510.600000
1324.413394	529.200000
1326.428675	561.700000
1328.447215	577.000000
1330.461566	560.500000
1332.473590	575.100000
1334.488873	587.600000
1336.499970	613.500000
1338.512464	594.200000
1340.520775	605.400000
1342.532341	561.100000
1344.537869	556.700000
1346.546652	540.600000
1348.551257	557.100000
1350.559116	506.600000
1352.566513	504.500000
1354.567879	486.000000
1356.570641	486.700000
1358.572944	466.900000
1360.574787	437.600000
1362.576170	447.000000
1364.575240	426.100000
1366.573851	414.000000
1368.572003	401.000000
1370.569698	375.700000
1372.563230	380.200000
1374.558157	367.200000
1376.552628	352.800000
1378.546642	348.500000
1380.538349	321.600000
1382.529600	353.200000
1384.518546	348.600000
1386.508888	334.900000
1388.498774	327.300000
1390.486356	313.300000
1392.473485	336.800000
1394.458312	307.800000
1396.444534	335.900000
1398.428455	298.600000
1400.411924	328.100000
1402.394941	315.700000
1404.375660	286.200000
1406.357773	287.200000
1408.337590	292.800000
1410.316955	306.500000
1412.292182	303.600000
1414.270647	267.700000
1416.246819	307.800000
1418.222541	262.300000
1420.197815	298.100000
1422.170797	297.000000
1424.143331	305.400000
1426.115417	284.900000
1428.087056	266.300000
1430.054566	265.400000
1432.027150	294.700000
1433.991928	275.200000
1435.961779	309.500000
1437.927506	281.600000
1439.894625	299.600000
1441.859461	274.100000
1443.820177	275.700000
1445.785961	276.900000
1447.745790	287.800000
1449.707013	278.800000
1451.669627	307.100000
1453.628127	284.400000
1455.586185	269.200000
1457.543801	292.000000
1459.500974	296.900000
1461.455872	287.400000
1463.412163	282.600000
1465.366179	275.900000
1467.319754	285.700000
1469.271057	274.100000
1471.223753	299.500000
1473.174176	272.900000
1475.124161	299.800000
1477.073707	298.000000
1479.020984	295.300000
1480.965993	271.600000
1482.912395	282.400000
1484.858359	283.700000
1486.803886	303.700000
1488.747147	278.400000
1490.689973	304.700000
1492.630534	278.800000
1494.572488	267.200000
1496.512179	293.500000
1498.451435	291.800000
1500.390257	271.000000
1502.326819	292.300000
1504.264772	285.700000
1506.200466	297.200000
1508.135727	289.500000
1510.068731	310.100000
1512.001304	294.400000
1513.933444	288.000000
1515.865152	283.300000
1517.794606	300.300000
1519.725451	308.400000
1521.655864	305.600000
1523.582205	293.500000
1525.509936	325.000000
1527.435418	293.500000
1529.360470	341.700000
1531.285093	325.100000
1533.209286	343.400000
1535.131233	294.200000
1537.054570	334.600000
1538.975660	333.900000
1540.894506	351.000000
1542.814742	361.100000
1544.732735	373.000000
1546.650300	380.600000
1548.565625	394.800000
1550.482339	402.700000
1552.394998	426.600000
1554.310861	447.500000
1556.224484	463.500000
1558.135869	442.700000
1560.048644	468.700000
1561.957369	463.300000
1563.867483	504.300000
1565.777174	478.300000
1567.686442	483.400000
1569.593476	500.800000
1571.498277	499.600000
1573.404467	505.200000
1575.308425	502.500000
1577.211962	475.000000
1579.115079	477.100000
1581.015966	464.600000
1582.918242	493.800000
1584.818290	446.200000
1586.719725	449.500000
1588.617127	434.500000
1590.514110	434.100000
1592.410675	442.400000
1594.308627	426.000000
1596.200745	432.800000
1598.096057	413.800000
1599.990951	395.800000
1601.883623	417.000000
1603.775878	400.500000
1605.665914	413.800000
1607.555534	416.500000
1609.444739	408.300000
1611.333529	375.400000
1613.220101	381.100000
1615.108061	352.100000
1616.992004	345.700000
1618.877334	338.500000
1620.762251	335.700000
1622.644954	329.600000
1624.529044	292.800000
1626.409122	330.400000
1628.290588	273.900000
1630.169843	290.000000
1632.050484	296.300000
1633.925321	264.600000
1635.805139	257.700000
1637.680953	286.000000
1639.556356	275.200000
1641.433145	274.300000
1643.304138	275.000000
1645.178312	264.000000
1647.048487	263.600000
1648.921843	253.800000
1650.792996	258.600000
1652.661948	255.500000
1654.532284	260.600000
1656.398628	253.100000
1658.266357	271.700000
1660.131887	251.900000
1661.998803	273.400000
1663.861730	248.200000
1665.726042	240.700000
1667.588158	255.200000
1669.449869	229.900000
1671.312966	241.300000
1673.173867	259.300000
1675.032576	228.200000
1676.890881	244.900000
1678.750570	238.400000
1680.604493	236.000000
1682.461589	231.100000
1684.318281	254.600000
1686.170998	246.100000
1688.026886	245.500000
1689.878800	230.700000
1691.730313	241.200000
1693.581425	223.200000
1695.432137	232.000000
1697.282447	230.600000
1699.130574	250.400000
1700.980085	229.600000
1702.823846	235.100000
1704.672558	229.600000
1706.515523	237.800000
1708.361655	246.500000
1710.203824	237.700000
1712.049159	237.700000
1713.888753	232.900000
1715.729731	238.600000
1717.572092	250.000000
1719.410497	221.000000
1721.250285	241.400000
1723.087897	245.500000
1724.925115	227.000000
1726.760159	217.400000
1728.596586	233.200000
1730.430841	226.400000
1732.264701	249.100000
1734.098167	217.000000
1735.927688	238.100000
1737.760367	251.500000
1739.589102	235.400000
1741.420994	231.500000
1743.248944	232.700000
1745.076502	216.700000
1746.903669	248.600000
1748.730444	241.100000
1750.556827	215.900000
1752.379274	200.800000
1754.204876	236.800000
1756.026543	237.000000
1757.849592	248.700000
1759.670479	230.200000
1761.490978	253.800000
1763.312857	227.000000
1765.129038	235.000000
1766.948370	234.500000
1768.763774	233.700000
1770.582330	215.500000
1772.396960	246.500000
1774.211203	236.900000
1776.025060	224.900000
1777.838530	213.500000
1779.649847	211.400000
1781.462544	221.100000
1783.274856	245.800000
1785.083249	227.000000
1786.893024	229.500000
1788.698884	244.700000
1790.507889	237.800000
1792.312981	230.500000
1794.119454	229.700000
1795.925543	226.400000
1797.727721	246.700000
1799.533044	229.900000
1801.334458	240.600000
1803.137252	210.600000
1804.936140	226.600000
1806.736409	228.600000
1808.536296	226.100000
1810.334041	202.800000
1812.131406	221.600000
1813.928391	240.300000
1815.724995	240.200000
1817.519460	221.300000
1819.315304	233.700000
1821.105493	225.500000
1822.900579	216.900000
1824.690013	212.300000
1826.482583	243.000000
1828.273018	221.400000
1830.061319	242.600000
1831.852755	223.100000
1833.638545	247.000000
1835.425715	232.900000
1837.210753	215.000000
1838.998925	220.300000
1840.783211	242.600000
1842.565367	227.600000
1844.348903	231.700000
1846.130310	217.100000
1847.913096	218.500000
1849.692001	240.300000
1851.472285	238.400000
1853.250444	213.900000
1855.029981	206.200000
1856.807392	235.800000
1858.582681	204.000000
1860.359347	225.200000
1862.133891	231.400000
1863.909813	235.100000
1865.680114	207.700000
1867.453543	226.200000
1869.224852	221.700000
1870.995790	211.400000
1872.768106	232.400000
1874.534808	223.200000
1876.304635	217.500000
1878.070599	211.200000
1879.839687	232.700000
1881.604913	230.700000
1883.369771	232.600000
1885.136006	233.800000
1886.898382	231.100000
1888.660390	216.900000
1890.422032	233.300000
1892.183307	214.100000
1893.944214	219.100000
1895.704755	215.900000
1897.463186	207.700000
1899.221251	187.900000
1900.977209	234.400000
1902.734543	238.200000
1904.491512	236.700000
1906.246374	218.700000
1907.999132	214.400000
1909.751525	218.600000
1911.505295	235.000000
1913.256961	231.600000
1915.006525	220.900000
1916.757464	203.500000
1918.508041	218.100000
1920.254778	217.100000
1922.002892	215.600000
1923.748906	208.200000
1925.496295	242.600000
1927.241587	221.800000
1928.984781	242.500000
1930.729350	212.500000
1932.471823	229.000000
1934.213937	233.100000
1935.955690	211.800000
1937.697083	209.900000
1939.436383	238.900000
1941.175324	221.000000
1942.913906	242.400000
1944.650397	251.600000
1946.386530	240.700000
1948.124037	229.800000
1949.857722	228.100000
1951.592782	208.500000
1953.325753	220.500000
1955.058368	231.200000
1956.790627	235.500000
1958.522529	212.700000
1960.252345	260.500000
1961.980076	204.000000
1963.709182	216.900000
1965.437932	227.300000
1967.164600	236.700000
1968.890913	261.000000
1970.618599	231.400000
1972.340749	217.500000
1974.066000	225.700000
1975.787444	241.400000
1977.511989	203.200000
1979.234453	196.900000
1980.953115	244.500000
1982.674875	240.000000
1984.392833	235.600000
1986.112164	242.300000
1987.827696	237.900000
1989.548048	227.800000
1991.264602	239.900000
1992.977359	225.200000
1994.693212	233.400000
1996.406993	231.700000
1998.120424	235.900000
1999.831784	216.000000
2001.544516	234.000000
2003.253458	228.100000
2004.965492	231.300000
2006.672017	253.400000
2008.381635	242.900000
2010.089185	226.500000
2011.796388	238.900000
2013.501525	228.100000
2015.206316	257.700000
2016.912478	215.100000
2018.614858	237.500000
2020.318609	225.700000
2022.020298	240.700000
2023.721641	234.500000
2025.422640	228.700000
2027.121577	248.500000
2028.821886	245.400000
2030.518419	211.400000
2032.216324	229.000000
2033.912171	217.700000
2035.611103	243.100000
2037.304549	227.100000
2038.999366	241.900000
2040.693841	223.100000
2042.384547	240.700000
2044.078337	226.100000
2045.768360	238.000000
2047.459754	236.900000
2049.149095	251.900000
2050.839806	234.900000
2052.526754	229.400000
2054.213363	213.500000
2055.901341	240.200000
2057.585560	230.900000
2059.271150	241.600000
2060.956400	228.900000
2062.639601	229.800000
2064.324173	210.700000
2066.003281	223.700000
2067.687176	220.200000
2069.365609	245.700000
2071.047120	220.000000
2072.724879	241.900000
2074.402302	212.200000
2076.081094	234.000000
2077.757844	193.300000
2079.432551	232.200000
2081.108629	227.900000
2082.782665	239.100000
2084.456367	221.500000
2086.129733	241.400000
2087.801060	221.800000
2089.472053	237.100000
2091.142712	225.300000
2092.813037	225.700000
2094.483028	218.000000
2096.150983	233.100000
2097.818605	226.800000
2099.484192	243.900000
2101.151148	210.000000
2102.816071	245.400000
2104.480662	217.700000
2106.143221	232.600000
2107.807148	223.400000
2109.469044	211.700000
2111.130610	234.200000
2112.791844	230.800000
2114.451050	225.500000
2116.109925	224.800000
2117.768471	218.000000
2119.426686	232.200000
2121.081179	211.600000
2122.738736	236.300000
2124.395963	235.400000
2126.049470	239.400000
2127.704344	227.600000
2129.355499	227.100000
2131.009717	218.800000
2132.660217	224.200000
2134.312085	234.200000
2135.958544	235.100000
2137.609758	217.600000
2139.257258	233.600000
2140.906125	231.500000
2142.552973	238.400000
2144.199496	219.900000
2145.845693	226.800000
2147.488182	230.700000
2149.133729	236.200000
2150.775569	234.500000
2152.420466	231.200000
2154.061657	238.700000
2155.702526	219.300000
2157.343070	228.900000
2158.981602	255.700000
2160.621500	246.100000
2162.257698	232.800000
2163.895262	217.400000
2165.532504	247.100000
2167.167736	214.700000
2168.802646	245.600000
2170.437235	235.000000
2172.071503	223.700000
2173.702077	224.500000
2175.335703	234.800000
2176.965637	224.900000
2178.596936	228.600000
2180.226230	210.400000
2181.855205	208.900000
2183.483860	207.800000
2185.112196	225.900000
2186.738530	228.000000
2188.364545	226.100000
2189.988558	214.600000
2191.613937	248.200000
2193.237315	212.000000
2194.862058	235.200000
2196.483120	213.100000
2198.103865	246.900000
2199.725974	221.000000
2201.346086	234.600000
2202.964202	202.600000
2204.582002	233.200000
2206.199487	210.000000
2207.816656	238.800000
2209.433510	222.600000
2211.050048	226.400000
2212.664594	228.300000
2214.277147	242.100000
2215.891064	224.700000
2217.502990	251.600000
2219.116279	230.100000
2220.727578	231.900000
2222.336887	216.200000
2223.947560	213.100000
2225.556244	218.800000
2227.164615	239.800000
2228.771000	214.400000
2230.378747	231.000000
2231.984509	233.800000
2233.589959	228.500000
2235.193424	202.100000
2236.798252	235.700000
2238.401096	239.400000
2240.001957	252.200000
2241.604181	233.900000
2243.204423	247.200000
2244.806027	205.500000
2246.403978	224.400000
2248.003292	220.800000
2249.600626	242.500000
2251.197652	220.800000
2252.796040	224.100000
2254.390779	230.500000
2255.983541	228.200000
2257.577666	229.700000
2259.173152	229.600000
2260.764993	219.600000
2262.356528	256.200000
2263.949425	236.400000
2265.537012	230.600000
2267.129295	237.300000
2268.716272	240.700000
2270.306276	211.000000
2271.890976	220.100000
2273.480370	224.400000
2275.064462	235.700000
2276.649914	234.700000
2278.233398	235.200000
2279.819907	227.800000
2281.402783	244.900000
2282.985356	224.700000
2284.567625	226.000000
2286.146264	244.700000
2287.727928	214.100000
2289.305963	219.500000
2290.887021	211.200000
2292.464452	210.250000
2294.039920	209.300000
2295.618410	210.300000
2297.193276	231.300000
2298.767841	201.900000
2300.342105	217.200000
2301.916070	238.400000
2303.489733	212.100000
2305.063097	229.700000
2306.632842	201.400000
2308.202288	230.400000
2309.774752	217.900000
2311.341942	212.300000
2312.912150	221.800000
2314.478743	217.000000
2316.046696	255.800000
2317.612693	213.000000
2319.178393	227.000000
2320.743795	214.900000
2322.307244	233.200000
2323.872052	241.200000
2325.433252	271.700000
2326.997466	277.500000
2328.556418	286.200000
2330.118384	288.800000
2331.678400	249.800000
2333.238121	214.700000
2334.795892	247.500000
2336.353368	223.600000
2337.910550	222.200000
2339.465784	220.800000
2341.020725	221.400000
2342.575371	214.800000
2344.129724	236.800000
2345.683783	226.400000
2347.237549	232.800000
2348.789370	206.800000
2350.339249	252.100000
2351.892135	215.100000
2353.439778	233.000000
2354.990430	227.800000
2356.537490	237.600000
2358.085908	230.700000
2359.634035	240.800000
2361.178573	231.200000
2362.724469	224.200000
2364.268427	233.400000
2365.813741	228.700000
2367.355472	230.400000
2368.898559	259.500000
2370.439710	208.100000
2371.980572	219.900000
2373.521145	238.000000
2375.061429	243.200000
2376.601424	238.300000
2378.137841	251.200000
2379.677259	197.100000
2381.213099	249.400000
2382.750297	229.500000
2384.283919	250.300000
2385.820541	235.600000
2387.355233	227.600000
2388.887995	225.600000
2390.420470	229.300000
2391.951017	230.600000
2393.484562	224.400000
2395.012896	226.900000
2396.542586	245.500000
2398.071991	225.300000
2399.601111	229.700000
2401.129945	242.500000
2402.653575	243.500000
2404.181840	234.300000
2405.704903	243.100000
2407.232599	228.000000
2408.753456	244.500000
2410.278945	236.700000
2411.800875	244.200000
2413.324159	231.000000
2414.845523	260.500000
2416.364967	244.800000
2417.885766	227.800000
2419.404646	201.100000
2420.923245	235.100000
2422.439926	231.800000
2423.957961	236.100000
2425.475715	260.700000
2426.989917	239.800000
2428.503840	240.100000
2430.017482	245.900000
2431.532479	204.200000
2433.043927	246.400000
2434.556729	243.700000
2436.067619	255.200000
2437.578230	222.700000
2439.086929	249.800000
2440.598614	228.800000
2442.106756	225.800000
2443.614620	244.300000
2445.122206	253.600000
2446.626251	226.400000
2448.133281	245.400000
2449.638403	220.900000
2451.143248	247.200000
2452.646186	239.700000
2454.148848	242.500000
2455.651233	222.700000
2457.151713	242.600000
2458.653546	217.900000
2460.153474	237.200000
2461.653127	239.700000
2463.152505	259.000000
2464.649980	228.700000
2466.145553	225.500000
2467.644106	227.500000
2469.139131	234.600000
2470.635508	240.600000
2472.128359	239.700000
2473.622563	240.500000
2475.116493	236.100000
2476.606899	221.600000
2478.100283	230.800000
2479.591769	215.500000
2481.081358	230.500000
2482.570675	224.800000
2484.058096	234.400000
2485.548493	231.800000
2487.035372	217.400000
2488.523602	239.000000
2490.008315	215.700000
2491.492759	229.700000
2492.978553	238.900000
2494.462456	232.400000
2495.947709	233.300000
2497.427829	231.000000
2498.910922	222.400000
2500.392124	219.800000
2501.873057	211.300000
2503.352101	236.000000
2504.830876	234.400000
2506.309383	219.200000
2507.787622	236.900000
2509.265592	233.600000
2510.740057	231.900000
2512.217492	227.300000
2513.691423	250.900000
2515.166704	220.900000
2516.641718	231.100000
2518.113231	213.600000
2519.586095	229.600000
2521.057076	233.700000
2522.529407	227.700000
2523.996624	244.400000
2525.466808	236.300000
2526.935111	222.400000
2528.403149	221.600000
2529.870922	224.800000
2531.338430	261.600000
2532.805673	206.800000
2534.269424	231.500000
2535.734525	213.100000
2537.197749	223.600000
2538.662322	223.400000
2540.123407	240.700000
2541.585841	220.900000
2543.048012	233.900000
2544.506697	225.300000
2545.969953	232.100000
2547.428114	235.700000
2548.887623	245.000000
2550.342038	254.800000
2551.801024	249.900000
2553.258138	241.500000
2554.713380	251.300000
2556.168362	234.500000
2557.621475	225.400000
2559.075935	217.800000
2560.528527	237.400000
2561.980859	254.000000
2563.431324	231.600000
2564.884744	216.300000
2566.333082	238.700000
2567.784375	240.400000
2569.233803	241.800000
2570.679758	242.600000
2572.128668	224.200000
2573.574108	254.800000
2575.020895	237.300000
2576.465819	246.500000
2577.910486	232.400000
2579.356500	233.500000
2580.799048	232.700000
2582.242943	232.400000
2583.683372	243.000000
2585.125150	225.000000
2586.565068	240.500000
2588.006333	231.300000
2589.444136	250.500000
2590.884889	225.000000
2592.320580	242.900000
2593.759220	243.300000
2595.196002	244.800000
2596.630929	235.600000
2598.068803	235.500000
2599.501620	214.700000
2600.935784	266.700000
2602.368094	256.400000
2603.801750	242.800000
2605.233553	235.500000
2606.665102	270.700000
2608.096399	256.800000
2609.525843	261.800000
2610.955035	232.100000
2612.382377	255.000000
2613.811064	256.300000
2615.239500	256.100000
2616.664488	227.200000
2618.090823	264.900000
2619.515309	247.800000
2620.941141	250.300000
2622.363529	244.400000
2623.787263	265.800000
2625.209150	244.700000
2626.630788	254.400000
2628.050580	246.000000
2629.471718	246.600000
2630.892606	240.000000
2632.310055	281.900000
2633.730445	236.600000
2635.147397	252.700000
2636.564100	266.900000
2637.980555	274.900000
2639.396762	273.100000
2640.812721	252.900000
2642.226839	276.500000
2643.640709	272.400000
2645.052741	263.000000
2646.466116	264.000000
2647.876062	257.300000
2649.288944	283.400000
2650.698397	272.000000
2652.107604	274.700000
2653.514975	279.200000
2654.925280	293.800000
2656.333750	293.900000
2657.740384	281.000000
2659.146773	281.100000
2660.551328	286.900000
2661.957227	267.300000
2663.361293	310.500000
2664.765114	290.500000
2666.168691	302.500000
2667.570437	257.900000
2668.973526	291.900000
2670.373197	273.900000
2671.774212	286.000000
2673.171811	281.500000
2674.572339	304.100000
2675.969453	281.400000
2677.367910	287.500000
2678.764540	269.800000
2680.160927	286.600000
2681.557072	268.500000
2682.951391	266.800000
2684.347053	268.900000
2685.739306	286.000000
2687.132901	260.900000
2688.524672	300.400000
2689.917786	268.200000
2691.309076	249.600000
2692.698543	261.400000
2694.087770	279.600000
2695.476758	249.700000
2696.867087	276.000000
2698.252433	251.500000
2699.640702	263.600000
2701.027151	264.100000
2702.413361	270.900000
2703.799332	256.700000
2705.181905	247.600000
2706.565820	268.300000
2707.949497	250.600000
2709.332935	246.200000
2710.712978	263.400000
2712.094363	241.900000
2713.473933	243.400000
2714.854843	248.200000
2716.233939	239.300000
2717.611221	236.800000
2718.989844	247.700000
2720.366653	239.900000
2721.743227	254.300000
2723.119565	245.300000
2724.494092	252.400000
2725.869959	210.400000
2727.242439	255.400000
2728.617835	224.400000
2729.988271	240.700000
2731.360048	227.000000
2732.731590	242.400000
2734.101324	222.200000
2735.472399	237.900000
2736.841665	223.700000
2738.210698	253.700000
2739.577925	208.900000
2740.944918	243.100000
2742.311679	223.800000
2743.678208	216.000000
2745.042931	221.700000
2746.407422	214.200000
2747.771682	245.700000
2749.135709	233.100000
2750.499505	208.500000
2751.859927	228.100000
2753.223259	207.900000
2754.581649	239.100000
2755.942949	213.800000
2757.300879	220.900000
2758.661717	201.700000
2760.020756	220.500000
2761.376426	220.100000
2762.735004	236.800000
2764.090215	202.400000
2765.445197	215.300000
2766.798382	226.000000
2768.154474	224.500000
2769.507202	217.700000
2770.859702	225.000000
2772.211973	203.400000
2773.565582	246.100000
2774.915831	205.300000
2776.264285	214.000000
2777.615644	209.600000
2778.963645	219.000000
2780.312983	196.800000
2781.660529	219.400000
2783.007849	213.700000
2784.354942	226.000000
2785.700243	202.000000
2787.045319	230.200000
2788.390169	186.700000
2789.734793	210.100000
2791.076065	205.300000
2792.418675	217.900000
2793.761059	201.000000
2795.103218	211.000000
2796.442028	185.300000
2797.783738	232.900000
2799.122099	210.700000
2800.461798	208.600000
2801.799712	205.600000
2803.135841	206.400000
2804.471746	216.400000
2805.808989	235.400000
2807.144448	192.800000
2808.479684	205.700000
2809.813137	216.700000
2811.147927	209.000000
2812.479377	203.600000
2813.813722	216.000000
2815.143169	205.500000
2816.473952	220.700000
2817.804515	212.400000
2819.133298	226.100000
2820.463417	218.200000
2821.791758	210.400000
2823.119878	216.200000
2824.446220	217.300000
2825.773899	202.500000
2827.098244	198.700000
2828.423926	192.400000
2829.747832	193.300000
2831.071518	195.600000
2832.396541	224.900000
2833.718233	194.900000
2835.039707	198.400000
2836.360962	194.500000
2837.681998	219.100000
2839.001261	207.600000
2840.321860	219.400000
2841.640688	188.200000
2842.959297	202.500000
2844.276135	186.400000
2845.592756	202.300000
2846.909160	202.500000
2848.223794	212.800000
2849.539764	188.400000
2850.852413	199.800000
2852.166397	217.800000
2853.480165	219.100000
2854.793716	189.600000
2856.105501	210.300000
2857.415519	209.000000
2858.726872	214.400000
2860.034910	204.800000
2861.344282	230.500000
2862.653440	206.300000
2863.962382	213.600000
2865.269560	193.700000
2866.574976	220.800000
2867.881725	186.700000
2869.186713	231.700000
2870.491486	217.600000
2871.794499	217.700000
2873.100392	185.100000
2874.401431	196.500000
2875.703804	199.900000
2877.004417	216.200000
2878.306364	193.800000
2879.608097	206.100000
2880.906527	210.500000
2882.206290	204.300000
2883.504296	210.500000
2884.802090	192.700000
2886.098128	195.400000
2887.395499	204.800000
2888.691114	223.200000
2889.986518	201.300000
2891.281711	191.400000
2892.573607	198.200000
2893.868379	210.500000
2895.159854	207.300000
2896.452662	196.200000
2897.745260	217.200000
2899.034564	200.500000
2900.325200	224.400000
2901.614085	194.500000
2902.904302	203.100000
2904.191228	218.700000
2905.479486	192.100000
2906.765995	182.600000
2908.052295	212.600000
2909.338388	214.800000
2910.622732	219.100000
2911.909947	190.500000
2913.192336	217.800000
2914.476057	200.000000
2915.758032	213.500000
2917.039799	202.200000
2918.319821	200.900000
2919.602714	178.900000
2920.883861	215.200000
2922.161726	202.700000
2923.442460	200.300000
2924.719913	194.900000
2925.997160	195.900000
2927.272665	188.500000
2928.551038	221.600000
2929.824597	194.000000
2931.101023	202.400000
2932.375708	190.400000
2933.648652	207.200000
2934.922928	193.200000
2936.195464	202.700000
2937.467795	210.800000
2938.736854	215.500000
2940.008778	194.800000
2941.278964	187.200000
2942.548946	183.200000
2943.818725	209.000000
2945.086768	194.900000
2946.353074	185.300000
2947.619179	187.900000
2948.886613	196.600000
2950.152312	193.300000
2951.417810	206.600000
2952.683105	194.800000
2953.945135	185.400000
2955.208495	195.100000
2956.471654	201.100000
2957.733081	190.000000
2958.995837	202.900000
2960.256861	187.300000
2961.516155	198.200000
2962.775249	208.500000
2964.034142	194.700000
2965.292835	172.100000
2966.551328	192.500000
2967.808092	177.000000
2969.064656	198.400000
2970.319492	180.400000
2971.575658	203.600000
2972.828569	179.200000
2974.082809	178.700000
2975.336849	198.400000
2976.589164	200.300000
2977.841281	194.900000
2979.091673	176.700000
2980.344920	193.100000
2981.593390	193.100000
2982.844715	189.000000
2984.092790	193.500000
2985.340668	198.900000
2986.588350	192.600000
2987.835834	154.700000
2989.081597	179.400000
2990.327164	170.500000
2991.574058	175.600000
2992.817708	189.200000
2994.062686	178.000000
2995.304420	180.200000
2996.549006	185.300000
2997.791873	181.000000
2999.031499	188.400000
3000.273975	173.700000
3001.513211	169.500000
3002.753775	175.100000
3003.992622	166.700000
3005.231275	164.900000
3006.468212	179.300000
3007.706477	188.900000
3008.943026	177.000000
3010.179382	184.200000
3011.415544	186.000000
3012.649992	182.300000
3013.884248	212.600000
3015.118310	168.700000
3016.350659	200.700000
3017.581298	174.200000
3018.814782	185.900000
3020.046554	183.700000
3021.276616	200.100000
3022.506485	172.700000
3023.734645	186.700000
3024.964132	171.300000
3026.191909	195.000000
3027.419495	181.900000
3028.648407	170.300000
3029.872578	176.000000
3031.099591	183.400000
3032.323380	171.700000
3033.548496	195.000000
3034.771905	166.900000
3035.995124	185.900000
3037.216638	171.000000
3038.440993	192.700000
3039.660613	169.200000
3040.881559	182.200000
3042.102316	166.400000
3043.321369	176.400000
3044.541747	158.700000
3045.758909	177.400000
3046.977397	165.500000
3048.194182	187.100000
3049.410780	179.100000
3050.627189	180.200000
3051.840385	182.500000
3053.056420	184.500000
3054.269242	151.100000
3055.484901	194.200000
3056.695837	161.700000
3057.908098	177.500000
3059.120172	164.500000
3060.332060	180.600000
3061.542251	158.800000
3062.752255	168.400000
3063.962073	163.700000
3065.170195	169.600000
3066.378132	161.000000
3067.584373	179.200000
3068.791939	165.400000
3069.997810	176.800000
3071.203497	188.200000
3072.408998	175.400000
3073.612806	171.800000
3074.817938	184.000000
3076.021377	177.400000
3077.223125	172.300000
3078.424688	178.500000
3079.626068	163.400000
3080.827264	184.200000
3082.026770	165.700000
3083.226093	153.100000
3084.426739	169.400000
3085.625695	169.200000
3086.821457	180.900000
3088.020048	186.200000
3089.215445	158.300000
3090.412165	167.400000
3091.605693	177.200000
3092.802049	155.300000
3093.996718	158.700000
3095.188197	154.700000
3096.384008	174.800000
3097.575124	161.300000
3098.767564	182.800000
3099.956816	172.300000
3101.148893	175.800000
3102.339287	158.900000
3103.526495	185.100000
3104.715025	162.000000
3105.904878	176.000000
3107.091547	168.000000
3108.278035	171.800000
3109.464345	167.400000
3110.651976	174.800000
3111.836425	163.400000
3113.019195	167.600000
3114.204787	164.100000
3115.388700	177.900000
3116.570934	181.400000
3117.752989	170.200000
3118.934866	174.700000
3120.116565	202.500000
3121.296587	153.200000
3122.474932	155.700000
3123.656097	161.700000
3124.834087	174.100000
3126.011900	182.600000
3127.189536	173.900000
3128.365498	171.200000
3129.541282	191.400000
3130.718388	169.100000
3131.893819	174.900000
3133.067577	144.000000
3134.239662	175.400000
3135.413069	150.500000
3136.586299	153.400000
3137.757858	158.100000
3138.930737	157.000000
3140.100449	171.600000
3141.271482	148.500000
3142.440845	165.700000
3143.608537	184.700000
3144.779045	152.700000
3145.944895	180.900000
3147.115053	165.300000
3148.280555	158.600000
3149.445882	158.700000
3150.611036	171.700000
3151.776017	172.400000
3152.942317	172.400000
3154.103965	160.200000
3155.266932	155.000000
3156.429727	164.700000
3157.592349	185.100000
3158.753305	172.300000
3159.914090	172.700000
3161.074702	143.900000
3162.233650	185.800000
3163.392427	158.200000
3164.551031	200.500000
3165.709464	148.700000
3166.867726	163.200000
3168.024325	158.200000
3169.179263	163.300000
3170.335520	145.900000
3171.490116	162.400000
3172.644542	138.100000
3173.797308	153.100000
3174.949903	163.100000
3176.102329	145.000000
3177.254585	151.900000
3178.406670	153.900000
3179.555609	148.000000
3180.707356	177.600000
3181.857444	145.800000
3183.005876	173.300000
3184.154138	154.400000
3185.302232	152.600000
3186.450157	173.500000
3187.596426	172.700000
3188.742527	158.200000
3189.886974	168.200000
3191.031253	143.400000
3192.175364	178.000000
3193.320792	144.000000
3194.463082	180.800000
3195.605205	143.400000
3196.747160	147.200000
3197.888948	151.500000
3199.030569	166.000000
3200.169055	147.400000
3201.308858	162.700000
3202.449978	159.300000
3203.587965	153.600000
3204.724302	154.500000
3205.860473	184.700000
3206.997961	137.600000
3208.133801	180.500000
3209.270958	135.300000
3210.403502	171.600000
3211.540328	156.700000
3212.672542	157.100000
3213.806073	155.100000
3214.939440	156.100000
3216.069679	149.800000
3217.202716	148.800000
3218.332627	145.300000
3219.463854	167.800000
3220.591957	147.900000
3221.722856	152.600000
3222.852111	167.600000
3223.979723	163.600000
3225.104212	168.900000
3226.232977	159.800000
3227.358620	157.600000
3228.484101	144.600000
3229.607939	156.900000
3230.734573	153.200000
3231.856609	139.300000
3232.979961	136.600000
3234.103151	153.300000
3235.226178	162.400000
3236.347567	147.500000
3237.468793	145.200000
3238.588382	149.200000
3239.707809	145.200000
3240.825598	147.800000
3241.946179	141.900000
3243.063647	151.100000
3244.180954	149.800000
3245.298101	142.400000
3246.413611	149.100000
3247.530437	145.300000
3248.644153	168.100000
3249.760658	155.400000
3250.875529	173.000000
3251.987290	134.900000
3253.098893	170.500000
3254.211811	155.400000
3255.324569	155.600000
3256.434221	144.800000
3257.545188	173.100000
3258.655996	155.200000
3259.765172	148.500000
3260.872717	151.400000
3261.981577	159.300000
3263.090279	134.500000
3264.195878	167.700000
3265.302791	136.700000
3266.408075	159.700000
3267.514673	151.000000
3268.618171	171.600000
3269.722984	148.800000
3270.827638	153.400000
3271.929195	161.400000
3273.030595	145.500000
3274.133309	166.400000
3275.235867	158.300000
3276.335328	134.700000
3277.437573	171.100000
3278.536722	139.900000
3279.634247	155.100000
3280.731616	146.600000
3281.831767	145.100000
3282.928826	146.300000
3284.025729	156.100000
3285.122477	136.200000
3286.214666	140.900000
3287.311105	134.500000
3288.405921	149.500000
3289.500583	161.700000
3290.593623	162.000000
3291.686508	157.200000
3292.777773	161.500000
3293.870351	128.400000
3294.961309	138.200000
3296.050647	158.300000
3297.139832	161.300000
3298.230330	160.900000
3299.317743	160.900000
3300.405003	139.500000
3301.493576	157.300000
3302.581996	145.900000
3303.665870	138.200000
3304.753985	130.000000
3305.839018	141.000000
3306.922436	154.300000
3308.007166	152.500000
3309.090280	131.600000
3310.174707	161.800000
3311.256055	148.500000
3312.338715	165.100000
3313.419761	152.500000
3314.500656	159.900000
3315.579937	146.000000
3316.659068	160.600000
3317.739511	134.100000
3318.816879	168.400000
3319.895559	137.900000
3320.972627	162.700000
3322.049546	139.600000
3323.124853	146.600000
3324.200011	132.100000
3325.276480	149.000000
3326.349879	125.500000
3327.423128	146.700000
3328.497689	130.600000
3329.570641	160.900000
3330.641984	160.000000
3331.714638	155.100000
3332.784226	126.900000
3333.855124	166.500000
3334.924415	168.100000
3335.995017	166.100000
3337.064012	162.200000
3338.131401	149.600000
3339.197185	121.800000
3340.267195	152.900000
3341.334142	144.300000
3342.398027	133.800000
3343.464679	151.200000
3344.529728	145.200000
3345.593173	133.500000
3346.656472	159.900000
3347.719624	136.700000
3348.782630	142.800000
3349.845490	144.600000
3350.906748	166.000000
3351.964949	125.700000
3353.027370	148.200000
3354.086736	147.600000
3355.145956	132.700000
3356.206485	138.100000
3357.262506	151.100000
3358.321290	141.300000
3359.375567	136.000000
3360.432608	145.800000
3361.488050	129.700000
3362.544802	124.400000
3363.599955	154.900000
3364.653511	123.400000
3365.705471	160.400000
3366.760192	134.400000
3367.811864	151.300000
3368.863393	156.200000
3369.916230	131.700000
3370.966020	129.200000
3372.017119	141.700000
3373.065172	141.400000
3374.115984	163.100000
3375.163752	125.600000
3376.211376	152.200000
3377.258859	142.500000
3378.304749	140.400000
3379.351947	142.400000
3380.396103	128.900000
3381.443017	129.500000
3382.488339	152.100000
3383.530620	141.000000
3384.572760	152.800000
3385.616209	140.300000
3386.659516	160.100000
3387.701233	143.600000
3388.742810	147.400000
3389.784245	138.800000
3390.824092	158.900000
3391.862350	151.100000
3392.901916	150.500000
3393.941342	142.600000
3394.979180	134.500000
3396.015431	135.400000
3397.051543	150.100000
3398.088962	140.000000
3399.123348	142.000000
3400.159041	150.500000
3401.194595	132.400000
3402.227118	147.700000
3403.262394	147.400000
3404.294639	132.400000
3405.326746	146.700000
3406.357269	150.200000
3407.389099	139.500000
3408.420791	134.700000
3409.449455	139.100000
3410.477982	145.100000
3411.507815	130.300000
3412.537511	115.400000
3413.564181	137.100000
3414.592157	154.200000
3415.617110	161.300000
3416.644812	123.600000
3417.669491	127.400000
3418.695476	145.200000
3419.719881	143.900000
3420.744150	139.800000
3421.766840	135.200000
3422.789394	143.100000
3423.813254	140.600000
3424.834094	120.600000
3425.854798	145.100000
3426.876809	145.700000
3427.895801	153.000000
3428.914657	135.900000
3429.934820	144.300000
3430.951966	128.900000
