-118.033050	4.900000
-115.363449	-12.600000
-112.696784	4.500000
-110.030871	5.700000
-107.367891	6.900000
-104.703480	1.500000
-102.042000	-4.700000
-99.379091	13.000000
-96.721288	-5.200000
-94.062056	5.000000
-91.403572	3.300000
-88.748013	-2.700000
-86.091024	-3.400000
-83.439134	-2.000000
-80.785814	17.200000
-78.135413	22.500000
-75.483584	10.100000
-72.836845	14.400000
-70.188676	10.200000
-67.541250	16.300000
-64.896739	4.300000
-62.250798	8.100000
-59.609939	-9.200000
-56.967651	-0.600000
-54.328272	-0.800000
-51.687464	19.000000
-49.047395	15.600000
-46.412400	-17.400000
-43.775975	19.100000
-41.142453	-0.300000
-38.507503	1.000000
-35.877619	32.700000
-33.244141	21.800000
-30.615726	-11.500000
-27.988045	15.700000
-25.358935	13.500000
-22.734883	20.600000
-20.107240	46.300000
-17.484652	27.400000
-14.862794	84.200000
-12.241667	118.800000
-9.621271	309.200000
-7.003762	1041.600000
-4.384825	3511.300000
-1.768774	8497.600000
0.846550	9386.100000
3.461145	4881.000000
6.072859	690.400000
8.686000	98.700000
11.294109	47.000000
13.905798	14.400000
16.512457	17.500000
19.120545	15.100000
21.727907	20.400000
24.330245	19.200000
26.936161	21.300000
29.537056	15.300000
32.139378	5.300000
34.736682	30.000000
37.337563	16.400000
39.933428	-0.400000
42.530721	1.800000
45.127295	1.600000
47.718860	-5.000000
50.311854	-8.500000
52.901986	24.300000
55.493545	18.300000
58.082246	6.300000
60.672373	4.000000
63.257501	-6.800000
65.844057	12.500000
68.429898	-11.000000
71.012886	2.100000
73.597301	-5.400000
76.174586	4.600000
78.755438	8.000000
81.333441	16.000000
83.910734	1.800000
86.489454	7.600000
89.063191	14.300000
91.638355	15.000000
94.210676	1.500000
96.782290	11.400000
99.351063	9.800000
101.921263	13.500000
104.488624	1.800000
107.057412	13.200000
109.623363	35.300000
112.186479	10.800000
114.753151	27.400000
117.310601	19.200000
119.873737	10.700000
122.431914	43.900000
124.993645	51.200000
127.550419	81.000000
130.108619	118.300000
132.661867	161.500000
135.214417	261.900000
137.770517	358.900000
140.321669	491.800000
142.872124	545.300000
145.421881	619.300000
147.968819	673.300000
150.515062	714.700000
153.062730	738.600000
155.609702	757.400000
158.151738	728.900000
160.693082	708.000000
163.233732	719.300000
165.775807	742.600000
168.315072	690.300000
170.851527	725.400000
173.387292	747.200000
175.924482	722.100000
178.460981	708.000000
180.994674	711.600000
183.525563	723.800000
186.055764	717.800000
188.587391	725.600000
191.116216	688.300000
193.642242	673.700000
196.167582	686.500000
198.694347	691.300000
201.218316	708.000000
203.741599	696.200000
206.264198	703.600000
208.784004	697.600000
211.303127	691.300000
213.821567	683.500000
216.341432	674.400000
218.854294	691.200000
221.370688	724.500000
223.886401	660.800000
226.397223	670.100000
228.909470	695.500000
231.418934	720.200000
233.927720	704.700000
236.435828	700.800000
238.945360	686.600000
241.450011	723.000000
243.953986	712.300000
246.459385	709.700000
248.959909	718.400000
251.463956	724.900000
253.961033	733.700000
256.461632	730.100000
258.959460	744.000000
261.456615	736.500000
263.953098	746.500000
266.444717	721.100000
268.939856	737.200000
271.432228	750.000000
273.923930	753.400000
276.412869	768.600000
278.903231	756.900000
281.390832	757.900000
283.875673	765.700000
286.364029	784.800000
288.845445	767.300000
291.330375	776.300000
293.810459	751.900000
296.294056	774.300000
298.772811	782.600000
301.252988	793.300000
303.730414	815.900000
306.207176	776.400000
308.683274	811.100000
311.156624	846.700000
313.629313	864.200000
316.101340	949.800000
318.572705	1069.100000
321.041327	1126.300000
323.509289	1142.200000
325.978674	1003.700000
328.443236	966.000000
330.911302	869.000000
333.374547	886.800000
335.837136	855.300000
338.299068	878.000000
340.760343	893.500000
343.218883	846.700000
345.678846	859.200000
348.136077	851.600000
350.592653	863.000000
353.048575	869.800000
355.501767	829.600000
357.956382	834.100000
360.406195	848.200000
362.859504	832.700000
365.308014	845.000000
367.755874	819.500000
370.205156	843.900000
372.649643	854.900000
375.095553	854.300000
377.540814	866.100000
379.983356	847.600000
382.425250	841.400000
384.866496	850.000000
387.305028	869.600000
389.744980	854.300000
392.182219	835.500000
394.616746	844.300000
397.054761	819.900000
399.488000	813.800000
401.922659	850.000000
404.352546	850.100000
406.785918	839.700000
409.214520	866.600000
411.642480	843.400000
414.071861	846.800000
416.496478	879.200000
418.922515	846.700000
421.347913	879.600000
423.772670	843.000000
426.192668	850.000000
428.614088	866.200000
431.032811	859.900000
433.452955	861.100000
435.870404	882.600000
438.289274	857.100000
440.705449	865.100000
443.116878	849.300000
445.531783	875.600000
447.943998	868.300000
450.355579	855.700000
452.766527	867.300000
455.174787	847.400000
457.582416	825.200000
459.989412	845.000000
462.395777	826.600000
464.799459	832.200000
467.202511	804.300000
469.604933	809.500000
472.006725	806.100000
474.405839	808.500000
476.806373	785.400000
479.206278	798.800000
481.601461	789.200000
484.000109	806.400000
486.394038	824.700000
488.787341	806.100000
491.180019	811.600000
493.572070	789.900000
495.965541	752.500000
498.354299	694.200000
500.740391	686.800000
503.127903	632.500000
505.514792	613.700000
507.899016	593.400000
510.284660	582.100000
512.667642	555.000000
515.047962	525.000000
517.429702	520.300000
519.808784	513.100000
522.189283	508.200000
524.567126	488.100000
526.942312	487.900000
529.316881	483.500000
531.692869	474.200000
534.066204	453.100000
536.440956	453.100000
538.811022	429.700000
541.180474	449.000000
543.551343	424.200000
545.917531	429.700000
548.285138	425.600000
550.650099	412.900000
553.014448	418.100000
555.378183	420.700000
557.743336	421.700000
560.103817	417.100000
562.465715	407.200000
564.824974	406.000000
567.181594	421.400000
569.541660	417.900000
571.895034	404.100000
574.251853	416.700000
576.606037	377.600000
578.959612	398.300000
581.312580	389.500000
583.662915	379.800000
586.014668	387.400000
588.359744	377.700000
590.710283	372.300000
593.054150	401.000000
595.403478	399.700000
597.748157	396.700000
600.090212	376.000000
602.433684	401.800000
604.774533	367.000000
607.114779	386.200000
609.452405	401.200000
611.793466	359.700000
614.129890	345.300000
616.467730	359.200000
618.802952	381.900000
621.135559	357.800000
623.469583	356.900000
625.800992	384.800000
628.131803	337.300000
630.462016	344.300000
632.791632	358.800000
635.116624	362.500000
637.447058	330.100000
639.772871	329.300000
642.096076	333.300000
644.420698	339.900000
646.742714	333.600000
649.064136	333.100000
651.382955	334.200000
653.703191	344.000000
656.022832	303.500000
658.339874	325.900000
660.656323	312.000000
662.970174	336.200000
665.285441	298.500000
667.598111	290.700000
669.912196	308.400000
672.221681	324.400000
674.532581	313.500000
676.840889	283.600000
679.148609	295.100000
681.457744	328.700000
683.762286	321.400000
686.066242	304.900000
688.369611	296.800000
690.674396	302.600000
692.974593	291.800000
695.276206	288.300000
697.577233	268.500000
699.873679	292.900000
702.171539	293.500000
704.468817	261.300000
706.765511	276.800000
709.057629	271.400000
711.353157	296.400000
713.644113	280.800000
715.936483	294.800000
718.226277	291.800000
720.515492	303.200000
722.804127	261.600000
725.090189	284.600000
727.377665	293.300000
729.662571	291.300000
731.946899	272.300000
734.228658	285.800000
736.511831	294.100000
738.794427	294.700000
741.072467	282.100000
743.351921	307.300000
745.630800	299.200000
747.909104	311.300000
750.182857	292.200000
752.458025	282.400000
754.732619	298.300000
757.004654	319.500000
759.278102	284.800000
761.548992	301.100000
763.817326	310.700000
766.087073	312.200000
768.354265	316.700000
770.620888	329.600000
772.886940	326.700000
775.150441	302.400000
777.415354	325.600000
779.679699	328.300000
781.939513	339.800000
784.200741	312.700000
786.461401	335.700000
788.719515	336.800000
790.975084	329.600000
793.234043	324.200000
795.486504	326.400000
797.744332	321.000000
799.997641	331.800000
802.248409	292.400000
804.500591	307.900000
806.750233	320.900000
809.001287	301.100000
811.247830	311.400000
813.495786	300.500000
815.741206	319.000000
817.988039	312.300000
820.234309	289.100000
822.476076	298.000000
824.721225	290.900000
826.959903	300.900000
829.201962	295.600000
831.439523	294.500000
833.678496	302.300000
835.914942	282.900000
838.152799	276.200000
840.388131	284.000000
842.620939	275.100000
844.855159	279.500000
847.086857	275.600000
849.318000	281.100000
851.548588	256.600000
853.778622	271.600000
856.008101	259.500000
858.233100	252.600000
860.461472	263.100000
862.685366	243.700000
864.910671	270.300000
867.131500	256.000000
869.355701	266.000000
871.575429	272.100000
873.796567	274.400000
876.017155	269.700000
878.235234	278.200000
880.454722	271.900000
882.669744	265.000000
884.884218	296.400000
887.098145	274.900000
889.311524	271.200000
891.524357	276.800000
893.736642	271.600000
895.946426	271.000000
898.155664	269.700000
900.364357	271.300000
902.570550	266.700000
904.778153	260.000000
906.983259	258.100000
909.187821	261.300000
911.389888	255.100000
913.593364	244.900000
915.794346	282.400000
917.994786	267.100000
920.196635	259.300000
922.392093	274.200000
924.590909	262.400000
926.785288	289.900000
928.983024	269.800000
931.176324	273.300000
933.371033	270.700000
935.563255	284.400000
937.754940	271.100000
939.946087	268.800000
942.134751	278.600000
944.322878	287.800000
946.508525	281.200000
948.697525	300.500000
950.882100	300.600000
953.066141	319.100000
955.253533	305.900000
957.432620	300.800000
959.615058	320.800000
961.796961	322.600000
963.976391	325.200000
966.153348	323.200000
968.331713	348.500000
970.511485	352.200000
972.684907	350.800000
974.861677	366.200000
977.034039	384.100000
979.207809	363.900000
981.377175	383.500000
983.549885	376.000000
985.720130	382.700000
987.889845	397.700000
990.059032	414.100000
992.223822	378.900000
994.391954	390.700000
996.555690	420.500000
998.720834	396.700000
1000.883518	408.900000
1003.045677	401.700000
1005.205379	433.400000
1007.364556	399.400000
1009.525140	436.900000
1011.683269	425.500000
1013.840875	436.000000
1015.997956	436.200000
1018.154515	448.200000
1020.306694	461.100000
1022.460280	469.700000
1024.613344	424.600000
1026.763959	416.300000
1028.915980	495.000000
1031.063629	477.900000
1033.214609	465.100000
1035.361218	459.200000
1037.507308	482.400000
1039.652880	482.000000
1041.799857	502.900000
1043.940545	488.600000
1046.084562	504.700000
1048.226140	509.000000
1050.367200	498.300000
1052.509666	497.700000
1054.645851	520.400000
1056.785363	499.400000
1058.920519	515.200000
1061.059000	526.000000
1063.193128	500.200000
1065.326742	516.700000
1067.461760	513.200000
1069.592429	505.300000
1071.724504	521.500000
1073.854148	470.400000
1075.983281	490.400000
1078.111903	477.700000
1080.240013	467.300000
1082.365697	487.400000
1084.490871	467.000000
1086.617449	450.500000
1088.739689	445.200000
1090.863334	449.800000
1092.982644	435.800000
1095.107183	418.100000
1097.225478	431.800000
1099.345176	406.200000
1101.462457	406.900000
1103.579230	400.100000
1105.695497	384.600000
1107.809349	400.800000
1109.924604	381.500000
1112.035537	401.900000
1114.149782	374.700000
1116.259706	386.300000
1118.371033	383.900000
1120.481857	367.200000
1122.588364	385.400000
1124.698180	372.000000
1126.803682	372.000000
1128.910588	366.800000
1131.011278	361.000000
1133.117180	352.600000
1135.218773	363.700000
1137.321768	353.200000
1139.424264	346.800000
1141.520552	342.300000
1143.622047	336.500000
1145.719240	342.800000
1147.815934	322.100000
1149.912131	359.900000
1152.007829	342.500000
1154.103030	345.900000
1156.195834	345.900000
1158.290040	342.700000
1160.378055	331.800000
1162.471268	334.200000
1164.558293	334.100000
1166.648618	338.900000
1168.734654	348.800000
1170.823988	335.300000
1172.907141	337.300000
1174.991697	325.200000
1177.077654	336.900000
1179.159329	324.400000
1181.242405	320.200000
1183.323096	322.200000
1185.403296	327.900000
1187.483004	339.800000
1189.562221	334.000000
1191.639055	320.800000
1193.713509	314.500000
1195.791255	328.000000
1197.864730	343.400000
1199.939607	341.600000
1202.010216	331.500000
1204.082226	315.200000
1206.151860	328.800000
1208.222895	308.900000
1210.293442	331.900000
1212.359729	322.300000
1214.427416	311.100000
1216.492730	325.000000
1218.559445	325.900000
1220.621904	323.400000
1222.687649	321.100000
1224.749139	304.700000
1226.812029	315.500000
1228.872552	290.100000
1230.932592	309.600000
1232.992148	290.000000
1235.049340	304.500000
1237.106049	308.300000
1239.160396	301.400000
1241.218023	292.200000
1243.273288	306.300000
1245.324312	293.900000
1247.376737	302.800000
1249.428681	315.400000
1251.478267	291.500000
1253.527374	308.000000
1255.576002	324.000000
1257.624152	303.700000
1259.671824	309.900000
1261.715265	315.100000
1263.761982	316.500000
1265.806345	311.300000
1267.850231	349.400000
1269.891767	315.600000
1271.930953	311.400000
1273.973412	313.000000
1276.011648	332.400000
1278.051283	313.100000
1280.090442	338.700000
1282.125384	333.900000
1284.161724	337.300000
1286.195719	331.700000
1288.231113	349.100000
1290.262293	332.300000
1292.294872	374.700000
1294.326979	371.700000
1296.356745	364.900000
1298.387908	410.400000
1300.414864	398.900000
1302.443218	391.200000
1304.467368	404.400000
1306.494783	426.900000
1308.517995	444.500000
1310.542605	459.400000
1312.564880	459.800000
1314.588553	483.100000
1316.609893	532.200000
1318.630766	518.600000
1320.651171	533.700000
1322.667383	551.700000
1324.684992	548.800000
1326.700273	591.900000
1328.718813	588.900000
1330.733163	608.200000
1332.745188	622.300000
1334.760471	617.200000
1336.771568	630.300000
1338.784061	596.800000
1340.792372	627.700000
1342.803939	584.300000
1344.809467	591.500000
1346.818250	560.100000
1348.822855	580.500000
1350.830714	556.800000
1352.838111	536.000000
1354.839477	517.400000
1356.842239	495.200000
1358.844542	465.400000
1360.846385	460.100000
1362.847768	442.000000
1364.846837	426.500000
1366.845448	413.500000
1368.843601	426.500000
1370.841296	404.000000
1372.834828	393.500000
1374.829755	378.400000
1376.824226	373.100000
1378.818240	348.100000
1380.809947	355.400000
1382.801198	325.500000
1384.790144	328.600000
1386.780485	341.600000
1388.770372	321.400000
1390.757954	309.200000
1392.745083	340.700000
1394.729910	313.300000
1396.716132	320.600000
1398.700053	329.300000
1400.683522	317.300000
1402.666539	312.600000
1404.647258	305.400000
1406.629371	310.000000
1408.609187	293.800000
1410.588553	292.400000
1412.563780	320.600000
1414.542245	319.100000
1416.518417	302.700000
1418.494139	297.700000
1420.469412	313.600000
1422.442395	303.400000
1424.414929	322.300000
1426.387015	320.800000
1428.358653	286.600000
1430.326164	298.000000
1432.298748	289.200000
1434.263526	303.600000
1436.233377	292.000000
1438.199103	291.300000
1440.166223	300.300000
1442.131059	280.400000
1444.091775	292.500000
1446.057559	299.800000
1448.017388	285.400000
1449.978610	282.700000
1451.941225	309.300000
1453.899725	282.800000
1455.857783	292.300000
1457.815398	306.900000
1459.772572	293.400000
1461.727470	302.100000
1463.683761	287.600000
1465.637777	285.900000
1467.591352	288.700000
1469.542655	306.800000
1471.495350	294.500000
1473.445774	293.500000
1475.395759	283.700000
1477.345305	316.600000
1479.292582	294.500000
1481.237591	296.100000
1483.183993	278.800000
1485.129957	301.800000
1487.075484	289.100000
1489.018745	301.900000
1490.961570	315.500000
1492.902132	291.400000
1494.844086	283.400000
1496.783777	275.400000
1498.723033	315.700000
1500.661855	313.800000
1502.598417	291.900000
1504.536370	288.600000
1506.472064	304.400000
1508.407325	312.500000
1510.340329	318.900000
1512.272901	307.800000
1514.205041	326.500000
1516.136749	323.800000
1518.066204	336.400000
1519.997049	324.700000
1521.927462	307.100000
1523.853803	321.600000
1525.781534	322.300000
1527.707016	330.900000
1529.632068	342.700000
1531.556690	350.100000
1533.480884	351.600000
1535.402831	370.900000
1537.326167	379.600000
1539.247258	348.100000
1541.166104	396.000000
1543.086340	396.000000
1545.004332	399.600000
1546.921898	417.100000
1548.837223	442.700000
1550.753937	438.000000
1552.666595	483.000000
1554.582458	506.600000
1556.496082	495.700000
1558.407467	504.700000
1560.320242	513.900000
1562.228967	526.800000
1564.139081	565.000000
1566.048772	554.800000
1567.958040	557.100000
1569.865073	538.200000
1571.769874	571.800000
1573.676064	545.800000
1575.580023	574.000000
1577.483560	551.800000
1579.386677	541.000000
1581.287564	526.300000
1583.189840	499.600000
1585.089887	508.800000
1586.991323	475.400000
1588.888724	465.300000
1590.785708	464.400000
1592.682273	464.800000
1594.580225	459.200000
1596.472343	452.100000
1598.367655	466.000000
1600.262548	435.900000
1602.155221	413.400000
1604.047476	445.900000
1605.937512	426.000000
1607.827132	406.100000
1609.716337	400.600000
1611.605126	387.200000
1613.491699	382.900000
1615.379659	376.700000
1617.263602	372.100000
1619.148932	361.800000
1621.033849	340.900000
1622.916552	327.300000
1624.800642	325.100000
1626.680720	310.800000
1628.562185	309.200000
1630.441440	296.300000
1632.322082	310.300000
1634.196919	289.400000
1636.076737	306.000000
1637.952550	300.900000
1639.827954	272.700000
1641.704743	282.300000
1643.575735	292.200000
1645.449910	275.700000
1647.320085	270.400000
1649.193441	269.500000
1651.064594	270.800000
1652.933545	266.800000
1654.803882	294.500000
1656.670225	262.700000
1658.537955	268.400000
1660.403485	273.300000
1662.270401	278.900000
1664.133327	247.200000
1665.997640	258.600000
1667.859756	267.500000
1669.721467	252.400000
1671.584563	263.400000
1673.445465	240.400000
1675.304174	263.400000
1677.162479	251.600000
1679.022168	241.200000
1680.876091	260.800000
1682.733187	259.100000
1684.589879	267.800000
1686.442596	246.200000
1688.298484	265.400000
1690.150398	265.300000
1692.001911	255.800000
1693.853023	257.200000
1695.703734	255.100000
1697.554045	252.900000
1699.402172	254.300000
1701.251683	227.800000
1703.095444	230.500000
1704.944156	237.000000
1706.787121	228.400000
1708.633252	247.200000
1710.475422	235.500000
1712.320756	239.000000
1714.160350	265.600000
1716.001329	226.400000
1717.843690	245.900000
1719.682094	222.000000
1721.521882	244.100000
1723.359495	230.700000
1725.196713	238.900000
1727.031757	231.600000
1728.868184	227.000000
1730.702438	239.700000
1732.536299	255.500000
1734.369765	233.400000
1736.199285	240.300000
1738.031964	234.100000
1739.860699	243.200000
1741.692592	228.100000
1743.520542	249.500000
1745.348100	236.500000
1747.175267	238.700000
1749.002042	241.700000
1750.828425	229.000000
1752.650872	240.400000
1754.476474	241.500000
1756.298140	221.900000
1758.121189	230.600000
1759.942077	219.800000
1761.762575	223.400000
1763.584455	238.200000
1765.400635	238.400000
1767.219967	220.700000
1769.035372	225.600000
1770.853928	219.000000
1772.668558	196.200000
1774.482801	233.400000
1776.296658	221.100000
1778.110128	196.800000
1779.921444	251.700000
1781.734142	226.200000
1783.546453	241.300000
1785.354847	257.300000
1787.164622	227.900000
1788.970481	224.600000
1790.779487	240.800000
1792.584579	241.300000
1794.391052	225.500000
1796.197140	239.300000
1797.999319	216.900000
1799.804641	221.300000
1801.606055	237.800000
1803.408850	230.400000
1805.207738	241.500000
1807.008007	232.700000
1808.807894	234.500000
1810.605639	205.800000
1812.403004	255.400000
1814.199988	215.800000
1815.996592	235.600000
1817.791057	225.000000
1819.586902	230.000000
1821.377091	221.900000
1823.172177	236.600000
1824.961610	231.200000
1826.754181	224.800000
1828.544616	223.300000
1830.332916	217.000000
1832.124352	223.800000
1833.910143	233.400000
1835.697312	220.900000
1837.482351	230.300000
1839.270522	232.600000
1841.054808	229.800000
1842.836965	225.100000
1844.620501	210.700000
1846.401908	216.900000
1848.184693	234.800000
1849.963599	204.500000
1851.743883	225.200000
1853.522042	226.500000
1855.301578	242.700000
1857.078990	219.600000
1858.854279	221.500000
1860.630945	209.300000
1862.405489	239.100000
1864.181410	232.000000
1865.951712	240.400000
1867.725141	213.700000
1869.496450	232.500000
1871.267388	239.400000
1873.039704	214.600000
1874.806406	231.300000
1876.576233	223.600000
1878.342197	231.000000
1880.111285	227.200000
1881.876511	218.000000
1883.641369	216.400000
1885.407603	229.300000
1887.169979	223.800000
1888.931988	222.000000
1890.693630	229.400000
1892.454904	230.900000
1894.215812	236.700000
1895.976352	232.200000
1897.734784	244.500000
1899.492849	215.000000
1901.248807	221.800000
1903.006141	227.700000
1904.763110	228.400000
1906.517972	256.200000
1908.270729	240.400000
1910.023123	231.600000
1911.776893	218.600000
1913.528559	233.200000
1915.278122	228.700000
1917.029062	223.400000
1918.779638	244.000000
1920.526376	223.800000
1922.274489	236.500000
1924.020503	200.900000
1925.767893	233.300000
1927.513184	210.400000
1929.256378	225.600000
1931.000948	192.500000
1932.743421	221.600000
1934.485534	220.800000
1936.227288	202.100000
1937.968681	235.300000
1939.707981	218.900000
1941.446922	210.600000
1943.185504	229.500000
1944.921995	225.600000
1946.658127	225.400000
1948.395635	225.200000
1950.129320	229.300000
1951.864380	229.800000
1953.597351	226.800000
1955.329966	229.200000
1957.062224	246.900000
1958.794126	242.300000
1960.523943	261.600000
1962.251674	225.300000
1963.980780	219.800000
1965.709530	249.900000
1967.436197	243.400000
1969.162510	227.800000
1970.890197	250.700000
1972.612347	246.400000
1974.337598	232.300000
1976.059042	243.300000
1977.783586	233.600000
1979.506051	246.900000
1981.224712	257.300000
1982.946472	219.900000
1984.664430	231.700000
1986.383762	243.700000
1988.099294	224.800000
1989.819646	236.800000
1991.536200	246.900000
1993.248957	238.700000
1994.964810	235.400000
1996.678591	230.100000
1998.392022	242.900000
2000.103382	240.600000
2001.816114	228.600000
2003.525055	242.300000
2005.237090	241.600000
2006.943615	246.000000
2008.653233	250.900000
2010.360783	248.600000
2012.067986	242.800000
2013.773123	234.400000
2015.477913	232.300000
2017.184076	227.200000
2018.886455	227.300000
2020.590207	233.900000
2022.291896	233.300000
2023.993239	256.600000
2025.694238	249.800000
2027.393175	240.300000
2029.093484	240.900000
2030.790017	244.300000
2032.487922	238.700000
2034.183769	234.400000
2035.882701	245.500000
2037.576147	239.000000
2039.270964	218.600000
2040.965438	245.800000
2042.656144	251.900000
2044.349934	223.600000
2046.039958	258.900000
2047.731351	256.200000
2049.420692	228.300000
2051.111404	232.700000
2052.798352	215.000000
2054.484960	228.600000
2056.172939	255.600000
2057.857158	235.600000
2059.542747	237.200000
2061.227997	230.700000
2062.911199	246.200000
2064.595771	234.000000
2066.274879	241.800000
2067.958774	239.700000
2069.637207	239.300000
2071.318718	226.500000
2072.996477	232.500000
2074.673900	236.500000
2076.352692	250.700000
2078.029441	237.100000
2079.704149	220.400000
2081.380227	243.400000
2083.054263	231.600000
2084.727964	247.500000
2086.401331	249.200000
2088.072658	217.200000
2089.743651	237.300000
2091.414310	223.700000
2093.084635	240.600000
2094.754626	234.800000
2096.422580	256.300000
2098.090202	242.300000
2099.755790	234.700000
2101.422746	233.400000
2103.087669	236.000000
2104.752260	227.300000
2106.414819	253.200000
2108.078746	247.100000
2109.740642	228.700000
2111.402207	241.600000
2113.063442	234.300000
2114.722647	246.000000
2116.381523	243.600000
2118.040068	233.900000
2119.698284	240.800000
2121.352777	254.900000
2123.010334	220.300000
2124.667561	248.800000
2126.321068	247.100000
2127.975942	235.100000
2129.627097	253.700000
2131.281315	235.300000
2132.931815	231.100000
2134.583683	248.900000
2136.230142	243.800000
2137.881355	233.500000
2139.528856	236.400000
2141.177723	224.200000
2142.824571	238.500000
2144.471094	222.100000
2146.117291	222.300000
2147.759779	220.200000
2149.405326	258.700000
2151.047166	232.900000
2152.692063	238.900000
2154.333255	254.000000
2155.974123	236.700000
2157.614668	234.300000
2159.253200	210.500000
2160.893098	223.400000
2162.529296	240.700000
2164.166860	236.000000
2165.804102	244.600000
2167.439334	233.200000
2169.074244	236.100000
2170.708833	240.000000
2172.343101	228.200000
2173.973675	246.400000
2175.607301	237.600000
2177.237234	251.000000
2178.868534	234.300000
2180.497828	242.300000
2182.126803	246.600000
2183.755458	235.300000
2185.383794	235.900000
2187.010127	239.400000
2188.636142	258.200000
2190.260156	215.700000
2191.885535	237.100000
2193.508913	240.200000
2195.133656	243.400000
2196.754718	224.100000
2198.375463	246.100000
2199.997572	247.500000
2201.617684	224.500000
2203.235800	252.100000
2204.853600	249.800000
2206.471084	245.200000
2208.088253	221.300000
2209.705107	250.500000
2211.321646	246.100000
2212.936191	218.800000
2214.548745	229.200000
2216.162662	214.900000
2217.774588	228.900000
2219.387877	218.800000
2220.999175	242.700000
2222.608485	251.000000
2224.219157	224.400000
2225.827841	250.600000
2227.436213	235.800000
2229.042598	236.000000
2230.650345	231.800000
2232.256107	227.000000
2233.861557	214.400000
2235.465022	254.700000
2237.069850	250.100000
2238.672694	222.800000
2240.273555	241.000000
2241.875779	252.900000
2243.476021	234.500000
2245.077625	238.500000
2246.675576	269.800000
2248.274890	240.500000
2249.872224	241.400000
2251.469250	228.400000
2253.067637	258.200000
2254.662377	236.800000
2256.255139	233.700000
2257.849264	241.700000
2259.444750	244.300000
2261.036591	220.300000
2262.628126	242.500000
2264.221022	239.600000
2265.808609	248.100000
2267.400893	231.400000
2268.987869	245.700000
2270.577874	229.100000
2272.162574	230.000000
2273.751968	216.200000
2275.336059	241.800000
2276.921512	212.000000
2278.504996	243.800000
2280.091505	211.100000
2281.674381	247.800000
2283.256954	227.200000
2284.839223	243.000000
2286.417862	242.800000
2287.999526	237.600000
2289.577561	225.200000
2291.158619	230.600000
2292.736050	226.100000
2294.311518	221.600000
2295.890008	226.200000
2297.464874	237.100000
2299.039439	236.300000
2300.613703	224.700000
2302.187667	244.900000
2303.761331	250.800000
2305.334695	230.200000
2306.904439	237.700000
2308.473886	233.900000
2310.046350	232.000000
2311.613540	219.000000
2313.183747	244.300000
2314.750341	220.300000
2316.318293	228.700000
2317.884291	221.400000
2319.449991	224.000000
2321.015393	235.600000
2322.578842	233.100000
2324.143650	260.800000
2325.704849	275.700000
2327.269063	281.100000
2328.828016	299.500000
2330.389982	284.000000
2331.949998	262.300000
2333.509718	243.900000
2335.067489	239.600000
2336.624966	240.800000
2338.182148	259.000000
2339.737382	240.300000
2341.292322	222.300000
2342.846969	227.900000
2344.401322	204.500000
2345.955381	234.300000
2347.509147	226.500000
2349.060968	229.700000
2350.610846	245.000000
2352.163733	255.300000
2353.711376	227.600000
2355.262027	216.300000
2356.809088	244.800000
2358.357506	236.800000
2359.905632	244.200000
2361.450171	244.400000
2362.996067	253.000000
2364.540024	230.900000
2366.085339	232.100000
2367.627069	241.600000
2369.170157	215.900000
2370.711308	228.300000
2372.252170	232.400000
2373.792743	247.100000
2375.333027	239.000000
2376.873022	218.500000
2378.409438	224.500000
2379.948856	234.800000
2381.484697	232.900000
2383.021895	241.200000
2384.555517	242.000000
2386.092139	228.400000
2387.626831	241.800000
2389.159592	250.100000
2390.692068	242.000000
2392.222615	209.400000
2393.756160	227.000000
2395.284494	248.000000
2396.814184	248.700000
2398.343589	240.500000
2399.872709	255.000000
2401.401543	241.000000
2402.925173	240.900000
2404.453438	238.200000
2405.976500	232.500000
2407.504197	257.200000
2409.025054	255.000000
2410.550543	235.900000
2412.072473	257.700000
2413.595757	274.800000
2415.117121	245.100000
2416.636565	246.300000
2418.157364	252.500000
2419.676244	243.700000
2421.194843	252.500000
2422.711523	235.100000
2424.229559	261.500000
2425.747313	254.200000
2427.261515	245.400000
2428.775438	254.800000
2430.289080	239.000000
2431.804076	265.500000
2433.315525	242.700000
2434.828327	244.700000
2436.339217	238.300000
2437.849828	250.000000
2439.358527	257.400000
2440.870212	247.100000
2442.378354	237.900000
2443.886218	255.400000
2445.393803	233.200000
2446.897849	215.800000
2448.404879	250.900000
2449.910001	232.800000
2451.414846	238.600000
2452.917784	242.600000
2454.420445	218.900000
2455.922831	234.200000
2457.423310	225.100000
2458.925143	233.700000
2460.425072	234.200000
2461.924725	221.300000
2463.424103	229.100000
2464.921578	240.300000
2466.417151	222.800000
2467.915704	247.700000
2469.410729	230.900000
2470.907106	228.300000
2472.399957	240.800000
2473.894161	237.800000
2475.388091	240.000000
2476.878497	213.200000
2478.371881	251.000000
2479.863367	206.700000
2481.352956	234.800000
2482.842273	200.400000
2484.329694	241.700000
2485.820091	242.500000
2487.306969	241.800000
2488.795200	226.200000
2490.279913	242.400000
2491.764356	222.400000
2493.250151	237.700000
2494.734054	225.800000
2496.219307	240.900000
2497.699427	233.100000
2499.182519	232.800000
2500.663722	232.800000
2502.144655	248.300000
2503.623698	225.300000
2505.102474	217.000000
2506.580981	244.300000
2508.059219	228.000000
2509.537190	228.800000
2511.011655	221.500000
2512.489089	230.700000
2513.963020	228.700000
2515.438302	245.400000
2516.913316	218.100000
2518.384829	245.700000
2519.857693	218.500000
2521.328674	218.500000
2522.801005	220.600000
2524.268222	248.200000
2525.738406	231.800000
2527.206709	214.400000
2528.674746	232.400000
2530.142519	237.400000
2531.610027	231.100000
2533.077271	245.100000
2534.541022	229.500000
2536.006123	225.700000
2537.469347	237.100000
2538.933920	255.800000
2540.395005	225.800000
2541.857439	230.600000
2543.319610	253.100000
2544.778294	235.100000
2546.241551	243.200000
2547.699711	231.100000
2549.159220	221.700000
2550.613636	236.000000
2552.072622	253.800000
2553.529735	229.000000
2554.984978	234.600000
2556.439960	236.100000
2557.893072	252.200000
2559.347533	234.600000
2560.800125	241.900000
2562.252457	219.400000
2563.702921	232.000000
2565.156342	228.100000
2566.604680	237.200000
2568.055973	236.200000
2569.505400	238.700000
2570.951356	261.900000
2572.400266	235.400000
2573.845705	231.300000
2575.292493	237.600000
2576.737417	263.300000
2578.182084	270.700000
2579.628098	238.600000
2581.070645	243.700000
2582.514540	237.400000
2583.954970	243.400000
2585.396748	233.900000
2586.836666	265.100000
2588.277931	238.500000
2589.715734	243.700000
2591.156487	249.000000
2592.592177	262.300000
2594.030817	221.200000
2595.467600	225.500000
2596.902527	241.000000
2598.340401	248.100000
2599.773218	254.600000
2601.207382	247.500000
2602.639691	241.500000
2604.073348	253.300000
2605.505150	265.400000
2606.936700	255.400000
2608.367996	243.900000
2609.797441	239.900000
2611.226633	239.400000
2612.653974	279.100000
2614.082662	260.900000
2615.511097	265.300000
2616.936086	246.000000
2618.362420	242.600000
2619.786907	268.900000
2621.212738	288.100000
2622.635126	269.900000
2624.058860	261.900000
2625.480748	255.900000
2626.902385	284.000000
2628.322178	276.900000
2629.743316	273.800000
2631.164204	257.900000
2632.581653	271.800000
2634.002042	268.400000
2635.418994	278.000000
2636.835698	277.500000
2638.252153	269.200000
2639.668360	287.400000
2641.084319	295.000000
2642.498437	297.600000
2643.912307	304.700000
2645.324338	296.000000
2646.737714	286.000000
2648.147660	292.300000
2649.560542	294.600000
2650.969995	303.600000
2652.379202	312.400000
2653.786573	300.700000
2655.196878	308.300000
2656.605347	312.200000
2658.011981	311.800000
2659.418370	283.600000
2660.822926	306.200000
2662.228825	310.300000
2663.632890	309.000000
2665.036712	324.200000
2666.440289	301.800000
2667.842035	308.700000
2669.245124	319.300000
2670.644795	289.200000
2672.045810	314.800000
2673.443409	315.000000
2674.843937	306.400000
2676.241051	317.200000
2677.639508	289.100000
2679.036137	299.800000
2680.432525	296.100000
2681.828670	324.800000
2683.222989	311.400000
2684.618651	283.500000
2686.010904	306.800000
2687.404499	295.200000
2688.796270	304.000000
2690.189384	280.700000
2691.580673	295.100000
2692.970140	293.900000
2694.359368	304.900000
2695.748355	287.400000
2697.138685	291.600000
2698.524031	284.100000
2699.912300	287.200000
2701.298749	277.600000
2702.684959	286.200000
2704.070930	267.900000
2705.453503	274.700000
2706.837418	260.800000
2708.221094	264.000000
2709.604533	272.600000
2710.984576	249.800000
2712.365961	264.500000
2713.745530	273.700000
2715.126441	250.400000
2716.505537	247.700000
2717.882819	244.600000
2719.261442	268.800000
2720.638251	244.900000
2722.014825	227.000000
2723.391163	257.300000
2724.765689	253.100000
2726.141556	247.700000
2727.514036	244.400000
2728.889433	242.000000
2730.259869	249.100000
2731.631645	240.400000
2733.003188	236.800000
2734.372922	247.700000
2735.743996	264.400000
2737.113263	244.600000
2738.482296	256.000000
2739.849522	245.700000
2741.216516	254.900000
2742.583277	219.500000
2743.949805	235.600000
2745.314529	223.400000
2746.679020	218.900000
2748.043279	240.300000
2749.407307	235.900000
2750.771102	233.600000
2752.131525	249.100000
2753.494857	229.500000
2754.853247	218.500000
2756.214547	221.900000
2757.572476	198.400000
2758.933315	221.900000
2760.292353	215.700000
2761.648023	223.000000
2763.006602	216.900000
2764.361813	244.400000
2765.716795	238.700000
2767.069980	236.800000
2768.426072	218.200000
2769.778800	202.300000
2771.131299	232.800000
2772.483571	218.900000
2773.837180	228.000000
2775.187428	225.100000
2776.535883	215.500000
2777.887242	228.700000
2779.235242	221.200000
2780.584581	217.100000
2781.932127	233.300000
2783.279447	223.600000
2784.626539	230.800000
2785.971841	195.000000
2787.316917	202.400000
2788.661767	214.400000
2790.006391	213.300000
2791.347662	209.000000
2792.690272	206.300000
2794.032657	219.700000
2795.374816	207.400000
2796.713626	213.900000
2798.055336	213.900000
2799.393697	213.000000
2800.733396	230.900000
2802.071309	213.900000
2803.407438	228.000000
2804.743344	224.900000
2806.080586	220.700000
2807.416045	220.700000
2808.751281	232.800000
2810.084735	223.600000
2811.419525	225.900000
2812.750974	213.800000
2814.085319	225.000000
2815.414766	203.900000
2816.745550	233.100000
2818.076112	191.000000
2819.404895	205.200000
2820.735015	212.800000
2822.063356	236.800000
2823.391475	218.200000
2824.717818	212.500000
2826.045496	204.200000
2827.369842	226.900000
2828.695524	207.000000
2830.019430	205.700000
2831.343116	216.800000
2832.668138	222.700000
2833.989831	194.600000
2835.311304	213.300000
2836.632559	231.100000
2837.953595	213.600000
2839.272859	220.900000
2840.593458	201.100000
2841.912285	190.200000
2843.230894	197.100000
2844.547733	199.800000
2845.864354	206.400000
2847.180758	215.200000
2848.495392	206.000000
2849.811361	202.500000
2851.124011	215.500000
2852.437995	224.000000
2853.751763	198.400000
2855.065314	203.400000
2856.377099	221.400000
2857.687117	209.100000
2858.998470	211.600000
2860.306508	208.300000
2861.615880	215.200000
2862.925037	198.100000
2864.233979	213.600000
2865.541158	210.000000
2866.846573	216.900000
2868.153323	214.400000
2869.458311	198.900000
2870.763084	209.400000
2872.066097	212.300000
2873.371990	209.300000
2874.673029	209.700000
2875.975401	203.100000
2877.276015	205.300000
2878.577961	194.700000
2879.879695	205.400000
2881.178125	193.000000
2882.477888	218.800000
2883.775894	218.500000
2885.073688	213.300000
2886.369725	206.900000
2887.667096	214.900000
2888.962712	218.100000
2890.258116	215.400000
2891.553309	212.900000
2892.845204	230.200000
2894.139976	203.600000
2895.431452	210.100000
2896.724260	215.600000
2898.016858	204.600000
2899.306161	224.300000
2900.596798	233.600000
2901.885683	212.200000
2903.175900	206.400000
2904.462826	223.000000
2905.751084	229.300000
2907.037593	202.000000
2908.323893	209.400000
2909.609985	217.300000
2910.894329	211.200000
2912.181545	204.500000
2913.463934	217.400000
2914.747655	224.500000
2916.029629	232.100000
2917.311397	241.400000
2918.591419	208.200000
2919.874311	209.400000
2921.155458	210.200000
2922.433323	218.000000
2923.714057	209.700000
2924.991510	221.600000
2926.268758	195.900000
2927.544263	196.600000
2928.822636	201.500000
2930.096195	217.000000
2931.372621	202.600000
2932.647305	201.400000
2933.920250	211.400000
2935.194526	201.600000
2936.467061	207.700000
2937.739393	198.600000
2939.008452	210.300000
2940.280376	216.900000
2941.550562	224.400000
2942.820544	211.300000
2944.090323	225.700000
2945.358365	190.400000
2946.624672	210.600000
2947.890776	195.700000
2949.158211	198.300000
2950.423910	192.400000
2951.689407	203.600000
2952.954703	218.400000
2954.216733	206.600000
2955.480093	192.100000
2956.743252	193.000000
2958.004678	197.700000
2959.267435	209.500000
2960.528459	203.500000
2961.787753	194.100000
2963.046846	217.200000
2964.305739	195.000000
2965.564432	194.600000
2966.822925	204.400000
2968.079689	209.200000
2969.336254	191.300000
2970.591090	197.400000
2971.847256	194.300000
2973.100166	211.200000
2974.354406	199.200000
2975.608447	203.000000
2976.860762	184.200000
2978.112879	185.200000
2979.363271	209.200000
2980.616518	223.300000
2981.864988	193.900000
2983.116313	189.300000
2984.364388	184.300000
2985.612266	194.300000
2986.859948	183.300000
2988.107432	201.300000
2989.353195	190.300000
2990.598761	173.100000
2991.845656	185.600000
2993.089306	186.900000
2994.334283	196.100000
2995.576018	189.000000
2996.820604	189.600000
2998.063471	172.800000
2999.303097	211.800000
3000.545573	174.500000
3001.784809	199.900000
3003.025373	178.500000
3004.264220	211.300000
3005.502873	182.000000
3006.739810	196.900000
3007.978075	178.700000
3009.214624	183.800000
3010.450980	177.300000
3011.687142	190.300000
3012.921590	184.800000
3014.155845	183.900000
3015.389907	183.000000
3016.622257	184.500000
3017.852895	175.800000
3019.086379	195.400000
3020.318152	187.000000
3021.548213	183.300000
3022.778083	178.200000
3024.006243	178.400000
3025.235730	176.100000
3026.463507	200.700000
3027.691093	214.900000
3028.920005	188.800000
3030.144175	180.500000
3031.371188	191.300000
3032.594978	206.500000
3033.820093	181.300000
3035.043503	180.200000
3036.266722	197.500000
3037.488236	184.000000
3038.712591	179.100000
3039.932211	185.800000
3041.153157	188.900000
3042.373913	164.500000
3043.592967	185.600000
3044.813345	191.900000
3046.030507	184.500000
3047.248994	191.500000
3048.465780	170.000000
3049.682377	176.600000
3050.898787	191.900000
3052.111983	178.800000
3053.328017	196.400000
3054.540839	184.700000
3055.756498	174.400000
3056.967434	183.800000
3058.179696	188.900000
3059.391770	195.300000
3060.603658	179.700000
3061.813849	188.100000
3063.023853	186.300000
3064.233671	168.900000
3065.441793	180.800000
3066.649730	184.500000
3067.855971	193.800000
3069.063537	185.400000
3070.269408	180.400000
3071.475094	175.400000
3072.680596	191.900000
3073.884404	174.900000
3075.089536	188.800000
3076.292975	168.300000
3077.494722	175.700000
3078.696286	165.400000
3079.897666	188.500000
3081.098862	188.400000
3082.298368	182.700000
3083.497691	188.800000
3084.698337	182.900000
3085.897293	186.100000
3087.093054	162.000000
3088.291645	173.400000
3089.487042	200.100000
3090.683763	169.400000
3091.877291	183.600000
3093.073647	181.000000
3094.268316	192.000000
3095.459795	181.200000
3096.655605	176.100000
3097.846722	184.000000
3099.039162	190.000000
3100.228413	184.200000
3101.420491	178.300000
3102.610885	162.600000
3103.798093	165.300000
3104.986623	191.800000
3106.176476	171.900000
3107.363144	179.500000
3108.549633	179.800000
3109.735943	198.100000
3110.923574	180.600000
3112.108023	181.800000
3113.290793	178.900000
3114.476385	161.700000
3115.660298	180.900000
3116.842531	181.200000
3118.024587	176.500000
3119.206464	181.500000
3120.388163	186.100000
3121.568185	173.600000
3122.746530	195.000000
3123.927695	162.000000
3125.105685	165.300000
3126.283498	174.300000
3127.461134	194.600000
3128.637095	172.000000
3129.812880	147.800000
3130.989985	175.900000
3132.165417	177.000000
3133.339175	162.600000
3134.511260	176.700000
3135.684666	187.200000
3136.857897	182.800000
3138.029456	174.000000
3139.202335	184.900000
3140.372047	177.700000
3141.543080	193.000000
3142.712442	184.100000
3143.880135	160.900000
3145.050643	178.400000
3146.216492	158.400000
3147.386651	167.100000
3148.552152	176.000000
3149.717480	161.100000
3150.882634	186.200000
3152.047615	158.900000
3153.213915	165.300000
3154.375562	171.100000
3155.538530	167.600000
3156.701325	174.900000
3157.863946	152.700000
3159.024903	161.800000
3160.185688	184.700000
3161.346300	172.800000
3162.505248	152.500000
3163.664024	182.700000
3164.822629	173.800000
3165.981062	153.100000
3167.139323	168.500000
3168.295923	161.800000
3169.450861	158.900000
3170.607118	168.400000
3171.761714	165.000000
3172.916140	166.200000
3174.068905	159.900000
3175.221501	144.300000
3176.373927	173.600000
3177.526182	167.900000
3178.678268	171.100000
3179.827207	157.500000
3180.978953	170.400000
3182.129042	177.000000
3183.277473	203.900000
3184.425736	157.200000
3185.573830	158.300000
3186.721755	160.100000
3187.868024	160.800000
3189.014125	171.000000
3190.158572	174.300000
3191.302850	174.200000
3192.446961	174.900000
3193.592390	163.800000
3194.734680	182.300000
3195.876802	159.900000
3197.018758	167.300000
3198.160546	154.700000
3199.302167	173.200000
3200.440653	158.300000
3201.580456	184.100000
3202.721576	164.400000
3203.859563	184.300000
3204.995899	150.100000
3206.132071	159.800000
3207.269559	168.900000
3208.405399	166.100000
3209.542556	161.800000
3210.675100	201.600000
3211.811925	175.600000
3212.944140	160.700000
3214.077671	177.900000
3215.211037	158.100000
3216.341277	158.800000
3217.474314	165.600000
3218.604224	168.900000
3219.735452	167.400000
3220.863554	146.600000
3221.994454	153.400000
3223.123709	156.000000
3224.251321	143.600000
3225.375810	156.000000
3226.504575	142.700000
3227.630218	154.400000
3228.755698	136.500000
3229.879537	149.600000
3231.006171	133.700000
3232.128207	155.600000
3233.251559	162.100000
3234.374748	151.000000
3235.497776	156.600000
3236.619164	152.700000
3237.740391	160.800000
3238.859979	144.700000
3239.979406	141.000000
3241.097196	152.300000
3242.217777	158.400000
3243.335245	147.200000
3244.452552	150.500000
3245.569699	165.400000
3246.685209	162.600000
3247.802035	161.600000
3248.915750	170.700000
3250.032256	162.400000
3251.147126	170.600000
3252.258888	163.000000
3253.370491	160.000000
3254.483409	148.100000
3255.596167	147.600000
3256.705819	150.500000
3257.816786	157.000000
3258.927594	155.100000
3260.036770	159.300000
3261.144315	152.200000
3262.253175	135.900000
3263.361876	142.700000
3264.467475	142.200000
3265.574389	169.900000
3266.679673	171.400000
3267.786271	164.400000
3268.889769	153.700000
3269.994581	139.800000
3271.099236	130.100000
3272.200793	147.700000
3273.302193	176.200000
3274.404907	146.600000
3275.507465	160.700000
3276.606926	138.500000
3277.709171	154.300000
3278.808320	172.700000
3279.905844	151.500000
3281.003214	151.500000
3282.103365	158.400000
3283.200424	157.700000
3284.297327	164.700000
3285.394075	173.800000
3286.486264	161.900000
3287.582703	146.000000
3288.677519	163.500000
3289.772180	147.200000
3290.865220	165.800000
3291.958106	142.400000
3293.049371	145.900000
3294.141949	156.200000
3295.232907	154.600000
3296.322245	145.400000
3297.411430	150.100000
3298.501927	149.700000
3299.589340	154.300000
3300.676601	143.300000
3301.765174	142.000000
3302.853594	148.800000
3303.937468	147.900000
3305.025582	146.000000
3306.110616	172.400000
3307.194034	172.000000
3308.278764	171.700000
3309.361878	155.600000
3310.446304	155.500000
3311.527653	171.500000
3312.610313	145.800000
3313.691358	141.100000
3314.772253	149.900000
3315.851535	149.500000
3316.930666	169.000000
3318.011109	151.000000
3319.088477	142.900000
3320.167157	160.300000
3321.244225	145.400000
3322.321143	147.500000
3323.396451	155.000000
3324.471609	134.600000
3325.548078	140.200000
3326.621476	143.500000
3327.694726	153.900000
3328.769287	161.400000
3329.842239	158.700000
3330.913582	144.900000
3331.986236	165.800000
3333.055823	138.800000
3334.126721	147.600000
3335.196013	142.800000
3336.266614	131.500000
3337.335609	144.600000
3338.402999	153.700000
3339.468783	138.100000
3340.538793	152.400000
3341.605739	157.300000
3342.669625	116.900000
3343.736277	147.500000
3344.801326	157.700000
3345.864771	146.400000
3346.928070	141.800000
3347.991222	129.200000
3349.054228	176.000000
3350.117088	150.100000
3351.178345	151.600000
3352.236546	168.400000
3353.298968	162.900000
3354.358334	146.600000
3355.417554	133.900000
3356.478083	128.700000
3357.534104	152.000000
3358.592888	179.000000
3359.647165	139.000000
3360.704206	137.200000
3361.759648	161.200000
3362.816399	145.000000
3363.871553	161.300000
3364.925109	134.200000
3365.977068	135.500000
3367.031790	155.700000
3368.083462	145.900000
3369.134990	142.900000
3370.187828	170.800000
3371.237618	163.500000
3372.288717	158.500000
3373.336769	148.700000
3374.387582	171.500000
3375.435349	152.000000
3376.482974	166.100000
3377.530457	182.600000
3378.576347	147.000000
3379.623545	153.200000
3380.667700	154.300000
3381.714614	128.100000
3382.759937	149.800000
3383.802218	171.600000
3384.844358	149.300000
3385.887807	145.200000
3386.931114	138.200000
3387.972831	149.400000
3389.014408	154.600000
3390.055843	130.400000
3391.095690	153.800000
3392.133948	156.800000
3393.173514	152.200000
3394.212940	142.600000
3395.250778	144.900000
3396.287029	151.100000
3397.323140	153.300000
3398.360559	160.900000
3399.394945	141.900000
3400.430639	154.700000
3401.466193	145.100000
3402.498715	127.700000
3403.533991	165.000000
3404.566237	158.900000
3405.598343	167.300000
3406.628867	127.300000
3407.660697	151.900000
3408.692389	141.400000
3409.721053	146.900000
3410.749580	149.500000
3411.779413	164.100000
3412.809109	142.800000
3413.835779	144.500000
3414.863755	138.200000
3415.888707	159.300000
3416.916410	143.200000
3417.941088	146.200000
3418.967073	141.900000
3419.991479	138.200000
3421.015748	154.800000
3422.038438	141.100000
3423.060992	143.400000
3424.084852	146.900000
3425.105692	143.400000
3426.126396	154.600000
3427.148406	142.800000
3428.167398	148.700000
3429.186255	150.300000
3430.206418	158.500000
3431.223564	151.500000
