-118.033050	-0.700000
-115.363449	13.000000
-112.696784	-0.600000
-110.030871	11.000000
-107.367891	-12.700000
-104.703480	-2.800000
-102.042000	-13.500000
-99.379091	12.000000
-96.721288	-9.200000
-94.062056	1.100000
-91.403572	-4.900000
-88.748013	6.600000
-86.091024	4.300000
-83.439134	-0.200000
-80.785814	1.400000
-78.135413	23.300000
-75.483584	14.300000
-72.836845	18.200000
-70.188676	21.800000
-67.541250	-11.100000
-64.896739	5.600000
-62.250798	11.100000
-59.609939	-7.800000
-56.967651	9.900000
-54.328272	-5.000000
-51.687464	25.400000
-49.047395	24.700000
-46.412400	-11.300000
-43.775975	18.700000
-41.142453	-8.800000
-38.507503	9.200000
-35.877619	16.500000
-33.244141	19.500000
-30.615726	23.100000
-27.988045	8.800000
-25.358935	6.200000
-22.734883	40.800000
-20.107240	31.700000
-17.484652	22.100000
-14.862794	63.100000
-12.241667	104.300000
-9.621271	320.100000
-7.003762	1014.800000
-4.384825	3257.400000
-1.768774	7743.700000
0.846550	9599.400000
3.461145	4972.100000
6.072859	546.700000
8.686000	80.800000
11.294109	47.600000
13.905798	18.700000
16.512457	21.400000
19.120545	31.300000
21.727907	30.700000
24.330245	8.300000
26.936161	29.600000
29.537056	13.100000
32.139378	5.600000
34.736682	8.300000
37.337563	8.000000
39.933428	-0.700000
42.530721	4.200000
45.127295	5.000000
47.718860	11.500000
50.311854	-15.500000
52.901986	16.400000
55.493545	6.000000
58.082246	15.300000
60.672373	15.700000
63.257501	5.700000
65.844057	-3.400000
68.429898	-3.000000
71.012886	-9.200000
73.597301	-2.700000
76.174586	-9.300000
78.755438	10.300000
81.333441	1.300000
83.910734	0.200000
86.489454	15.400000
89.063191	-5.600000
91.638355	4.700000
94.210676	10.600000
96.782290	6.700000
99.351063	-5.000000
101.921263	3.400000
104.488624	16.500000
107.057412	0.700000
109.623363	23.900000
112.186479	9.700000
114.753151	26.100000
117.310601	5.500000
119.873737	22.800000
122.431914	36.300000
124.993645	60.400000
127.550419	76.300000
130.108619	129.800000
132.661867	175.900000
135.214417	285.200000
137.770517	392.800000
140.321669	539.000000
142.872124	603.500000
145.421881	700.000000
147.968819	765.900000
150.515062	809.100000
153.062730	838.900000
155.609702	848.400000
158.151738	840.600000
160.693082	819.500000
163.233732	847.300000
165.775807	829.800000
168.315072	786.600000
170.851527	841.100000
173.387292	820.600000
175.924482	823.200000
178.460981	803.800000
180.994674	809.200000
183.525563	810.100000
186.055764	807.600000
188.587391	812.100000
191.116216	809.800000
193.642242	780.800000
196.167582	810.600000
198.694347	788.500000
201.218316	797.500000
203.741599	790.900000
206.264198	810.900000
208.784004	805.700000
211.303127	806.400000
213.821567	782.900000
216.341432	795.500000
218.854294	819.300000
221.370688	844.300000
223.886401	782.900000
226.397223	802.700000
228.909470	798.600000
231.418934	829.500000
233.927720	814.900000
236.435828	813.900000
238.945360	799.900000
241.450011	833.100000
243.953986	805.300000
246.459385	824.000000
248.959909	840.000000
251.463956	832.200000
253.961033	824.700000
256.461632	844.600000
258.959460	857.500000
261.456615	842.700000
263.953098	838.400000
266.444717	845.200000
268.939856	847.600000
271.432228	848.500000
273.923930	867.500000
276.412869	863.100000
278.903231	855.600000
281.390832	864.900000
283.875673	848.300000
286.364029	909.700000
288.845445	905.000000
291.330375	892.600000
293.810459	883.800000
296.294056	879.100000
298.772811	905.000000
301.252988	910.800000
303.730414	910.900000
306.207176	873.800000
308.683274	919.300000
311.156624	952.700000
313.629313	967.700000
316.101340	1063.500000
318.572705	1172.600000
321.041327	1204.600000
323.509289	1217.500000
325.978674	1096.400000
328.443236	1064.100000
330.911302	987.200000
333.374547	977.900000
335.837136	978.300000
338.299068	976.600000
340.760343	968.400000
343.218883	972.100000
345.678846	947.000000
348.136077	975.300000
350.592653	970.200000
353.048575	966.400000
355.501767	961.300000
357.956382	962.000000
360.406195	971.300000
362.859504	940.900000
365.308014	947.300000
367.755874	940.500000
370.205156	956.700000
372.649643	967.500000
375.095553	949.000000
377.540814	953.000000
379.983356	946.500000
382.425250	931.100000
384.866496	966.800000
387.305028	949.700000
389.744980	957.300000
392.182219	950.400000
394.616746	944.200000
397.054761	968.800000
399.488000	933.300000
401.922659	965.900000
404.352546	945.600000
406.785918	977.600000
409.214520	935.900000
411.642480	958.200000
414.071861	940.800000
416.496478	966.600000
418.922515	986.400000
421.347913	947.200000
423.772670	958.700000
426.192668	979.800000
428.614088	985.000000
431.032811	953.300000
433.452955	988.900000
435.870404	983.100000
438.289274	966.900000
440.705449	978.600000
443.116878	940.500000
445.531783	969.800000
447.943998	998.800000
450.355579	957.300000
452.766527	991.400000
455.174787	971.700000
457.582416	933.300000
459.989412	956.500000
462.395777	920.100000
464.799459	931.400000
467.202511	929.100000
469.604933	923.100000
472.006725	937.900000
474.405839	905.600000
476.806373	919.200000
479.206278	900.600000
481.601461	899.900000
484.000109	916.800000
486.394038	950.200000
488.787341	916.300000
491.180019	914.100000
493.572070	901.700000
495.965541	853.100000
498.354299	810.100000
500.740391	802.700000
503.127903	763.600000
505.514792	727.500000
507.899016	713.300000
510.284660	687.500000
512.667642	682.900000
515.047962	642.700000
517.429702	644.500000
519.808784	653.700000
522.189283	611.600000
524.567126	599.800000
526.942312	622.500000
529.316881	580.800000
531.692869	574.100000
534.066204	579.200000
536.440956	567.600000
538.811022	572.300000
541.180474	563.800000
543.551343	549.400000
545.917531	539.100000
548.285138	568.900000
550.650099	561.000000
553.014448	542.500000
555.378183	556.300000
557.743336	542.500000
560.103817	525.000000
562.465715	524.200000
564.824974	550.200000
567.181594	538.300000
569.541660	543.400000
571.895034	522.100000
574.251853	524.500000
576.606037	520.800000
578.959612	493.200000
581.312580	525.700000
583.662915	513.500000
586.014668	495.000000
588.359744	476.000000
590.710283	516.100000
593.054150	509.000000
595.403478	528.500000
597.748157	490.400000
600.090212	513.000000
602.433684	482.000000
604.774533	516.300000
607.114779	525.000000
609.452405	485.800000
611.793466	491.100000
614.129890	475.000000
616.467730	478.900000
618.802952	516.000000
621.135559	465.400000
623.469583	469.800000
625.800992	501.200000
628.131803	462.300000
630.462016	451.300000
632.791632	469.300000
635.116624	473.300000
637.447058	479.900000
639.772871	437.700000
642.096076	464.500000
644.420698	468.600000
646.742714	452.200000
649.064136	458.700000
651.382955	459.300000
653.703191	466.100000
656.022832	455.200000
658.339874	452.000000
660.656323	448.700000
662.970174	438.600000
665.285441	417.100000
667.598111	413.300000
669.912196	427.800000
672.221681	423.200000
674.532581	422.000000
676.840889	433.400000
679.148609	428.000000
681.457744	440.100000
683.762286	444.200000
686.066242	410.400000
688.369611	408.900000
690.674396	412.200000
692.974593	416.100000
695.276206	417.300000
697.577233	422.600000
699.873679	406.200000
702.171539	415.200000
704.468817	409.900000
706.765511	417.200000
709.057629	392.900000
711.353157	422.300000
713.644113	404.600000
715.936483	413.800000
718.226277	402.200000
720.515492	406.300000
722.804127	386.500000
725.090189	420.400000
727.377665	419.200000
729.662571	421.300000
731.946899	415.900000
734.228658	413.300000
736.511831	450.400000
738.794427	429.900000
741.072467	408.800000
743.351921	426.000000
745.630800	435.000000
747.909104	430.100000
750.182857	424.700000
752.458025	415.800000
754.732619	437.500000
757.004654	440.100000
759.278102	440.900000
761.548992	443.900000
763.817326	432.200000
766.087073	435.200000
768.354265	428.100000
770.620888	445.400000
772.886940	448.100000
775.150441	470.100000
777.415354	461.100000
779.679699	453.700000
781.939513	463.500000
784.200741	446.800000
786.461401	455.500000
788.719515	471.100000
790.975084	439.500000
793.234043	467.700000
795.486504	456.700000
797.744332	470.600000
799.997641	456.900000
802.248409	447.100000
804.500591	450.200000
806.750233	476.100000
809.001287	440.700000
811.247830	459.100000
813.495786	440.700000
815.741206	454.600000
817.988039	444.000000
820.234309	422.100000
822.476076	435.500000
824.721225	445.900000
826.959903	403.900000
829.201962	437.900000
831.439523	413.800000
833.678496	434.000000
835.914942	424.400000
838.152799	423.700000
840.388131	435.900000
842.620939	432.500000
844.855159	419.600000
847.086857	421.200000
849.318000	416.400000
851.548588	401.700000
853.778622	395.000000
856.008101	420.900000
858.233100	409.000000
860.461472	417.600000
862.685366	408.600000
864.910671	401.800000
867.131500	412.300000
869.355701	409.900000
871.575429	424.700000
873.796567	399.200000
876.017155	429.200000
878.235234	418.900000
880.454722	388.100000
882.669744	428.200000
884.884218	434.100000
887.098145	410.800000
889.311524	417.500000
891.524357	405.400000
893.736642	382.300000
895.946426	415.200000
898.155664	435.100000
900.364357	408.800000
902.570550	405.800000
904.778153	427.000000
906.983259	391.500000
909.187821	389.500000
911.389888	422.700000
913.593364	419.900000
915.794346	413.300000
917.994786	417.800000
920.196635	400.500000
922.392093	420.400000
924.590909	416.300000
926.785288	419.700000
928.983024	412.100000
931.176324	415.100000
933.371033	414.800000
935.563255	439.400000
937.754940	422.100000
939.946087	420.800000
942.134751	426.900000
944.322878	414.600000
946.508525	456.300000
948.697525	440.200000
950.882100	446.400000
953.066141	464.000000
955.253533	446.300000
957.432620	467.800000
959.615058	492.500000
961.796961	467.700000
963.976391	471.400000
966.153348	491.000000
968.331713	496.200000
970.511485	490.400000
972.684907	518.100000
974.861677	529.300000
977.034039	512.100000
979.207809	503.100000
981.377175	490.300000
983.549885	515.600000
985.720130	534.200000
987.889845	541.300000
990.059032	551.100000
992.223822	534.000000
994.391954	548.100000
996.555690	582.400000
998.720834	551.200000
1000.883518	558.800000
1003.045677	571.700000
1005.205379	574.500000
1007.364556	560.300000
1009.525140	580.500000
1011.683269	604.800000
1013.840875	586.600000
1015.997956	592.300000
1018.154515	590.500000
1020.306694	611.100000
1022.460280	579.600000
1024.613344	588.100000
1026.763959	588.700000
1028.915980	646.600000
1031.063629	622.800000
1033.214609	631.100000
1035.361218	629.300000
1037.507308	647.500000
1039.652880	636.300000
1041.799857	654.600000
1043.940545	654.200000
1046.084562	651.000000
1048.226140	679.400000
1050.367200	661.100000
1052.509666	653.800000
1054.645851	686.100000
1056.785363	677.500000
1058.920519	684.700000
1061.059000	659.200000
1063.193128	646.000000
1065.326742	670.600000
1067.461760	669.700000
1069.592429	673.400000
1071.724504	681.400000
1073.854148	627.900000
1075.983281	643.200000
1078.111903	646.600000
1080.240013	621.800000
1082.365697	636.600000
1084.490871	624.500000
1086.617449	633.700000
1088.739689	612.700000
1090.863334	606.600000
1092.982644	616.500000
1095.107183	597.500000
1097.225478	588.700000
1099.345176	590.300000
1101.462457	612.100000
1103.579230	584.700000
1105.695497	577.300000
1107.809349	563.800000
1109.924604	564.900000
1112.035537	573.200000
1114.149782	562.100000
1116.259706	570.100000
1118.371033	557.600000
1120.481857	549.700000
1122.588364	574.400000
1124.698180	538.100000
1126.803682	543.700000
1128.910588	538.900000
1131.011278	537.500000
1133.117180	542.800000
1135.218773	548.700000
1137.321768	543.200000
1139.424264	534.800000
1141.520552	529.100000
1143.622047	533.700000
1145.719240	533.300000
1147.815934	508.600000
1149.912131	513.900000
1152.007829	521.400000
1154.103030	532.000000
1156.195834	502.200000
1158.290040	532.400000
1160.378055	523.100000
1162.471268	518.500000
1164.558293	504.600000
1166.648618	522.300000
1168.734654	508.500000
1170.823988	512.600000
1172.907141	518.600000
1174.991697	515.200000
1177.077654	522.400000
1179.159329	506.000000
1181.242405	507.200000
1183.323096	513.600000
1185.403296	527.200000
1187.483004	519.900000
1189.562221	518.300000
1191.639055	502.400000
1193.713509	534.300000
1195.791255	530.700000
1197.864730	517.100000
1199.939607	517.700000
1202.010216	523.500000
1204.082226	530.300000
1206.151860	519.100000
1208.222895	500.400000
1210.293442	515.800000
1212.359729	524.500000
1214.427416	503.600000
1216.492730	520.300000
1218.559445	535.100000
1220.621904	490.000000
1222.687649	526.600000
1224.749139	518.500000
1226.812029	514.600000
1228.872552	512.900000
1230.932592	525.200000
1232.992148	508.800000
1235.049340	492.900000
1237.106049	522.100000
1239.160396	524.200000
1241.218023	497.700000
1243.273288	502.900000
1245.324312	513.900000
1247.376737	509.200000
1249.428681	532.900000
1251.478267	519.200000
1253.527374	518.000000
1255.576002	520.300000
1257.624152	522.300000
1259.671824	527.400000
1261.715265	552.600000
1263.761982	534.600000
1265.806345	550.500000
1267.850231	533.900000
1269.891767	562.700000
1271.930953	526.200000
1273.973412	565.800000
1276.011648	603.300000
1278.051283	585.100000
1280.090442	613.200000
1282.125384	611.200000
1284.161724	595.200000
1286.195719	623.500000
1288.231113	631.800000
1290.262293	626.400000
1292.294872	678.300000
1294.326979	700.500000
1296.356745	708.900000
1298.387908	736.500000
1300.414864	719.000000
1302.443218	746.200000
1304.467368	765.400000
1306.494783	811.200000
1308.517995	783.100000
1310.542605	809.800000
1312.564880	865.900000
1314.588553	892.200000
1316.609893	933.100000
1318.630766	949.800000
1320.651171	952.600000
1322.667383	999.800000
1324.684992	1004.000000
1326.700273	988.000000
1328.718813	1008.900000
1330.733163	1055.200000
1332.745188	1063.200000
1334.760471	1058.300000
1336.771568	1043.800000
1338.784061	1031.600000
1340.792372	1021.300000
1342.803939	992.300000
1344.809467	981.500000
1346.818250	945.000000
1348.822855	958.300000
1350.830714	908.900000
1352.838111	885.300000
1354.839477	854.700000
1356.842239	813.500000
1358.844542	783.800000
1360.846385	766.700000
1362.847768	769.000000
1364.846837	714.200000
1366.845448	724.600000
1368.843601	691.800000
1370.841296	679.500000
1372.834828	659.100000
1374.829755	639.500000
1376.824226	645.000000
1378.818240	612.300000
1380.809947	621.600000
1382.801198	608.900000
1384.790144	591.200000
1386.780485	576.200000
1388.770372	556.300000
1390.757954	558.200000
1392.745083	579.000000
1394.729910	551.900000
1396.716132	550.900000
1398.700053	566.500000
1400.683522	550.200000
1402.666539	540.000000
1404.647258	539.600000
1406.629371	551.400000
1408.609187	537.600000
1410.588553	528.600000
1412.563780	549.000000
1414.542245	542.600000
1416.518417	524.900000
1418.494139	509.000000
1420.469412	523.300000
1422.442395	526.300000
1424.414929	518.900000
1426.387015	538.000000
1428.358653	508.700000
1430.326164	534.700000
1432.298748	503.600000
1434.263526	516.700000
1436.233377	522.600000
1438.199103	531.500000
1440.166223	509.900000
1442.131059	522.000000
1444.091775	515.700000
1446.057559	532.400000
1448.017388	507.700000
1449.978610	517.300000
1451.941225	507.800000
1453.899725	527.500000
1455.857783	520.200000
1457.815398	528.500000
1459.772572	536.900000
1461.727470	522.700000
1463.683761	521.500000
1465.637777	522.500000
1467.591352	522.500000
1469.542655	514.200000
1471.495350	531.600000
1473.445774	526.100000
1475.395759	505.200000
1477.345305	541.300000
1479.292582	484.900000
1481.237591	529.200000
1483.183993	518.800000
1485.129957	501.700000
1487.075484	518.200000
1489.018745	518.600000
1490.961570	541.100000
1492.902132	542.300000
1494.844086	537.800000
1496.783777	513.300000
1498.723033	537.900000
1500.661855	526.600000
1502.598417	523.800000
1504.536370	540.400000
1506.472064	542.400000
1508.407325	530.300000
1510.340329	542.800000
1512.272901	532.800000
1514.205041	554.700000
1516.136749	560.100000
1518.066204	558.200000
1519.997049	540.400000
1521.927462	558.200000
1523.853803	576.500000
1525.781534	589.700000
1527.707016	569.300000
1529.632068	583.400000
1531.556690	632.500000
1533.480884	613.200000
1535.402831	637.200000
1537.326167	658.200000
1539.247258	650.100000
1541.166104	673.800000
1543.086340	678.900000
1545.004332	719.500000
1546.921898	749.000000
1548.837223	759.600000
1550.753937	790.000000
1552.666595	825.400000
1554.582458	856.900000
1556.496082	876.000000
1558.407467	896.200000
1560.320242	914.600000
1562.228967	914.200000
1564.139081	919.300000
1566.048772	950.400000
1567.958040	915.700000
1569.865073	915.800000
1571.769874	919.100000
1573.676064	911.700000
1575.580023	883.500000
1577.483560	878.100000
1579.386677	874.100000
1581.287564	862.200000
1583.189840	838.000000
1585.089887	823.600000
1586.991323	783.400000
1588.888724	787.500000
1590.785708	764.900000
1592.682273	755.000000
1594.580225	740.400000
1596.472343	744.200000
1598.367655	759.800000
1600.262548	740.700000
1602.155221	699.500000
1604.047476	699.900000
1605.937512	683.100000
1607.827132	653.300000
1609.716337	639.500000
1611.605126	632.400000
1613.491699	610.700000
1615.379659	594.900000
1617.263602	585.900000
1619.148932	578.700000
1621.033849	563.000000
1622.916552	554.200000
1624.800642	551.300000
1626.680720	521.800000
1628.562185	529.800000
1630.441440	504.200000
1632.322082	533.500000
1634.196919	484.700000
1636.076737	498.100000
1637.952550	510.400000
1639.827954	487.600000
1641.704743	503.800000
1643.575735	457.100000
1645.449910	473.000000
1647.320085	463.800000
1649.193441	476.500000
1651.064594	509.400000
1652.933545	480.000000
1654.803882	465.600000
1656.670225	511.900000
1658.537955	477.100000
1660.403485	505.500000
1662.270401	462.900000
1664.133327	463.000000
1665.997640	458.800000
1667.859756	467.900000
1669.721467	451.200000
1671.584563	457.400000
1673.445465	450.900000
1675.304174	468.400000
1677.162479	455.500000
1679.022168	456.600000
1680.876091	432.900000
1682.733187	467.200000
1684.589879	474.700000
1686.442596	467.900000
1688.298484	460.600000
1690.150398	466.900000
1692.001911	450.000000
1693.853023	458.300000
1695.703734	441.700000
1697.554045	458.400000
1699.402172	459.900000
1701.251683	443.000000
1703.095444	435.800000
1704.944156	459.800000
1706.787121	455.100000
1708.633252	457.700000
1710.475422	463.200000
1712.320756	445.700000
1714.160350	462.400000
1716.001329	445.100000
1717.843690	446.700000
1719.682094	432.800000
1721.521882	462.900000
1723.359495	426.200000
1725.196713	437.700000
1727.031757	433.300000
1728.868184	415.400000
1730.702438	445.900000
1732.536299	444.300000
1734.369765	433.000000
1736.199285	450.200000
1738.031964	454.700000
1739.860699	433.200000
1741.692592	417.800000
1743.520542	437.000000
1745.348100	436.800000
1747.175267	429.300000
1749.002042	435.800000
1750.828425	407.800000
1752.650872	429.100000
1754.476474	432.900000
1756.298140	418.600000
1758.121189	434.600000
1759.942077	439.700000
1761.762575	428.400000
1763.584455	432.200000
1765.400635	465.100000
1767.219967	443.300000
1769.035372	411.400000
1770.853928	452.100000
1772.668558	422.200000
1774.482801	435.500000
1776.296658	437.500000
1778.110128	427.300000
1779.921444	446.600000
1781.734142	440.700000
1783.546453	450.100000
1785.354847	442.100000
1787.164622	429.700000
1788.970481	431.900000
1790.779487	455.800000
1792.584579	448.300000
1794.391052	433.900000
1796.197140	445.900000
1797.999319	411.700000
1799.804641	434.700000
1801.606055	442.400000
1803.408850	440.100000
1805.207738	431.400000
1807.008007	462.800000
1808.807894	436.400000
1810.605639	437.700000
1812.403004	427.500000
1814.199988	431.800000
1815.996592	452.000000
1817.791057	456.800000
1819.586902	425.300000
1821.377091	427.100000
1823.172177	441.800000
1824.961610	452.600000
1826.754181	430.600000
1828.544616	433.700000
1830.332916	409.900000
1832.124352	435.300000
1833.910143	456.400000
1835.697312	461.200000
1837.482351	444.000000
1839.270522	417.100000
1841.054808	439.100000
1842.836965	431.300000
1844.620501	429.900000
1846.401908	429.900000
1848.184693	456.500000
1849.963599	433.400000
1851.743883	421.100000
1853.522042	416.500000
1855.301578	435.500000
1857.078990	427.000000
1858.854279	427.300000
1860.630945	445.600000
1862.405489	445.200000
1864.181410	436.200000
1865.951712	451.900000
1867.725141	420.200000
1869.496450	444.300000
1871.267388	466.600000
1873.039704	433.900000
1874.806406	433.400000
1876.576233	425.500000
1878.342197	444.600000
1880.111285	430.900000
1881.876511	440.000000
1883.641369	424.800000
1885.407603	439.300000
1887.169979	435.400000
1888.931988	424.000000
1890.693630	443.800000
1892.454904	433.900000
1894.215812	425.100000
1895.976352	450.200000
1897.734784	429.600000
1899.492849	439.600000
1901.248807	428.800000
1903.006141	421.400000
1904.763110	434.100000
1906.517972	437.100000
1908.270729	429.100000
1910.023123	413.200000
1911.776893	429.500000
1913.528559	456.800000
1915.278122	437.300000
1917.029062	421.400000
1918.779638	447.300000
1920.526376	435.000000
1922.274489	438.000000
1924.020503	405.500000
1925.767893	436.600000
1927.513184	432.300000
1929.256378	439.700000
1931.000948	433.800000
1932.743421	420.700000
1934.485534	427.300000
1936.227288	438.300000
1937.968681	432.400000
1939.707981	440.600000
1941.446922	431.100000
1943.185504	435.900000
1944.921995	438.200000
1946.658127	427.000000
1948.395635	415.800000
1950.129320	443.800000
1951.864380	443.400000
1953.597351	432.700000
1955.329966	451.600000
1957.062224	455.700000
1958.794126	434.400000
1960.523943	438.200000
1962.251674	459.700000
1963.980780	446.200000
1965.709530	446.800000
1967.436197	471.600000
1969.162510	436.900000
1970.890197	443.000000
1972.612347	460.900000
1974.337598	441.900000
1976.059042	444.000000
1977.783586	420.300000
1979.506051	464.300000
1981.224712	478.300000
1982.946472	447.500000
1984.664430	443.200000
1986.383762	446.800000
1988.099294	439.400000
1989.819646	448.400000
1991.536200	453.500000
1993.248957	436.300000
1994.964810	465.500000
1996.678591	445.400000
1998.392022	467.000000
2000.103382	433.100000
2001.816114	436.200000
2003.525055	466.500000
2005.237090	459.300000
2006.943615	473.000000
2008.653233	461.000000
2010.360783	473.600000
2012.067986	449.600000
2013.773123	456.700000
2015.477913	448.400000
2017.184076	458.700000
2018.886455	466.100000
2020.590207	457.700000
2022.291896	473.700000
2023.993239	488.800000
2025.694238	442.700000
2027.393175	479.500000
2029.093484	462.100000
2030.790017	484.400000
2032.487922	453.700000
2034.183769	446.200000
2035.882701	442.700000
2037.576147	456.100000
2039.270964	449.600000
2040.965438	480.200000
2042.656144	474.400000
2044.349934	454.300000
2046.039958	465.700000
2047.731351	475.400000
2049.420692	476.200000
2051.111404	457.000000
2052.798352	434.600000
2054.484960	449.600000
2056.172939	454.800000
2057.857158	467.200000
2059.542747	438.400000
2061.227997	447.600000
2062.911199	440.800000
2064.595771	455.500000
2066.274879	442.100000
2067.958774	463.600000
2069.637207	445.200000
2071.318718	433.400000
2072.996477	444.700000
2074.673900	463.100000
2076.352692	428.800000
2078.029441	445.800000
2079.704149	449.100000
2081.380227	440.600000
2083.054263	448.900000
2084.727964	462.300000
2086.401331	458.900000
2088.072658	458.600000
2089.743651	424.800000
2091.414310	461.300000
2093.084635	467.200000
2094.754626	460.100000
2096.422580	459.600000
2098.090202	462.100000
2099.755790	445.200000
2101.422746	448.800000
2103.087669	455.300000
2104.752260	454.500000
2106.414819	458.100000
2108.078746	466.000000
2109.740642	459.300000
2111.402207	468.400000
2113.063442	460.800000
2114.722647	458.200000
2116.381523	471.800000
2118.040068	465.500000
2119.698284	465.900000
2121.352777	474.700000
2123.010334	464.300000
2124.667561	474.200000
2126.321068	477.300000
2127.975942	457.500000
2129.627097	480.200000
2131.281315	450.000000
2132.931815	449.500000
2134.583683	449.800000
2136.230142	448.300000
2137.881355	455.300000
2139.528856	462.600000
2141.177723	475.000000
2142.824571	446.900000
2144.471094	457.600000
2146.117291	438.400000
2147.759779	451.400000
2149.405326	468.600000
2151.047166	462.600000
2152.692063	464.600000
2154.333255	466.400000
2155.974123	474.500000
2157.614668	465.800000
2159.253200	442.600000
2160.893098	473.200000
2162.529296	460.000000
2164.166860	458.900000
2165.804102	473.400000
2167.439334	450.000000
2169.074244	472.600000
2170.708833	457.500000
2172.343101	452.300000
2173.973675	449.700000
2175.607301	441.000000
2177.237234	454.600000
2178.868534	486.400000
2180.497828	466.100000
2182.126803	465.800000
2183.755458	453.000000
2185.383794	481.200000
2187.010127	474.900000
2188.636142	475.800000
2190.260156	443.500000
2191.885535	465.700000
2193.508913	482.700000
2195.133656	477.000000
2196.754718	461.800000
2198.375463	476.600000
2199.997572	465.200000
2201.617684	478.400000
2203.235800	465.500000
2204.853600	458.100000
2206.471084	474.600000
2208.088253	466.100000
2209.705107	481.600000
2211.321646	457.500000
2212.936191	447.200000
2214.548745	461.500000
2216.162662	458.400000
2217.774588	487.800000
2219.387877	471.900000
2220.999175	473.100000
2222.608485	486.200000
2224.219157	463.000000
2225.827841	486.400000
2227.436213	462.200000
2229.042598	479.600000
2230.650345	460.900000
2232.256107	487.000000
2233.861557	458.300000
2235.465022	481.100000
2237.069850	461.000000
2238.672694	455.200000
2240.273555	481.500000
2241.875779	484.300000
2243.476021	502.200000
2245.077625	475.000000
2246.675576	483.900000
2248.274890	478.400000
2249.872224	476.900000
2251.469250	458.200000
2253.067637	474.000000
2254.662377	470.500000
2256.255139	488.900000
2257.849264	466.100000
2259.444750	485.700000
2261.036591	489.600000
2262.628126	471.400000
2264.221022	477.300000
2265.808609	493.300000
2267.400893	479.300000
2268.987869	471.300000
2270.577874	491.100000
2272.162574	461.400000
2273.751968	465.200000
2275.336059	480.000000
2276.921512	457.200000
2278.504996	473.400000
2280.091505	463.000000
2281.674381	472.000000
2283.256954	463.700000
2284.839223	455.300000
2286.417862	483.600000
2287.999526	472.600000
2289.577561	457.300000
2291.158619	458.500000
2292.736050	457.250000
2294.311518	456.000000
2295.890008	457.000000
2297.464874	469.100000
2299.039439	442.300000
2300.613703	467.500000
2302.187667	481.000000
2303.761331	450.400000
2305.334695	471.700000
2306.904439	451.700000
2308.473886	451.400000
2310.046350	460.900000
2311.613540	445.300000
2313.183747	449.400000
2314.750341	441.100000
2316.318293	471.000000
2317.884291	473.200000
2319.449991	467.300000
2321.015393	462.500000
2322.578842	471.700000
2324.143650	494.700000
2325.704849	516.500000
2327.269063	522.900000
2328.828016	530.700000
2330.389982	524.600000
2331.949998	502.700000
2333.509718	462.200000
2335.067489	500.300000
2336.624966	488.800000
2338.182148	507.500000
2339.737382	470.900000
2341.292322	472.300000
2342.846969	475.100000
2344.401322	463.000000
2345.955381	466.300000
2347.509147	475.600000
2349.060968	469.900000
2350.610846	486.300000
2352.163733	493.300000
2353.711376	484.200000
2355.262027	470.400000
2356.809088	503.900000
2358.357506	472.300000
2359.905632	460.400000
2361.450171	496.900000
2362.996067	487.000000
2364.540024	484.600000
2366.085339	460.600000
2367.627069	482.000000
2369.170157	491.900000
2370.711308	479.800000
2372.252170	503.100000
2373.792743	466.900000
2375.333027	488.300000
2376.873022	506.300000
2378.409438	473.100000
2379.948856	481.300000
2381.484697	494.300000
2383.021895	488.600000
2384.555517	475.200000
2386.092139	481.200000
2387.626831	500.700000
2389.159592	506.800000
2390.692068	508.000000
2392.222615	482.400000
2393.756160	487.200000
2395.284494	482.700000
2396.814184	489.100000
2398.343589	488.500000
2399.872709	482.700000
2401.401543	511.500000
2402.925173	511.700000
2404.453438	505.900000
2405.976500	497.900000
2407.504197	501.700000
2409.025054	493.700000
2410.550543	489.300000
2412.072473	519.600000
2413.595757	516.100000
2415.117121	486.200000
2416.636565	481.000000
2418.157364	509.900000
2419.676244	510.400000
2421.194843	496.500000
2422.711523	481.100000
2424.229559	500.400000
2425.747313	502.200000
2427.261515	491.600000
2428.775438	488.800000
2430.289080	491.700000
2431.804076	513.800000
2433.315525	498.600000
2434.828327	512.100000
2436.339217	514.000000
2437.849828	496.100000
2439.358527	503.000000
2440.870212	490.700000
2442.378354	510.800000
2443.886218	493.500000
2445.393803	485.900000
2446.897849	481.300000
2448.404879	511.300000
2449.910001	502.300000
2451.414846	467.400000
2452.917784	489.100000
2454.420445	477.500000
2455.922831	504.100000
2457.423310	477.600000
2458.925143	506.400000
2460.425072	490.700000
2461.924725	483.700000
2463.424103	478.700000
2464.921578	479.500000
2466.417151	468.400000
2467.915704	479.900000
2469.410729	476.000000
2470.907106	481.000000
2472.399957	500.100000
2473.894161	494.000000
2475.388091	490.300000
2476.878497	497.200000
2478.371881	507.400000
2479.863367	474.000000
2481.352956	459.800000
2482.842273	469.900000
2484.329694	480.900000
2485.820091	481.500000
2487.306969	481.800000
2488.795200	480.400000
2490.279913	480.100000
2491.764356	508.400000
2493.250151	462.800000
2494.734054	493.400000
2496.219307	494.900000
2497.699427	495.900000
2499.182519	462.700000
2500.663722	492.500000
2502.144655	465.500000
2503.623698	467.300000
2505.102474	498.400000
2506.580981	502.500000
2508.059219	503.700000
2509.537190	513.400000
2511.011655	498.600000
2512.489089	522.000000
2513.963020	513.200000
2515.438302	484.600000
2516.913316	490.300000
2518.384829	522.000000
2519.857693	482.700000
2521.328674	489.600000
2522.801005	495.000000
2524.268222	503.700000
2525.738406	488.200000
2527.206709	507.800000
2528.674746	498.500000
2530.142519	494.400000
2531.610027	475.500000
2533.077271	498.100000
2534.541022	482.800000
2536.006123	496.900000
2537.469347	497.300000
2538.933920	514.300000
2540.395005	481.400000
2541.857439	485.100000
2543.319610	492.700000
2544.778294	483.200000
2546.241551	504.400000
2547.699711	526.500000
2549.159220	500.500000
2550.613636	490.300000
2552.072622	508.500000
2553.529735	490.200000
2554.984978	502.600000
2556.439960	500.300000
2557.893072	494.600000
2559.347533	499.100000
2560.800125	495.000000
2562.252457	518.700000
2563.702921	490.100000
2565.156342	516.100000
2566.604680	511.200000
2568.055973	495.900000
2569.505400	500.000000
2570.951356	529.200000
2572.400266	526.900000
2573.845705	523.300000
2575.292493	526.600000
2576.737417	528.300000
2578.182084	531.500000
2579.628098	513.100000
2581.070645	519.900000
2582.514540	524.000000
2583.954970	523.000000
2585.396748	511.200000
2586.836666	521.300000
2588.277931	522.100000
2589.715734	539.000000
2591.156487	530.200000
2592.592177	537.700000
2594.030817	508.400000
2595.467600	529.400000
2596.902527	535.800000
2598.340401	540.900000
2599.773218	520.500000
2601.207382	528.100000
2602.639691	510.300000
2604.073348	557.800000
2605.505150	546.400000
2606.936700	551.600000
2608.367996	535.700000
2609.797441	530.200000
2611.226633	548.600000
2612.653974	562.800000
2614.082662	565.200000
2615.511097	556.700000
2616.936086	553.600000
2618.362420	544.100000
2619.786907	567.200000
2621.212738	563.400000
2622.635126	577.200000
2624.058860	571.200000
2625.480748	568.100000
2626.902385	586.600000
2628.322178	562.800000
2629.743316	567.900000
2631.164204	571.200000
2632.581653	595.100000
2634.002042	600.300000
2635.418994	567.300000
2636.835698	599.400000
2638.252153	584.500000
2639.668360	585.000000
2641.084319	584.400000
2642.498437	589.700000
2643.912307	604.500000
2645.324338	581.900000
2646.737714	591.900000
2648.147660	588.700000
2649.560542	598.100000
2650.969995	606.800000
2652.379202	630.800000
2653.786573	592.800000
2655.196878	609.800000
2656.605347	622.600000
2658.011981	632.400000
2659.418370	612.700000
2660.822926	623.000000
2662.228825	627.500000
2663.632890	611.300000
2665.036712	645.100000
2666.440289	616.100000
2667.842035	623.200000
2669.245124	624.600000
2670.644795	623.000000
2672.045810	634.400000
2673.443409	636.300000
2674.843937	615.100000
2676.241051	611.200000
2677.639508	617.800000
2679.036137	628.100000
2680.432525	614.800000
2681.828670	617.600000
2683.222989	587.500000
2684.618651	594.800000
2686.010904	620.000000
2687.404499	604.100000
2688.796270	593.600000
2690.189384	579.600000
2691.580673	588.800000
2692.970140	593.200000
2694.359368	556.000000
2695.748355	596.000000
2697.138685	576.200000
2698.524031	598.000000
2699.912300	558.500000
2701.298749	563.200000
2702.684959	556.200000
2704.070930	578.200000
2705.453503	572.500000
2706.837418	553.900000
2708.221094	549.500000
2709.604533	567.500000
2710.984576	545.000000
2712.365961	579.300000
2713.745530	542.400000
2715.126441	553.500000
2716.505537	547.000000
2717.882819	510.900000
2719.261442	529.000000
2720.638251	554.900000
2722.014825	537.900000
2723.391163	535.300000
2724.765689	543.000000
2726.141556	534.100000
2727.514036	544.400000
2728.889433	520.100000
2730.259869	525.300000
2731.631645	537.100000
2733.003188	519.000000
2734.372922	516.400000
2735.743996	517.500000
2737.113263	524.000000
2738.482296	532.500000
2739.849522	530.900000
2741.216516	521.900000
2742.583277	483.900000
2743.949805	511.100000
2745.314529	511.400000
2746.679020	516.100000
2748.043279	518.800000
2749.407307	518.300000
2750.771102	528.000000
2752.131525	501.400000
2753.494857	510.200000
2754.853247	523.100000
2756.214547	527.300000
2757.572476	489.700000
2758.933315	503.200000
2760.292353	477.600000
2761.648023	490.600000
2763.006602	491.700000
2764.361813	513.400000
2765.716795	503.800000
2767.069980	505.900000
2768.426072	511.700000
2769.778800	508.900000
2771.131299	496.500000
2772.483571	493.300000
2773.837180	510.000000
2775.187428	494.400000
2776.535883	521.000000
2777.887242	499.000000
2779.235242	481.700000
2780.584581	493.600000
2781.932127	504.600000
2783.279447	502.000000
2784.626539	523.100000
2785.971841	485.400000
2787.316917	478.900000
2788.661767	496.800000
2790.006391	487.900000
2791.347662	487.400000
2792.690272	472.700000
2794.032657	537.300000
2795.374816	491.200000
2796.713626	510.900000
2798.055336	487.900000
2799.393697	496.000000
2800.733396	501.400000
2802.071309	488.100000
2803.407438	491.900000
2804.743344	500.000000
2806.080586	507.900000
2807.416045	498.100000
2808.751281	511.900000
2810.084735	521.700000
2811.419525	496.000000
2812.750974	501.000000
2814.085319	505.700000
2815.414766	500.100000
2816.745550	499.100000
2818.076112	495.000000
2819.404895	500.500000
2820.735015	501.800000
2822.063356	520.700000
2823.391475	525.100000
2824.717818	467.200000
2826.045496	513.500000
2827.369842	494.200000
2828.695524	507.900000
2830.019430	512.900000
2831.343116	517.300000
2832.668138	515.700000
2833.989831	495.500000
2835.311304	500.400000
2836.632559	511.700000
2837.953595	491.700000
2839.272859	509.700000
2840.593458	479.100000
2841.912285	497.000000
2843.230894	490.400000
2844.547733	492.600000
2845.864354	517.500000
2847.180758	499.000000
2848.495392	488.200000
2849.811361	489.400000
2851.124011	493.900000
2852.437995	514.100000
2853.751763	473.800000
2855.065314	491.900000
2856.377099	520.300000
2857.687117	503.200000
2858.998470	472.000000
2860.306508	491.200000
2861.615880	515.600000
2862.925037	497.700000
2864.233979	484.500000
2865.541158	493.300000
2866.846573	496.200000
2868.153323	518.000000
2869.458311	494.400000
2870.763084	515.200000
2872.066097	507.100000
2873.371990	500.000000
2874.673029	489.700000
2875.975401	489.300000
2877.276015	521.400000
2878.577961	498.800000
2879.879695	512.100000
2881.178125	508.600000
2882.477888	512.600000
2883.775894	487.700000
2885.073688	492.000000
2886.369725	494.100000
2887.667096	507.100000
2888.962712	501.000000
2890.258116	475.800000
2891.553309	481.400000
2892.845204	503.900000
2894.139976	503.200000
2895.431452	498.500000
2896.724260	479.800000
2898.016858	500.100000
2899.306161	516.300000
2900.596798	488.500000
2901.885683	517.100000
2903.175900	505.100000
2904.462826	515.500000
2905.751084	513.800000
2907.037593	490.800000
2908.323893	470.400000
2909.609985	489.500000
2910.894329	497.600000
2912.181545	501.300000
2913.463934	490.800000
2914.747655	521.600000
2916.029629	527.200000
2917.311397	508.300000
2918.591419	460.900000
2919.874311	484.400000
2921.155458	478.300000
2922.433323	500.500000
2923.714057	478.100000
2924.991510	481.400000
2926.268758	471.700000
2927.544263	495.500000
2928.822636	480.100000
2930.096195	495.700000
2931.372621	503.000000
2932.647305	485.300000
2933.920250	486.100000
2935.194526	465.400000
2936.467061	481.700000
2937.739393	491.400000
2939.008452	503.200000
2940.280376	481.600000
2941.550562	488.900000
2942.820544	481.300000
2944.090323	478.500000
2945.358365	452.400000
2946.624672	452.300000
2947.890776	479.300000
2949.158211	502.200000
2950.423910	467.500000
2951.689407	485.300000
2952.954703	484.800000
2954.216733	462.400000
2955.480093	459.700000
2956.743252	472.300000
2958.004678	491.700000
2959.267435	456.100000
2960.528459	462.100000
2961.787753	474.800000
2963.046846	453.300000
2964.305739	472.800000
2965.564432	471.200000
2966.822925	454.200000
2968.079689	471.800000
2969.336254	470.100000
2970.591090	449.000000
2971.847256	469.500000
2973.100166	486.600000
2974.354406	459.200000
2975.608447	476.900000
2976.860762	480.800000
2978.112879	477.700000
2979.363271	468.800000
2980.616518	477.300000
2981.864988	473.900000
2983.116313	474.900000
2984.364388	465.300000
2985.612266	451.000000
2986.859948	442.400000
2988.107432	481.700000
2989.353195	480.100000
2990.598761	458.500000
2991.845656	475.700000
2993.089306	466.300000
2994.334283	449.300000
2995.576018	445.100000
2996.820604	457.500000
2998.063471	466.100000
2999.303097	480.500000
3000.545573	471.000000
3001.784809	443.000000
3003.025373	446.300000
3004.264220	470.800000
3005.502873	462.400000
3006.739810	455.100000
3007.978075	487.000000
3009.214624	467.600000
3010.450980	465.800000
3011.687142	465.600000
3012.921590	458.600000
3014.155845	461.700000
3015.389907	464.900000
3016.622257	481.100000
3017.852895	464.400000
3019.086379	469.000000
3020.318152	462.300000
3021.548213	471.800000
3022.778083	451.900000
3024.006243	465.800000
3025.235730	474.500000
3026.463507	458.200000
3027.691093	471.000000
3028.920005	463.500000
3030.144175	459.100000
3031.371188	464.400000
3032.594978	482.900000
3033.820093	477.000000
3035.043503	450.500000
3036.266722	486.400000
3037.488236	460.800000
3038.712591	464.800000
3039.932211	485.300000
3041.153157	464.700000
3042.373913	476.000000
3043.592967	469.100000
3044.813345	485.200000
3046.030507	461.300000
3047.248994	464.900000
3048.465780	461.800000
3049.682377	460.600000
3050.898787	468.100000
3052.111983	453.800000
3053.328017	454.900000
3054.540839	436.700000
3055.756498	434.600000
3056.967434	472.400000
3058.179696	449.800000
3059.391770	464.900000
3060.603658	437.700000
3061.813849	439.600000
3063.023853	442.300000
3064.233671	440.700000
3065.441793	445.900000
3066.649730	448.000000
3067.855971	446.300000
3069.063537	448.500000
3070.269408	450.950000
3071.475094	453.400000
3072.680596	458.300000
3073.884404	444.900000
3075.089536	436.400000
3076.292975	441.600000
3077.494722	453.400000
3078.696286	427.700000
3079.897666	445.700000
3081.098862	440.900000
3082.298368	426.200000
3083.497691	467.600000
3084.698337	441.300000
3085.897293	460.800000
3087.093054	432.900000
3088.291645	427.500000
3089.487042	454.400000
3090.683763	456.900000
3091.877291	452.100000
3093.073647	469.400000
3094.268316	453.200000
3095.459795	464.100000
3096.655605	438.400000
3097.846722	445.600000
3099.039162	458.400000
3100.228413	460.400000
3101.420491	434.400000
3102.610885	437.600000
3103.798093	451.100000
3104.986623	438.800000
3106.176476	454.700000
3107.363144	452.400000
3108.549633	445.100000
3109.735943	446.200000
3110.923574	478.000000
3112.108023	467.300000
3113.290793	439.300000
3114.476385	444.900000
3115.660298	428.000000
3116.842531	453.900000
3118.024587	452.000000
3119.206464	461.700000
3120.388163	448.900000
3121.568185	443.700000
3122.746530	451.200000
3123.927695	433.100000
3125.105685	447.700000
3126.283498	436.700000
3127.461134	447.800000
3128.637095	435.300000
3129.812880	409.500000
3130.989985	433.100000
3132.165417	422.900000
3133.339175	423.000000
3134.511260	441.500000
3135.684666	438.600000
3136.857897	442.800000
3138.029456	453.300000
3139.202335	460.900000
3140.372047	439.200000
3141.543080	447.500000
3142.712442	457.500000
3143.880135	441.700000
3145.050643	462.400000
3146.216492	444.000000
3147.386651	436.600000
3148.552152	431.100000
3149.717480	434.100000
3150.882634	454.200000
3152.047615	445.800000
3153.213915	450.500000
3154.375562	439.900000
3155.538530	437.200000
3156.701325	444.600000
3157.863946	426.400000
3159.024903	434.200000
3160.185688	444.400000
3161.346300	439.200000
3162.505248	433.400000
3163.664024	435.500000
3164.822629	415.900000
3165.981062	428.500000
3167.139323	410.000000
3168.295923	426.300000
3169.450861	412.100000
3170.607118	459.800000
3171.761714	414.300000
3172.916140	438.000000
3174.068905	407.100000
3175.221501	410.000000
3176.373927	434.000000
3177.526182	412.600000
3178.678268	419.000000
3179.827207	428.000000
3180.978953	419.400000
3182.129042	424.000000
3183.277473	449.700000
3184.425736	437.300000
3185.573830	429.000000
3186.721755	424.500000
3187.868024	408.400000
3189.014125	439.000000
3190.158572	439.100000
3191.302850	445.200000
3192.446961	416.700000
3193.592390	440.700000
3194.734680	467.400000
3195.876802	436.500000
3197.018758	423.200000
3198.160546	437.800000
3199.302167	439.100000
3200.440653	438.600000
3201.580456	433.200000
3202.721576	447.400000
3203.859563	459.000000
3204.995899	432.700000
3206.132071	421.600000
3207.269559	447.700000
3208.405399	435.100000
3209.542556	437.000000
3210.675100	440.600000
3211.811925	433.500000
3212.944140	437.100000
3214.077671	443.500000
3215.211037	429.600000
3216.341277	451.900000
3217.474314	410.700000
3218.604224	436.700000
3219.735452	432.200000
3220.863554	411.900000
3221.994454	424.900000
3223.123709	421.100000
3224.251321	410.400000
3225.375810	420.100000
3226.504575	428.000000
3227.630218	421.200000
3228.755698	420.600000
3229.879537	427.600000
3231.006171	430.400000
3232.128207	426.000000
3233.251559	449.200000
3234.374748	406.300000
3235.497776	418.500000
3236.619164	411.700000
3237.740391	429.900000
3238.859979	433.200000
3239.979406	398.900000
3241.097196	425.900000
3242.217777	443.400000
3243.335245	426.800000
3244.452552	420.500000
3245.569699	441.700000
3246.685209	435.800000
3247.802035	429.400000
3248.915750	424.900000
3250.032256	430.900000
3251.147126	427.900000
3252.258888	437.900000
3253.370491	420.100000
3254.483409	416.900000
3255.596167	431.000000
3256.705819	421.100000
3257.816786	432.600000
3258.927594	421.400000
3260.036770	440.700000
3261.144315	405.800000
3262.253175	411.800000
3263.361876	428.400000
3264.467475	414.600000
3265.574389	449.500000
3266.679673	434.000000
3267.786271	429.800000
3268.889769	449.600000
3269.994581	422.400000
3271.099236	401.800000
3272.200793	427.000000
3273.302193	431.000000
3274.404907	444.400000
3275.507465	445.700000
3276.606926	426.300000
3277.709171	430.400000
3278.808320	449.100000
3279.905844	415.700000
3281.003214	446.300000
3282.103365	423.300000
3283.200424	441.900000
3284.297327	450.600000
3285.394075	447.500000
3286.486264	416.600000
3287.582703	439.000000
3288.677519	412.200000
3289.772180	430.400000
3290.865220	432.000000
3291.958106	426.900000
3293.049371	428.100000
3294.141949	418.700000
3295.232907	420.000000
3296.322245	422.700000
3297.411430	414.200000
3298.501927	437.700000
3299.589340	425.100000
3300.676601	426.600000
3301.765174	415.400000
3302.853594	439.900000
3303.937468	413.600000
3305.025582	430.400000
3306.110616	421.000000
3307.194034	423.900000
3308.278764	403.300000
3309.361878	437.100000
3310.446304	426.100000
3311.527653	452.100000
3312.610313	412.300000
3313.691358	415.100000
3314.772253	445.200000
3315.851535	424.400000
3316.930666	438.100000
3318.011109	417.600000
3319.088477	429.300000
3320.167157	422.100000
3321.244225	418.900000
3322.321143	436.600000
3323.396451	411.600000
3324.471609	415.700000
3325.548078	427.500000
3326.621476	428.700000
3327.694726	408.000000
3328.769287	442.500000
3329.842239	408.700000
3330.913582	418.600000
3331.986236	419.100000
3333.055823	424.400000
3334.126721	401.000000
3335.196013	412.100000
3336.266614	410.000000
3337.335609	414.500000
3338.402999	407.500000
3339.468783	390.400000
3340.538793	412.000000
3341.605739	385.500000
3342.669625	375.100000
3343.736277	420.300000
3344.801326	419.700000
3345.864771	384.600000
3346.928070	421.700000
3347.991222	399.300000
3349.054228	406.500000
3350.117088	405.600000
3351.178345	396.700000
3352.236546	435.500000
3353.298968	409.200000
3354.358334	411.500000
3355.417554	416.600000
3356.478083	386.000000
3357.534104	386.000000
3358.592888	418.300000
3359.647165	396.000000
3360.704206	411.400000
3361.759648	413.200000
3362.816399	400.700000
3363.871553	412.100000
3364.925109	402.300000
3365.977068	392.700000
3367.031790	411.000000
3368.083462	416.200000
3369.134990	407.800000
3370.187828	383.200000
3371.237618	426.900000
3372.288717	420.500000
3373.336769	408.400000
3374.387582	424.000000
3375.435349	421.900000
3376.482974	418.200000
3377.530457	442.300000
3378.576347	425.700000
3379.623545	420.700000
3380.667700	440.500000
3381.714614	412.600000
3382.759937	422.000000
3383.802218	441.100000
3384.844358	426.300000
3385.887807	419.000000
3386.931114	415.700000
3387.972831	416.400000
3389.014408	425.600000
3390.055843	414.000000
3391.095690	421.900000
3392.133948	423.400000
3393.173514	418.800000
3394.212940	414.400000
3395.250778	415.100000
3396.287029	426.500000
3397.323140	425.300000
3398.360559	420.700000
3399.394945	422.600000
3400.430639	445.200000
3401.466193	418.800000
3402.498715	410.200000
3403.533991	411.200000
3404.566237	424.800000
3405.598343	412.300000
3406.628867	410.500000
3407.660697	421.100000
3408.692389	390.700000
3409.721053	416.000000
3410.749580	418.200000
3411.779413	423.000000
3412.809109	417.200000
3413.835779	407.100000
3414.863755	421.500000
3415.888707	440.200000
3416.916410	426.600000
3417.941088	422.900000
3418.967073	409.200000
3419.991479	393.300000
3421.015748	409.500000
3422.038438	389.100000
3423.060992	396.400000
3424.084852	404.500000
3425.105692	392.100000
3426.126396	415.600000
3427.148406	407.700000
3428.167398	404.700000
3429.186255	402.800000
3430.206418	402.300000
3431.223564	405.900000
