-116.707459	10.400000
-114.037859	-17.800000
-111.371194	-3.800000
-108.705281	6.200000
-106.042300	-6.800000
-103.377890	-11.800000
-100.716410	-16.200000
-98.053501	6.000000
-95.395698	-5.600000
-92.736466	6.800000
-90.077982	-15.800000
-87.422422	16.800000
-84.765434	-20.000000
-82.113544	15.000000
-79.460224	4.600000
-76.809823	-29.400000
-74.157993	-6.400000
-71.511254	0.000000
-68.863086	11.400000
-66.215660	7.400000
-63.571148	2.400000
-60.925208	-9.400000
-58.284349	10.400000
-55.642061	-2.200000
-53.002682	13.600000
-50.361873	-6.400000
-47.721805	-4.800000
-45.086809	11.800000
-42.450385	0.200000
-39.816863	2.200000
-37.181913	2.800000
-34.552028	-10.800000
-31.918551	-5.200000
-29.290136	13.000000
-26.662455	8.200000
-24.033345	-28.600000
-21.409292	1.600000
-18.781650	-1.600000
-16.159061	-10.400000
-13.537204	20.400000
-10.916077	20.200000
-8.295680	40.800000
-5.678172	137.400000
-3.059235	434.600000
-0.443183	948.000000
2.172140	915.600000
4.786736	420.400000
7.398449	63.400000
10.011591	0.000000
12.619699	14.000000
15.231389	-3.600000
17.838048	12.400000
20.446135	-2.000000
23.053498	-6.400000
25.655836	-9.200000
28.261752	10.000000
30.862646	22.000000
33.464968	-10.000000
36.062273	1.200000
38.663153	3.600000
41.259018	-8.800000
43.856312	6.200000
46.452886	-3.200000
49.044451	-4.600000
51.637444	-9.200000
54.227576	7.400000
56.819136	13.000000
59.407836	6.400000
61.997963	5.600000
64.583091	2.400000
67.169647	-7.400000
69.755489	-3.800000
72.338477	0.400000
74.922891	10.600000
77.500177	-3.000000
80.081029	29.400000
82.659032	-3.800000
85.236325	-4.600000
87.815044	2.200000
90.388781	-3.800000
92.963946	-7.400000
95.536267	0.200000
98.107880	-11.800000
100.676653	2.000000
103.246853	-5.800000
105.814215	16.000000
108.383002	11.200000
110.948953	-6.000000
113.512069	18.600000
116.078741	3.400000
118.636192	10.800000
121.199328	30.000000
123.757504	42.400000
126.319235	26.400000
128.876009	46.200000
131.434210	102.200000
133.987457	136.600000
136.540007	178.000000
139.096107	247.800000
141.647259	368.600000
144.197714	391.000000
146.747471	431.400000
149.294409	478.600000
151.840652	542.200000
154.388320	528.600000
156.935292	528.400000
159.477329	543.400000
162.018672	536.000000
164.559322	541.400000
167.101398	510.000000
169.640662	523.600000
172.177118	472.800000
174.712882	499.000000
177.250072	527.600000
179.786571	502.400000
182.320264	509.400000
184.851153	493.600000
187.381355	502.000000
189.912981	485.200000
192.441806	506.800000
194.967832	519.800000
197.493172	483.800000
200.019937	496.400000
202.543906	472.600000
205.067190	449.400000
207.589789	495.000000
210.109595	484.200000
212.628718	494.400000
215.147158	488.200000
217.667022	490.800000
220.179885	478.400000
222.696279	480.000000
225.211991	479.400000
227.722813	503.200000
230.235060	482.800000
232.744525	501.000000
235.253311	463.800000
237.761418	511.800000
240.270950	491.800000
242.775601	453.400000
245.279576	477.600000
247.784975	515.400000
250.285499	482.400000
252.789547	477.600000
255.286623	490.200000
257.787223	525.000000
260.285051	524.200000
262.782206	522.000000
265.278688	490.600000
267.770307	480.400000
270.265446	471.800000
272.757818	496.800000
275.249520	509.000000
277.738459	507.200000
280.228822	514.400000
282.716422	496.200000
285.201263	500.600000
287.689619	515.000000
290.171035	522.000000
292.655965	492.800000
295.136050	511.800000
297.619647	453.000000
300.098401	491.200000
302.578579	479.800000
305.056004	486.800000
307.532766	521.800000
310.008865	501.400000
312.482215	491.600000
314.954903	514.400000
317.426930	546.400000
319.898296	495.800000
322.366917	520.000000
324.834880	508.800000
327.304264	505.600000
329.768826	507.200000
332.236892	517.600000
334.700138	517.000000
337.162726	488.600000
339.624658	518.400000
342.085933	520.400000
344.544474	478.800000
347.004437	503.200000
349.461667	486.600000
351.918243	508.800000
354.374165	490.200000
356.827357	445.400000
359.281972	468.000000
361.731785	448.400000
364.185094	476.200000
366.633605	471.400000
369.081464	437.600000
371.530746	473.600000
373.975234	469.600000
376.421144	463.400000
378.866404	457.400000
381.308946	445.600000
383.750840	453.000000
386.192087	471.800000
388.630618	418.000000
391.070571	430.400000
393.507810	439.800000
395.942337	422.800000
398.380352	431.600000
400.813590	391.400000
403.248249	397.200000
405.678136	396.600000
408.111508	418.000000
410.540110	453.400000
412.968070	409.800000
415.397452	403.600000
417.822068	416.600000
420.248106	394.800000
422.673503	416.600000
425.098260	399.600000
427.518259	428.000000
429.939679	391.200000
432.358402	406.000000
434.778546	398.600000
437.195995	399.800000
439.614864	403.000000
442.031040	407.400000
444.442468	397.600000
446.857374	403.800000
449.269589	397.800000
451.681170	392.600000
454.092117	401.800000
456.500378	381.400000
458.908006	371.600000
461.315002	384.800000
463.721367	386.400000
466.125049	397.800000
468.528101	371.800000
470.930523	381.400000
473.332315	384.000000
475.731430	369.600000
478.131964	400.800000
480.531869	365.000000
482.927051	393.600000
485.325700	378.200000
487.719629	382.800000
490.112932	387.600000
492.505609	363.200000
494.897661	358.200000
497.291131	363.200000
499.679889	360.600000
502.065981	383.400000
504.453493	381.600000
506.840382	348.600000
509.224607	360.600000
511.610250	373.600000
513.993232	352.800000
516.373553	349.600000
518.755293	349.200000
521.134374	378.400000
523.514874	386.800000
525.892716	392.000000
528.267903	360.000000
530.642472	327.200000
533.018459	350.400000
535.391794	341.400000
537.766546	362.400000
540.136613	350.400000
542.506064	358.200000
544.876933	350.400000
547.243122	329.600000
549.610729	347.400000
551.975690	341.200000
554.340038	331.400000
556.703773	315.800000
559.068926	311.400000
561.429407	284.600000
563.791306	326.200000
566.150564	310.800000
568.507185	290.400000
570.867250	288.600000
573.220624	325.800000
575.577443	281.800000
577.931627	287.000000
580.285202	289.400000
582.638170	298.600000
584.988505	278.200000
587.340258	267.600000
589.685334	257.400000
592.035874	260.200000
594.379740	267.400000
596.729068	286.200000
599.073747	262.600000
601.415802	261.000000
603.759274	270.200000
606.100123	268.800000
608.440370	252.600000
610.777996	248.400000
613.119057	251.800000
615.455480	275.400000
617.793320	266.400000
620.128543	252.000000
622.461150	243.800000
624.795173	262.800000
627.126582	255.200000
629.457393	254.600000
631.787607	247.400000
634.117222	251.400000
636.442214	247.800000
638.772648	242.400000
641.098461	237.400000
643.421666	255.800000
645.746288	234.000000
648.068304	247.800000
650.389726	231.400000
652.708546	226.200000
655.028781	242.200000
657.348423	275.600000
659.665464	260.200000
661.981913	246.000000
664.295764	272.000000
666.611031	255.000000
668.923701	267.000000
671.237786	256.400000
673.547271	257.800000
675.858172	258.600000
678.166480	257.800000
680.474200	278.200000
682.783334	260.400000
685.087876	258.800000
687.391832	269.800000
689.695202	296.800000
691.999986	289.800000
694.300184	258.600000
696.601796	279.000000
698.902823	254.600000
701.199269	292.600000
703.497130	308.400000
705.794407	295.400000
708.091101	319.200000
710.383219	279.400000
712.678748	288.800000
714.969703	305.000000
717.262073	284.200000
719.551868	313.200000
721.841082	297.000000
724.129717	296.200000
726.415779	329.000000
728.703256	299.600000
730.988161	299.000000
733.272489	308.400000
735.554248	320.400000
737.837421	339.800000
740.120017	321.400000
742.398057	311.600000
744.677512	315.800000
746.956390	318.400000
749.234694	334.200000
751.508448	326.200000
753.783615	356.000000
756.058209	340.200000
758.330244	344.400000
760.603692	344.000000
762.874582	338.800000
765.142916	358.000000
767.412663	353.800000
769.679856	356.600000
771.946478	348.600000
774.212530	359.800000
776.476031	396.000000
778.740945	378.400000
781.005289	362.200000
783.265104	345.600000
785.526331	377.000000
787.786991	385.000000
790.045105	400.400000
792.300674	370.200000
794.559634	400.600000
796.812095	365.600000
799.069922	394.000000
801.323231	379.400000
803.574000	381.800000
805.826181	399.400000
808.075823	376.800000
810.326878	372.600000
812.573421	395.200000
814.821376	367.400000
817.066797	383.200000
819.313629	416.400000
821.559900	368.000000
823.801666	381.400000
826.046816	409.600000
828.285493	417.200000
830.527552	417.400000
832.765113	410.200000
835.004086	438.000000
837.240532	410.600000
839.478389	390.600000
841.713721	421.800000
843.946530	401.400000
846.180750	383.400000
848.412447	402.800000
850.643590	422.200000
852.874178	448.000000
855.104212	435.200000
857.333692	431.200000
859.558690	427.800000
861.787063	456.800000
864.010956	469.600000
866.236261	437.200000
868.457090	469.800000
870.681291	472.400000
872.901019	500.000000
875.122157	472.600000
877.342745	478.200000
879.560824	524.200000
881.780312	523.200000
883.995334	542.600000
886.209808	553.800000
888.423735	513.400000
890.637115	537.200000
892.849947	528.200000
895.062233	504.600000
897.272016	505.600000
899.481254	546.200000
901.689947	538.400000
903.896141	537.800000
906.103744	536.000000
908.308849	529.600000
910.513411	504.600000
912.715478	511.400000
914.918954	508.800000
917.119936	496.400000
919.320376	512.600000
921.522225	466.600000
923.717683	449.800000
925.916500	472.400000
928.110878	446.800000
930.308614	437.200000
932.501914	423.400000
934.696623	418.600000
936.888846	417.600000
939.080530	430.000000
941.271677	409.800000
943.460341	411.800000
945.648469	415.000000
947.834116	377.400000
950.023115	401.200000
952.207691	378.400000
954.391732	423.200000
956.579123	384.600000
958.758210	381.000000
960.940648	380.000000
963.122552	373.000000
965.301981	398.800000
967.478938	372.200000
969.657303	383.600000
971.837075	433.600000
974.010498	403.200000
976.187267	410.400000
978.359629	371.200000
980.533399	350.000000
982.702765	340.000000
984.875475	387.400000
987.045720	326.400000
989.215436	361.400000
991.384623	341.200000
993.549413	338.400000
995.717544	350.600000
997.881281	371.200000
1000.046424	357.600000
1002.209108	308.400000
1004.371267	300.800000
1006.530969	319.200000
1008.690146	313.400000
1010.850730	281.800000
1013.008859	327.200000
1015.166465	268.400000
1017.323547	283.200000
1019.480105	267.000000
1021.632284	293.200000
1023.785870	285.800000
1025.938934	280.200000
1028.089549	265.400000
1030.241571	276.200000
1032.389219	287.600000
1034.540199	277.800000
1036.686808	272.400000
1038.832898	277.200000
1040.978470	233.000000
1043.125447	266.200000
1045.266135	262.600000
1047.410153	239.400000
1049.551730	245.200000
1051.692791	227.400000
1053.835256	239.800000
1055.971442	220.000000
1058.110953	244.400000
1060.246110	209.800000
1062.384591	218.800000
1064.518718	211.200000
1066.652332	242.400000
1068.787351	222.200000
1070.918020	252.400000
1073.050094	204.200000
1075.179739	215.600000
1077.308872	229.400000
1079.437493	200.000000
1081.565603	200.600000
1083.691287	209.200000
1085.816461	227.400000
1087.943039	223.800000
1090.065279	218.800000
1092.188924	211.600000
1094.308234	219.400000
1096.432774	197.200000
1098.551068	179.400000
1100.670767	206.600000
1102.788047	197.000000
1104.904821	189.600000
1107.021088	173.400000
1109.134939	179.000000
1111.250195	174.200000
1113.361127	200.400000
1115.475372	205.600000
1117.585296	166.200000
1119.696624	135.200000
1121.807447	159.200000
1123.913954	173.200000
1126.023771	160.000000
1128.129273	146.800000
1130.236178	140.800000
1132.336868	154.400000
1134.442770	154.600000
1136.544363	176.600000
1138.647359	146.800000
1140.749854	157.400000
1142.846142	159.400000
1144.947637	119.200000
1147.044830	132.600000
1149.141525	143.200000
1151.237721	130.800000
1153.333420	123.400000
1155.428620	154.600000
1157.521424	114.000000
1159.615631	144.800000
1161.703646	123.600000
1163.796859	125.400000
1165.883884	135.000000
1167.974208	128.200000
1170.060244	107.200000
1172.149579	115.400000
1174.232732	119.000000
1176.317287	117.400000
1178.403244	132.200000
1180.484919	108.400000
1182.567996	112.800000
1184.648687	124.200000
1186.728886	98.200000
1188.808594	115.400000
1190.887811	115.800000
1192.964646	103.800000
1195.039100	106.400000
1197.116845	120.200000
1199.190321	115.800000
1201.265197	98.000000
1203.335806	97.800000
1205.407816	117.600000
1207.477451	97.600000
1209.548486	114.400000
1211.619033	127.600000
1213.685319	111.200000
1215.753006	107.200000
1217.818321	104.600000
1219.885036	97.000000
1221.947495	89.200000
1224.013239	106.200000
1226.074729	105.600000
1228.137620	90.000000
1230.198143	118.200000
1232.258182	82.400000
1234.317739	86.800000
1236.374930	73.000000
1238.431640	90.200000
1240.485986	94.400000
1242.543614	104.200000
1244.598879	123.400000
1246.649903	102.200000
1248.702327	107.800000
1250.754271	99.600000
1252.803857	101.400000
1254.852964	106.000000
1256.901593	83.800000
1258.949743	104.600000
1260.997414	77.400000
1263.040855	95.200000
1265.087572	80.000000
1267.131935	78.200000
1269.175822	103.000000
1271.217357	106.000000
1273.256543	80.200000
1275.299002	69.800000
1277.337238	104.200000
1279.376873	73.400000
1281.416033	78.200000
1283.450974	106.400000
1285.487314	81.000000
1287.521310	105.400000
1289.556703	95.800000
1291.587884	83.600000
1293.620462	84.600000
1295.652569	122.400000
1297.682335	95.000000
1299.713498	92.800000
1301.740455	94.400000
1303.768809	103.800000
1305.792958	86.000000
1307.820373	124.000000
1309.843585	107.600000
1311.868195	95.800000
1313.890471	87.600000
1315.914144	89.000000
1317.935484	105.000000
1319.956356	95.800000
1321.976761	86.400000
1323.992973	118.200000
1326.010582	96.600000
1328.025863	111.600000
1330.044403	76.600000
1332.058754	102.200000
1334.070779	88.000000
1336.086061	98.000000
1338.097158	109.400000
1340.109652	104.400000
1342.117963	92.000000
1344.129529	94.800000
1346.135057	94.600000
1348.143840	106.600000
1350.148445	85.000000
1352.156304	95.400000
1354.163701	98.400000
1356.165067	96.400000
1358.167829	87.400000
1360.170132	95.600000
1362.171975	104.600000
1364.173358	105.200000
1366.172428	112.400000
1368.171039	97.400000
1370.169192	101.400000
1372.166886	105.400000
1374.160418	84.200000
1376.155345	79.400000
1378.149816	81.000000
1380.143830	93.600000
1382.135537	96.600000
1384.126789	116.200000
1386.115735	76.600000
1388.106076	108.000000
1390.095962	88.000000
1392.083544	105.600000
1394.070673	79.600000
1396.055500	109.800000
1398.041722	127.600000
1400.025644	96.800000
1402.009113	63.400000
1403.992129	93.400000
1405.972848	69.200000
1407.954961	104.000000
1409.934778	92.200000
1411.914143	81.800000
1413.889370	102.000000
1415.867835	94.400000
1417.844007	93.800000
1419.819730	84.200000
1421.795003	91.000000
1423.767985	100.800000
1425.740519	71.400000
1427.712605	91.000000
1429.684244	104.000000
1431.651754	85.200000
1433.624338	100.000000
1435.589116	100.400000
1437.558967	88.600000
1439.524694	87.600000
1441.491813	83.000000
1443.456649	76.600000
1445.417365	109.000000
1447.383149	98.800000
1449.342978	81.400000
1451.304201	89.200000
1453.266816	89.400000
1455.225316	81.200000
1457.183373	85.800000
1459.140989	80.800000
1461.098162	85.800000
1463.053060	106.800000
1465.009351	82.400000
1466.963367	80.400000
1468.916942	111.400000
1470.868245	108.600000
1472.820941	102.600000
1474.771364	83.600000
1476.721349	96.400000
1478.670895	71.000000
1480.618172	82.800000
1482.563181	95.800000
1484.509583	82.800000
1486.455547	86.200000
1488.401074	68.400000
1490.344335	80.000000
1492.287161	87.000000
1494.227723	78.400000
1496.169676	74.000000
1498.109367	98.000000
1500.048624	88.000000
1501.987445	76.000000
1503.924007	78.000000
1505.861960	81.600000
1507.797654	91.400000
1509.732915	93.600000
1511.665920	72.800000
1513.598492	76.800000
1515.530632	110.800000
1517.462340	100.400000
1519.391794	87.200000
1521.322639	94.600000
1523.253052	100.600000
1525.179393	84.800000
1527.107125	78.000000
1529.032606	70.000000
1530.957658	87.600000
1532.882281	97.800000
1534.806475	94.600000
1536.728421	103.800000
1538.651758	75.800000
1540.572848	84.800000
1542.491694	93.800000
1544.411930	84.600000
1546.329923	78.200000
1548.247489	106.200000
1550.162813	93.600000
1552.079527	68.200000
1553.992186	85.400000
1555.908049	94.000000
1557.821672	92.600000
1559.733057	109.400000
1561.645832	66.600000
1563.554557	68.800000
1565.464671	96.800000
1567.374362	94.600000
1569.283630	85.200000
1571.190664	69.200000
1573.095465	101.400000
1575.001655	89.200000
1576.905613	73.600000
1578.809150	93.200000
1580.712267	92.600000
1582.613154	107.600000
1584.515430	89.400000
1586.415478	110.600000
1588.316913	81.600000
1590.214315	81.400000
1592.111298	87.200000
1594.007863	89.000000
1595.905816	63.000000
1597.797934	89.800000
1599.693245	85.400000
1601.588139	63.000000
1603.480811	85.200000
1605.373066	66.800000
1607.263102	86.400000
1609.152722	74.200000
1611.041927	72.600000
1612.930717	105.000000
1614.817289	96.600000
1616.705249	86.600000
1618.589192	76.200000
1620.474522	79.200000
1622.359439	90.800000
1624.242142	92.600000
1626.126232	89.200000
1628.006310	77.000000
1629.887776	97.400000
1631.767031	98.600000
1633.647672	120.800000
1635.522509	115.600000
1637.402327	78.600000
1639.278141	86.000000
1641.153544	83.000000
1643.030333	95.400000
1644.901326	85.600000
1646.775500	54.000000
1648.645675	67.600000
1650.519032	78.800000
1652.390184	95.200000
1654.259136	76.800000
1656.129472	105.800000
1657.995816	86.200000
1659.863545	84.200000
1661.729075	58.400000
1663.595991	84.000000
1665.458918	86.200000
1667.323230	88.600000
1669.185346	68.000000
1671.047057	67.000000
1672.910154	98.000000
1674.771055	82.000000
1676.629764	85.200000
1678.488069	99.400000
1680.347759	94.600000
1682.201681	88.400000
1684.058777	83.800000
1685.915470	72.600000
1687.768186	65.600000
1689.624074	76.800000
1691.475988	83.000000
1693.327501	86.200000
1695.178613	70.200000
1697.029325	76.400000
1698.879635	88.400000
1700.727762	87.600000
1702.577273	80.000000
1704.421035	52.800000
1706.269746	77.400000
1708.112711	86.800000
1709.958843	80.600000
1711.801012	79.400000
1713.646347	84.000000
1715.485941	86.600000
1717.326919	82.400000
1719.169280	68.800000
1721.007685	89.200000
1722.847473	61.000000
1724.685086	87.400000
1726.522303	77.400000
1728.357347	109.000000
1730.193774	84.400000
1732.028029	107.000000
1733.861889	84.400000
1735.695355	70.400000
1737.524876	88.000000
1739.357555	92.800000
1741.186290	89.200000
1743.018182	88.200000
1744.846132	85.800000
1746.673691	92.000000
1748.500857	83.400000
1750.327632	73.200000
1752.154015	75.800000
1753.976462	67.400000
1755.802064	89.400000
1757.623731	65.600000
1759.446780	74.200000
1761.267667	71.200000
1763.088166	59.200000
1764.910045	82.400000
1766.726226	86.800000
1768.545558	90.600000
1770.360963	74.400000
1772.179518	71.800000
1773.994148	75.600000
1775.808391	87.000000
1777.622248	64.800000
1779.435718	98.200000
1781.247035	71.400000
1783.059732	98.800000
1784.872044	90.000000
1786.680438	69.000000
1788.490212	86.200000
1790.296072	55.200000
1792.105077	82.800000
1793.910169	70.200000
1795.716642	61.200000
1797.522731	93.200000
1799.324909	71.800000
1801.130232	73.200000
1802.931646	75.000000
1804.734440	79.600000
1806.533328	79.000000
1808.333597	62.400000
1810.133484	59.000000
1811.931229	108.400000
1813.728594	63.600000
1815.525579	86.400000
1817.322183	92.800000
1819.116648	77.600000
1820.912492	93.000000
1822.702681	93.000000
1824.497767	86.400000
1826.287201	106.200000
1828.079771	66.000000
1829.870206	73.800000
1831.658507	74.800000
1833.449943	88.600000
1835.235733	62.200000
1837.022903	79.400000
1838.807941	86.600000
1840.596113	85.800000
1842.380399	92.800000
1844.162555	98.800000
1845.946091	82.400000
1847.727498	91.200000
1849.510284	57.200000
1851.289189	87.200000
1853.069474	89.400000
1854.847632	89.200000
1856.627169	78.600000
1858.404581	73.000000
1860.179869	81.200000
1861.956535	65.600000
1863.731079	86.200000
1865.507001	96.600000
1867.277302	100.400000
1869.050731	83.600000
1870.822040	67.200000
1872.592978	83.600000
1874.365294	101.000000
1876.131996	78.800000
1877.901824	78.600000
1879.667788	79.000000
1881.436875	102.800000
1883.202101	96.800000
1884.966959	72.400000
1886.733194	52.600000
1888.495570	71.800000
1890.257579	106.200000
1892.019220	68.000000
1893.780495	100.600000
1895.541402	111.600000
1897.301943	63.400000
1899.060374	81.400000
1900.818439	56.000000
1902.574397	95.800000
1904.331731	82.000000
1906.088700	84.200000
1907.843562	40.800000
1909.596320	67.600000
1911.348713	86.600000
1913.102483	90.800000
1914.854149	76.200000
1916.603713	77.600000
1918.354652	85.000000
1920.105229	71.800000
1921.851966	78.000000
1923.600080	73.600000
1925.346094	72.000000
1927.093483	72.800000
1928.838775	80.400000
1930.581969	78.400000
1932.326538	68.600000
1934.069012	82.000000
1935.811125	90.000000
1937.552878	65.000000
1939.294271	93.400000
1941.033571	58.200000
1942.772512	79.200000
1944.511094	63.200000
1946.247585	79.600000
1947.983718	78.500000
1949.721225	77.400000
1951.454910	75.000000
1953.189970	88.000000
1954.922941	100.800000
1956.655556	70.400000
1958.387815	93.000000
1960.119717	87.000000
1961.849533	78.400000
1963.577264	65.200000
1965.306370	70.600000
1967.035121	81.800000
1968.761788	89.000000
1970.488101	91.200000
1972.215787	65.400000
1973.937937	86.600000
1975.663188	100.200000
1977.384632	62.800000
1979.109177	44.000000
1980.831641	71.600000
1982.550303	68.800000
1984.272063	68.000000
1985.990021	55.600000
1987.709352	80.800000
1989.424884	88.400000
1991.145236	76.800000
1992.861790	84.400000
1994.574547	91.600000
1996.290400	70.400000
1998.004181	92.000000
1999.717612	79.400000
2001.428972	82.000000
2003.141704	75.000000
2004.850646	78.400000
2006.562680	51.200000
2008.269206	102.400000
2009.978823	74.200000
2011.686374	59.400000
2013.393576	65.600000
2015.098713	102.400000
2016.803504	80.000000
2018.509666	93.600000
2020.212046	92.200000
2021.915797	69.400000
2023.617486	58.600000
2025.318830	68.600000
2027.019828	63.800000
2028.718765	80.200000
2030.419074	75.800000
2032.115608	85.400000
2033.813513	77.800000
2035.509359	86.600000
2037.208291	112.800000
2038.901737	79.400000
2040.596554	76.400000
2042.291029	74.800000
2043.981735	81.800000
2045.675525	80.000000
2047.365548	70.800000
2049.056942	66.000000
2050.746283	70.200000
2052.436994	79.200000
2054.123942	81.600000
2055.810551	62.600000
2057.498529	69.600000
2059.182748	78.800000
2060.868338	56.000000
2062.553588	85.000000
2064.236789	77.800000
2065.921361	76.200000
2067.600470	76.200000
2069.284364	73.000000
2070.962797	80.200000
2072.644308	55.000000
2074.322067	47.600000
2075.999490	69.800000
2077.678282	58.400000
2079.355032	103.000000
2081.029740	67.800000
2082.705817	75.400000
2084.379853	75.000000
2086.053555	67.200000
2087.726921	66.800000
2089.398248	64.200000
2091.069241	97.800000
2092.739900	84.600000
2094.410225	75.400000
2096.080216	73.000000
2097.748171	84.400000
2099.415793	83.200000
2101.081380	69.200000
2102.748336	73.200000
2104.413259	79.800000
2106.077850	60.600000
2107.740409	64.200000
2109.404336	77.800000
2111.066232	70.800000
2112.727798	79.000000
2114.389032	57.200000
2116.048238	81.600000
2117.707113	48.600000
2119.365659	84.400000
2121.023874	66.200000
2122.678367	66.800000
2124.335924	64.400000
2125.993152	73.800000
2127.646658	80.400000
2129.301532	85.600000
2130.952687	73.800000
2132.606905	59.800000
2134.257406	54.000000
2135.909273	96.800000
2137.555732	61.600000
2139.206946	62.200000
2140.854446	49.200000
2142.503313	79.200000
2144.150161	78.800000
2145.796684	75.400000
2147.442881	93.600000
2149.085370	62.200000
2150.730917	61.200000
2152.372757	72.200000
2154.017654	86.200000
2155.658845	70.600000
2157.299714	70.400000
2158.940258	80.400000
2160.578790	50.200000
2162.218688	67.800000
2163.854886	58.200000
2165.492450	86.200000
2167.129692	99.800000
2168.764924	96.800000
2170.399835	77.000000
2172.034423	69.600000
2173.668691	73.200000
2175.299265	61.200000
2176.932891	87.800000
2178.562825	88.600000
2180.194124	86.400000
2181.823418	69.600000
2183.452393	33.000000
2185.081048	68.000000
2186.709384	93.200000
2188.335718	66.000000
2189.961733	71.800000
2191.585746	77.600000
2193.211125	66.800000
2194.834503	88.800000
2196.459246	69.400000
2198.080308	86.000000
2199.701053	78.000000
2201.323163	56.600000
2202.943275	74.600000
2204.561390	65.600000
2206.179190	57.400000
2207.796675	64.800000
2209.413844	52.200000
2211.030698	63.600000
2212.647236	60.400000
2214.261782	91.200000
2215.874335	64.600000
2217.488252	60.000000
2219.100178	65.400000
2220.713467	63.800000
2222.324766	85.800000
2223.934075	72.800000
2225.544748	66.400000
2227.153432	66.600000
2228.761803	77.400000
2230.368188	97.200000
2231.975936	80.000000
2233.581697	46.600000
2235.187147	69.000000
2236.790612	65.000000
2238.395440	72.800000
2239.998284	59.800000
2241.599145	60.600000
2243.201369	86.000000
2244.801611	63.600000
2246.403215	76.400000
2248.001166	72.600000
2249.600480	90.000000
2251.197814	94.000000
2252.794840	64.600000
2254.393228	63.200000
2255.987967	77.000000
2257.580729	64.000000
2259.174854	100.000000
2260.770340	58.800000
2262.362181	63.000000
2263.953716	69.200000
2265.546613	56.600000
2267.134200	54.800000
2268.726483	86.600000
2270.313460	88.000000
2271.903464	65.200000
2273.488164	86.000000
2275.077558	67.000000
2276.661650	75.800000
2278.247102	69.000000
2279.830586	73.200000
2281.417095	88.400000
2282.999971	58.800000
2284.582544	70.600000
2286.164813	61.400000
2287.743452	67.400000
2289.325116	75.000000
2290.903151	84.800000
2292.484209	55.200000
2294.061640	64.000000
2295.637108	72.800000
2297.215598	77.200000
2298.790464	71.800000
2300.365029	69.200000
2301.939294	54.800000
2303.513258	77.600000
2305.086921	65.600000
2306.660285	68.200000
2308.230030	49.200000
2309.799476	94.000000
2311.371940	48.400000
2312.939130	77.600000
2314.509338	72.800000
2316.075931	76.000000
2317.643884	72.400000
2319.209881	81.200000
2320.775581	60.400000
2322.340983	61.600000
2323.904432	68.600000
2325.469240	60.400000
2327.030440	90.800000
2328.594654	64.600000
2330.153606	43.400000
2331.715573	65.800000
2333.275588	53.000000
2334.835309	61.800000
2336.393080	59.800000
2337.950556	72.000000
2339.507738	77.800000
2341.062972	67.200000
2342.617913	45.800000
2344.172559	88.600000
2345.726912	68.800000
2347.280972	99.800000
2348.834737	65.400000
2350.386558	71.000000
2351.936437	54.200000
2353.489323	71.800000
2355.036966	51.800000
2356.587618	93.000000
2358.134678	63.200000
2359.683096	73.400000
2361.231223	73.400000
2362.775761	47.000000
2364.321657	77.200000
2365.865615	98.000000
2367.410930	56.200000
2368.952660	68.600000
2370.495747	67.400000
2372.036898	85.200000
2373.577760	65.000000
2375.118333	66.400000
2376.658617	62.800000
2378.198612	67.000000
2379.735029	79.400000
2381.274447	68.600000
2382.810287	77.400000
2384.347485	60.800000
2385.881107	62.600000
2387.417729	81.400000
2388.952421	86.200000
2390.485183	69.800000
2392.017658	96.800000
2393.548205	54.600000
2395.081750	70.600000
2396.610084	59.200000
2398.139774	71.200000
2399.669179	54.800000
2401.198299	63.000000
2402.727134	69.200000
2404.250763	49.600000
2405.779028	80.000000
2407.302091	62.200000
2408.829787	68.800000
2410.350644	59.400000
2411.876134	100.200000
2413.398063	79.200000
2414.921348	74.000000
2416.442711	66.600000
2417.962155	93.600000
2419.482954	74.600000
2421.001835	86.600000
2422.520433	76.800000
2424.037114	72.200000
2425.555149	63.600000
2427.072903	79.000000
2428.587106	63.000000
2430.101028	67.400000
2431.614670	100.800000
2433.129667	62.000000
2434.641115	44.800000
2436.153918	51.000000
2437.664807	66.200000
2439.175418	87.200000
2440.684117	71.600000
2442.195802	64.600000
2443.703944	61.600000
2445.211808	80.200000
2446.719394	53.400000
2448.223439	67.200000
2449.730469	72.200000
2451.235591	49.000000
2452.740436	65.600000
2454.243374	53.000000
2455.746036	77.400000
2457.248421	68.600000
2458.748901	75.200000
2460.250734	74.400000
2461.750662	75.400000
2463.250315	47.600000
2464.749693	71.200000
2466.247168	72.000000
2467.742741	64.000000
2469.241294	88.000000
2470.736319	53.200000
2472.232696	57.800000
2473.725547	85.200000
2475.219751	61.000000
2476.713681	62.200000
2478.204087	68.400000
2479.697471	61.800000
2481.188957	91.400000
2482.678546	75.800000
2484.167863	64.600000
2485.655284	75.400000
2487.145681	82.200000
2488.632560	93.000000
2490.120790	70.000000
2491.605503	71.200000
2493.089947	59.600000
2494.575741	63.400000
2496.059644	81.400000
2497.544897	56.600000
2499.025017	62.000000
2500.508110	64.200000
2501.989312	42.200000
2503.470245	74.200000
2504.949289	74.800000
2506.428064	64.600000
2507.906571	62.400000
2509.384810	48.600000
2510.862780	52.200000
2512.337245	62.600000
2513.814680	63.800000
2515.288611	72.000000
2516.763892	55.800000
2518.238906	85.400000
2519.710419	54.200000
2521.183283	81.000000
2522.654264	59.200000
2524.126595	81.200000
2525.593812	89.200000
2527.063996	72.800000
2528.532299	56.400000
2530.000337	88.800000
2531.468110	51.600000
2532.935618	66.600000
2534.402861	70.600000
2535.866612	86.000000
2537.331713	76.000000
2538.794937	64.200000
2540.259510	68.800000
2541.720595	53.200000
2543.183029	55.800000
2544.645200	58.000000
2546.103885	62.200000
2547.567141	77.600000
2549.025302	69.000000
2550.484811	83.000000
2551.939226	48.800000
2553.398212	57.400000
2554.855326	52.400000
2556.310569	72.000000
2557.765550	58.400000
2559.218663	47.400000
2560.673124	81.000000
2562.125715	80.600000
2563.578047	69.800000
2565.028512	50.000000
2566.481932	71.600000
2567.930270	74.200000
2569.381563	38.800000
2570.830991	74.600000
2572.276946	77.000000
2573.725856	59.800000
2575.171296	73.000000
2576.618083	85.800000
2578.063008	95.200000
2579.507674	62.800000
2580.953688	47.600000
2582.396236	65.000000
2583.840131	58.200000
2585.280561	63.400000
2586.722338	80.800000
2588.162256	80.600000
2589.603521	85.600000
2591.041324	55.600000
2592.482077	78.400000
2593.917768	45.600000
2595.356408	59.000000
2596.793190	93.600000
2598.228117	53.200000
2599.665991	67.800000
2601.098808	85.400000
2602.532972	55.200000
2603.965282	59.000000
2605.398938	70.400000
2606.830741	51.800000
2608.262290	45.000000
2609.693587	76.000000
2611.123031	69.600000
2612.552223	83.600000
2613.979565	66.800000
2615.408252	74.400000
2616.836688	90.400000
2618.261676	69.600000
2619.688011	85.000000
2621.112497	61.600000
2622.538329	54.600000
2623.960717	57.600000
2625.384451	65.000000
2626.806338	57.600000
2628.227976	87.000000
2629.647768	52.200000
2631.068906	61.400000
2632.489794	48.000000
2633.907244	53.400000
2635.327633	57.000000
2636.744585	75.200000
2638.161288	63.200000
2639.577743	62.600000
2640.993950	89.000000
2642.409909	59.200000
2643.824027	65.600000
2645.237897	52.600000
2646.649929	49.800000
2648.063304	44.200000
2649.473250	79.800000
2650.886132	94.400000
2652.295585	73.800000
2653.704792	53.600000
2655.112163	77.200000
2656.522468	64.400000
2657.930938	82.400000
2659.337572	61.600000
2660.743961	64.200000
2662.148516	52.400000
2663.554415	67.200000
2664.958481	68.200000
2666.362302	79.000000
2667.765879	63.400000
2669.167625	62.000000
2670.570714	71.400000
2671.970385	86.800000
2673.371400	53.400000
2674.768999	59.600000
2676.169527	71.800000
2677.566641	58.400000
2678.965098	83.200000
2680.361728	66.200000
2681.758115	45.600000
2683.154260	79.000000
2684.548579	60.000000
2685.944241	64.600000
2687.336494	84.400000
2688.730089	66.600000
2690.121860	76.200000
2691.514974	69.600000
2692.906264	79.800000
2694.295731	49.800000
2695.684958	61.800000
2697.073946	76.800000
2698.464275	64.400000
2699.849621	69.600000
2701.237890	64.200000
2702.624339	70.000000
2704.010549	62.000000
2705.396520	86.000000
2706.779093	64.000000
2708.163008	74.400000
2709.546685	78.200000
2710.930123	66.200000
2712.310167	43.400000
2713.691551	76.000000
2715.071121	62.800000
2716.452031	63.600000
2717.831127	68.000000
2719.208409	48.800000
2720.587032	59.400000
2721.963842	48.600000
2723.340415	72.200000
2724.716753	45.800000
2726.091280	54.000000
2727.467147	64.800000
2728.839627	75.600000
2730.215023	46.800000
2731.585459	65.600000
2732.957236	59.800000
2734.328778	77.000000
2735.698512	62.000000
2737.069587	47.000000
2738.438853	74.600000
2739.807886	65.600000
2741.175113	46.800000
2742.542106	53.600000
2743.908867	53.200000
2745.275396	76.400000
2746.640119	78.800000
2748.004610	81.400000
2749.368870	69.400000
2750.732897	60.000000
2752.096693	54.800000
2753.457115	45.600000
2754.820447	65.800000
2756.178837	68.400000
2757.540137	68.000000
2758.898067	62.000000
2760.258905	52.600000
2761.617944	27.400000
2762.973614	66.000000
2764.332192	59.600000
2765.687403	51.000000
2767.042385	57.400000
2768.395571	51.000000
2769.751662	74.200000
2771.104390	66.800000
2772.456890	54.800000
2773.809161	57.800000
2775.162770	77.400000
2776.513019	73.000000
2777.861473	68.400000
2779.212833	60.800000
2780.560833	61.800000
2781.910171	69.200000
2783.257717	75.200000
2784.605037	66.000000
2785.952130	54.200000
2787.297432	63.800000
2788.642507	37.200000
2789.987357	55.600000
2791.331981	85.200000
2792.673253	58.200000
2794.015863	57.200000
2795.358247	69.800000
2796.700406	69.200000
2798.039216	97.200000
2799.380926	58.200000
2800.719288	66.000000
2802.058986	63.200000
2803.396900	59.800000
2804.733029	57.200000
2806.068934	76.000000
2807.406177	75.200000
2808.741636	58.800000
2810.076872	73.800000
2811.410325	54.600000
2812.745115	83.800000
2814.076565	49.600000
2815.410910	48.400000
2816.740357	65.200000
2818.071141	54.600000
2819.401703	60.400000
2820.730486	57.600000
2822.060605	44.000000
2823.388946	65.400000
2824.717066	74.800000
2826.043408	34.800000
2827.371087	70.200000
2828.695432	55.400000
2830.021114	81.800000
2831.345020	63.000000
2832.668707	47.800000
2833.993729	77.400000
2835.315421	78.600000
2836.636895	53.600000
2837.958150	37.000000
2839.279186	55.200000
2840.598449	53.200000
2841.919048	50.800000
2843.237876	70.400000
2844.556485	54.400000
2845.873323	54.400000
2847.189944	32.000000
2848.506348	69.400000
2849.820982	50.600000
2851.136952	66.400000
2852.449601	68.000000
2853.763585	70.200000
2855.077353	49.800000
2856.390904	54.200000
2857.702689	64.400000
2859.012707	82.800000
2860.324060	64.600000
2861.632098	68.200000
2862.941470	71.800000
2864.250628	51.000000
2865.559570	68.800000
2866.866748	72.200000
2868.172164	58.000000
2869.478913	79.000000
2870.783901	61.600000
2872.088675	52.600000
2873.391687	73.800000
2874.697580	45.400000
2875.998619	84.600000
2877.300992	58.400000
2878.601605	36.800000
2879.903552	42.200000
2881.205285	76.000000
2882.503715	47.800000
2883.803478	60.800000
2885.101484	43.600000
2886.399278	70.800000
2887.695316	62.800000
2888.992687	45.000000
2890.288302	51.600000
2891.583706	66.000000
2892.878899	57.000000
2894.170795	74.800000
2895.465567	50.600000
2896.757042	58.800000
2898.049850	52.400000
2899.342448	41.600000
2900.631752	64.400000
2901.922388	55.400000
2903.211273	60.000000
2904.501490	51.400000
2905.788416	62.000000
2907.076674	58.000000
2908.363183	27.400000
2909.649483	57.800000
2910.935576	48.000000
2912.219920	59.600000
2913.507135	53.000000
2914.789524	58.400000
2916.073245	69.400000
2917.355220	64.400000
2918.636987	59.000000
2919.917010	51.400000
2921.199902	49.400000
2922.481049	67.400000
2923.758914	68.000000
2925.039648	68.400000
2926.317101	80.200000
2927.594348	80.800000
2928.869853	59.800000
2930.148226	58.800000
2931.421785	62.200000
2932.698211	38.400000
2933.972896	54.000000
2935.245840	58.200000
2936.520116	60.200000
2937.792652	56.000000
2939.064983	65.800000
2940.334042	52.800000
2941.605966	50.200000
2942.876152	61.000000
2944.146134	51.600000
2945.415913	47.600000
2946.683956	58.000000
2947.950262	30.600000
2949.216367	37.600000
2950.483801	53.800000
2951.749501	57.200000
2953.014998	64.000000
2954.280293	63.000000
2955.542323	42.600000
2956.805683	38.400000
2958.068842	71.200000
2959.330269	66.400000
2960.593025	50.000000
2961.854049	33.400000
2963.113343	65.400000
2964.372437	54.800000
2965.631330	46.200000
2966.890023	75.400000
2968.148516	39.200000
2969.405280	53.600000
2970.661844	67.400000
2971.916681	65.400000
2973.172846	60.000000
2974.425757	72.000000
2975.679997	40.400000
2976.934037	51.400000
2978.186353	51.600000
2979.438469	36.000000
2980.688861	58.600000
2981.942108	41.800000
2983.190578	53.600000
2984.441903	67.000000
2985.689978	57.600000
2986.937857	32.800000
2988.185538	77.400000
2989.433022	53.600000
2990.678785	63.200000
2991.924352	60.200000
2993.171246	49.000000
2994.414896	61.000000
2995.659874	55.800000
2996.901608	48.000000
2998.146194	45.800000
2999.389061	50.400000
3000.628687	58.200000
3001.871163	50.000000
3003.110399	51.600000
3004.350963	63.200000
3005.589810	57.400000
3006.828463	77.000000
3008.065400	55.400000
3009.303665	79.600000
3010.540214	61.400000
3011.776570	55.800000
3013.012732	41.200000
3014.247180	54.600000
3015.481436	43.800000
3016.715498	73.800000
3017.947848	57.400000
3019.178486	62.200000
3020.411970	51.200000
3021.643742	58.400000
3022.873804	57.000000
3024.103673	35.200000
3025.331833	53.800000
3026.561320	48.800000
3027.789097	60.800000
3029.016683	72.800000
3030.245596	30.600000
3031.469766	46.400000
3032.696779	49.600000
3033.920568	52.800000
3035.145684	60.400000
3036.369093	27.200000
3037.592312	74.200000
3038.813826	50.200000
3040.038181	55.000000
3041.257801	45.000000
3042.478747	63.000000
3043.699504	36.400000
3044.918557	79.400000
3046.138935	49.800000
3047.356097	50.400000
3048.574585	50.400000
3049.791370	56.200000
3051.007968	61.800000
3052.224377	48.000000
3053.437574	48.800000
3054.653608	47.800000
3055.866430	58.800000
3057.082089	72.000000
3058.293025	65.400000
3059.505286	53.000000
3060.717361	61.600000
3061.929248	34.600000
3063.139439	50.200000
3064.349443	50.000000
3065.559261	62.800000
3066.767383	66.000000
3067.975320	66.200000
3069.181561	41.400000
3070.389127	50.400000
3071.594998	62.500000
3072.800685	74.600000
3074.006186	27.000000
3075.209994	66.000000
3076.415126	59.400000
3077.618565	61.200000
3078.820313	63.000000
3080.021876	81.200000
3081.223256	55.800000
3082.424452	42.200000
3083.623958	47.400000
3084.823281	60.200000
3086.023927	58.000000
3087.222883	43.400000
3088.418645	61.800000
3089.617236	68.600000
3090.812633	41.800000
3092.009353	61.200000
3093.202881	58.000000
3094.399237	51.200000
3095.593907	63.200000
3096.785385	68.200000
3097.981196	55.000000
3099.172312	41.400000
3100.364752	54.400000
3101.554004	59.600000
3102.746081	54.200000
3103.936475	60.800000
3105.123683	72.000000
3106.312213	53.600000
3107.502066	68.400000
3108.688735	48.200000
3109.875223	64.400000
3111.061533	37.400000
3112.249164	56.400000
3113.433613	86.200000
3114.616383	55.000000
3115.801975	45.200000
3116.985888	47.800000
3118.168122	67.200000
3119.350177	50.400000
3120.532054	34.400000
3121.713753	39.000000
3122.893775	69.200000
3124.072120	34.400000
3125.253285	42.000000
3126.431275	46.400000
3127.609089	84.800000
3128.786725	74.200000
3129.962686	73.000000
3131.138470	61.400000
3132.315576	50.000000
3133.491007	57.000000
3134.664765	60.400000
3135.836850	46.600000
3137.010257	70.000000
3138.183487	49.600000
3139.355046	31.600000
3140.527925	49.000000
3141.697637	54.600000
3142.868670	50.200000
3144.038033	69.200000
3145.205725	56.600000
3146.376233	46.800000
3147.542083	29.200000
3148.712241	52.600000
3149.877743	57.800000
3151.043070	57.600000
3152.208224	45.000000
3153.373205	63.800000
3154.539505	73.600000
3155.701153	45.200000
3156.864120	43.600000
3158.026915	36.800000
3159.189537	50.600000
3160.350494	79.200000
3161.511278	44.000000
3162.671890	62.000000
3163.830838	60.600000
3164.989615	64.000000
3166.148220	50.400000
3167.306652	56.000000
3168.464914	62.000000
3169.621513	69.200000
3170.776451	86.600000
3171.932708	43.600000
3173.087304	37.000000
3174.241730	39.000000
3175.394496	57.200000
3176.547091	64.600000
3177.699517	72.200000
3178.851773	49.400000
3180.003858	32.200000
3181.152798	61.600000
3182.304544	69.600000
3183.454632	37.400000
3184.603064	51.600000
3185.751326	74.600000
3186.899420	39.000000
3188.047345	64.000000
3189.193614	60.000000
3190.339715	60.600000
3191.484162	70.600000
3192.628441	65.600000
3193.772552	54.200000
3194.917980	83.400000
3196.060270	43.600000
3197.202393	64.600000
3198.344348	50.000000
3199.486136	34.600000
3200.627757	32.200000
3201.766243	61.400000
3202.906046	55.000000
3204.047167	47.200000
3205.185153	43.400000
3206.321490	57.200000
3207.457661	66.800000
3208.595149	44.200000
3209.730989	36.600000
3210.868146	52.800000
3212.000690	51.800000
3213.137516	53.000000
3214.269730	51.200000
3215.403261	54.200000
3216.536628	40.400000
3217.666867	64.600000
3218.799904	33.000000
3219.929815	62.200000
3221.061042	60.600000
3222.189145	81.000000
3223.320044	74.400000
3224.449299	38.000000
3225.576911	47.800000
3226.701400	81.200000
3227.830165	52.200000
3228.955808	76.800000
3230.081289	57.000000
3231.205128	57.600000
3232.331761	47.400000
3233.453797	57.800000
3234.577149	54.400000
3235.700339	51.800000
3236.823366	58.600000
3237.944755	50.600000
3239.065981	71.800000
3240.185570	51.800000
3241.304997	36.800000
3242.422786	39.200000
3243.543367	68.600000
3244.660835	67.600000
3245.778142	53.400000
3246.895289	64.200000
3248.010800	63.600000
3249.127625	46.000000
3250.241341	60.200000
3251.357846	69.000000
3252.472717	65.200000
3253.584479	76.800000
3254.696081	76.800000
3255.808999	53.200000
3256.921757	61.600000
3258.031409	62.600000
3259.142376	41.400000
3260.253184	68.600000
3261.362360	26.600000
3262.469906	57.600000
3263.578765	56.200000
3264.687467	82.200000
3265.793066	38.000000
3266.899979	54.000000
3268.005263	31.000000
3269.111861	67.400000
3270.215359	65.200000
3271.320172	79.400000
3272.424827	70.600000
3273.526383	58.800000
3274.627783	57.400000
3275.730497	74.800000
3276.833055	69.800000
3277.932516	79.600000
3279.034761	38.000000
3280.133910	46.200000
3281.231435	33.400000
3282.328804	53.600000
3283.428955	41.200000
3284.526014	61.200000
3285.622917	41.400000
3286.719665	57.200000
3287.811855	29.800000
3288.908293	46.200000
3290.003109	47.400000
3291.097771	50.800000
3292.190811	52.600000
3293.283696	46.000000
3294.374962	50.600000
3295.467539	81.000000
3296.558497	65.000000
3297.647835	75.800000
3298.737020	47.000000
3299.827518	63.600000
3300.914931	62.400000
3302.002191	57.200000
3303.090764	41.000000
3304.179185	85.400000
3305.263058	71.600000
3306.351173	36.600000
3307.436206	48.000000
3308.519624	87.200000
3309.604354	50.000000
3310.687468	46.600000
3311.771895	49.200000
3312.853243	54.600000
3313.935903	52.800000
3315.016949	36.800000
3316.097844	46.200000
3317.177125	35.200000
3318.256256	60.000000
3319.336699	54.600000
3320.414067	55.600000
3321.492747	64.600000
3322.569815	62.200000
3323.646734	48.800000
3324.722041	56.000000
3325.797199	60.800000
3326.873668	56.000000
3327.947067	40.800000
3329.020317	55.000000
3330.094877	58.200000
3331.167829	59.600000
3332.239172	50.200000
3333.311826	20.400000
3334.381414	54.800000
3335.452312	55.800000
3336.521603	77.200000
3337.592205	57.600000
3338.661200	46.600000
3339.728589	52.200000
3340.794373	60.200000
3341.864383	41.800000
3342.931330	45.800000
3343.995215	56.600000
3345.061868	42.800000
3346.126916	66.600000
3347.190361	58.600000
3348.253660	44.800000
3349.316812	66.000000
3350.379818	36.200000
3351.442678	53.000000
3352.503936	38.800000
3353.562137	52.400000
3354.624558	55.400000
3355.683924	29.800000
3356.743144	47.200000
3357.803673	46.200000
3358.859694	53.800000
3359.918478	70.200000
3360.972755	64.200000
3362.029796	67.000000
3363.085238	44.800000
3364.141990	50.400000
3365.197143	62.600000
3366.250699	45.400000
3367.302659	59.400000
3368.357380	64.000000
3369.409052	37.000000
3370.460581	49.000000
3371.513418	47.800000
3372.563208	65.200000
3373.614307	29.400000
3374.662360	37.200000
3375.713172	29.400000
3376.760940	61.200000
3377.808565	47.800000
3378.856047	36.000000
3379.901937	54.200000
3380.949135	39.400000
3381.993291	49.800000
3383.040205	52.400000
3384.085527	42.600000
3385.127808	58.600000
3386.169949	69.600000
3387.213397	56.000000
3388.256704	84.600000
3389.298422	80.800000
3390.339998	37.600000
3391.381433	34.000000
3392.421280	58.200000
3393.459538	69.400000
3394.499104	15.600000
3395.538530	73.600000
3396.576368	58.600000
3397.612619	86.400000
3398.648731	73.600000
3399.686150	76.800000
3400.720536	51.200000
3401.756229	66.800000
3402.791783	45.200000
3403.824306	55.000000
3404.859582	35.600000
3405.891827	55.600000
3406.923934	58.200000
3407.954457	66.200000
3408.986287	46.200000
3410.017979	47.200000
3411.046643	53.000000
3412.075170	65.400000
3413.105003	56.600000
3414.134699	49.600000
3415.161369	49.600000
3416.189346	48.000000
3417.214298	40.600000
3418.242000	68.800000
3419.266679	44.200000
3420.292664	41.000000
3421.317069	57.000000
3422.341338	35.200000
3423.364028	51.800000
3424.386582	39.000000
3425.410442	57.800000
3426.431282	44.400000
3427.451986	40.600000
3428.473997	70.600000
3429.492989	42.600000
3430.511845	60.400000
3431.532008	56.400000
3432.549154	66.000000
