-116.707459	2.800000
-114.037859	10.200000
-111.371194	13.000000
-108.705281	-6.200000
-106.042300	6.200000
-103.377890	31.600000
-100.716410	10.200000
-98.053501	8.800000
-95.395698	-11.200000
-92.736466	8.400000
-90.077982	-0.200000
-87.422422	14.800000
-84.765434	6.800000
-82.113544	-1.600000
-79.460224	-11.400000
-76.809823	8.000000
-74.157993	12.400000
-71.511254	-11.400000
-68.863086	-1.600000
-66.215660	38.200000
-63.571148	5.200000
-60.925208	11.200000
-58.284349	4.400000
-55.642061	-4.200000
-53.002682	-6.600000
-50.361873	5.600000
-47.721805	15.400000
-45.086809	8.000000
-42.450385	12.600000
-39.816863	9.600000
-37.181913	0.600000
-34.552028	9.200000
-31.918551	2.000000
-29.290136	14.600000
-26.662455	15.400000
-24.033345	5.600000
-21.409292	6.000000
-18.781650	23.000000
-16.159061	-3.800000
-13.537204	3.400000
-10.916077	17.800000
-8.295680	37.600000
-5.678172	85.600000
-3.059235	243.000000
-0.443183	536.400000
2.172140	535.200000
4.786736	257.600000
7.398449	49.400000
10.011591	5.000000
12.619699	25.200000
15.231389	6.800000
17.838048	37.600000
20.446135	-2.000000
23.053498	-0.800000
25.655836	4.600000
28.261752	24.200000
30.862646	-15.200000
33.464968	21.400000
36.062273	14.400000
38.663153	10.600000
41.259018	-8.000000
43.856312	26.400000
46.452886	18.600000
49.044451	31.600000
51.637444	-14.000000
54.227576	18.200000
56.819136	23.400000
59.407836	9.000000
61.997963	14.000000
64.583091	11.600000
67.169647	-10.800000
69.755489	4.200000
72.338477	11.600000
74.922891	9.200000
77.500177	5.400000
80.081029	15.400000
82.659032	-4.000000
85.236325	28.400000
87.815044	35.000000
90.388781	8.600000
92.963946	9.200000
95.536267	1.200000
98.107880	3.600000
100.676653	1.800000
103.246853	8.600000
105.814215	10.600000
108.383002	-4.600000
110.948953	15.000000
113.512069	18.000000
116.078741	16.400000
118.636192	7.600000
121.199328	26.000000
123.757504	56.000000
126.319235	67.600000
128.876009	66.600000
131.434210	112.200000
133.987457	149.400000
136.540007	268.000000
139.096107	342.200000
141.647259	455.600000
144.197714	563.000000
146.747471	623.600000
149.294409	665.800000
151.840652	678.800000
154.388320	732.800000
156.935292	742.400000
159.477329	709.200000
162.018672	740.000000
164.559322	694.600000
167.101398	724.600000
169.640662	756.400000
172.177118	739.600000
174.712882	700.800000
177.250072	694.600000
179.786571	720.600000
182.320264	700.600000
184.851153	696.800000
187.381355	709.200000
189.912981	668.400000
192.441806	705.600000
194.967832	691.400000
197.493172	681.200000
200.019937	708.000000
202.543906	714.800000
205.067190	700.000000
207.589789	714.800000
210.109595	690.600000
212.628718	692.000000
215.147158	689.800000
217.667022	715.800000
220.179885	726.400000
222.696279	706.800000
225.211991	671.400000
227.722813	706.800000
230.235060	717.600000
232.744525	699.600000
235.253311	682.000000
237.761418	706.000000
240.270950	712.800000
242.775601	736.400000
245.279576	696.800000
247.784975	703.000000
250.285499	725.600000
252.789547	720.600000
255.286623	697.000000
257.787223	714.400000
260.285051	734.200000
262.782206	696.600000
265.278688	720.400000
267.770307	705.000000
270.265446	715.200000
272.757818	755.000000
275.249520	712.200000
277.738459	732.400000
280.228822	692.600000
282.716422	733.400000
285.201263	713.400000
287.689619	687.600000
290.171035	693.800000
292.655965	692.200000
295.136050	707.800000
297.619647	713.400000
300.098401	711.000000
302.578579	692.800000
305.056004	723.000000
307.532766	728.800000
310.008865	689.400000
312.482215	658.600000
314.954903	677.000000
317.426930	691.400000
319.898296	704.200000
322.366917	727.000000
324.834880	703.200000
327.304264	667.200000
329.768826	697.000000
332.236892	719.800000
334.700138	683.400000
337.162726	687.400000
339.624658	695.600000
342.085933	705.200000
344.544474	703.800000
347.004437	707.400000
349.461667	677.600000
351.918243	677.800000
354.374165	724.200000
356.827357	699.200000
359.281972	639.800000
361.731785	696.800000
364.185094	696.000000
366.633605	652.200000
369.081464	654.000000
371.530746	664.600000
373.975234	636.200000
376.421144	633.000000
378.866404	640.000000
381.308946	602.400000
383.750840	617.400000
386.192087	612.800000
388.630618	605.600000
391.070571	616.600000
393.507810	605.600000
395.942337	596.400000
398.380352	593.000000
400.813590	565.200000
403.248249	593.800000
405.678136	588.200000
408.111508	547.000000
410.540110	586.600000
412.968070	582.600000
415.397452	569.200000
417.822068	559.000000
420.248106	545.000000
422.673503	529.800000
425.098260	570.400000
427.518259	549.400000
429.939679	582.400000
432.358402	539.600000
434.778546	534.800000
437.195995	553.400000
439.614864	566.200000
442.031040	572.600000
444.442468	501.000000
446.857374	543.400000
449.269589	499.400000
451.681170	548.200000
454.092117	557.400000
456.500378	516.000000
458.908006	527.800000
461.315002	541.200000
463.721367	556.200000
466.125049	499.800000
468.528101	522.400000
470.930523	521.800000
473.332315	533.800000
475.731430	536.800000
478.131964	548.000000
480.531869	529.400000
482.927051	525.600000
485.325700	526.600000
487.719629	504.800000
490.112932	510.800000
492.505609	504.400000
494.897661	514.000000
497.291131	520.600000
499.679889	498.200000
502.065981	522.600000
504.453493	486.600000
506.840382	505.400000
509.224607	511.600000
511.610250	509.800000
513.993232	473.600000
516.373553	512.400000
518.755293	488.600000
521.134374	507.400000
523.514874	490.200000
525.892716	496.600000
528.267903	503.000000
530.642472	489.200000
533.018459	478.200000
535.391794	477.400000
537.766546	472.800000
540.136613	449.600000
542.506064	469.000000
544.876933	444.000000
547.243122	457.800000
549.610729	495.600000
551.975690	454.400000
554.340038	454.800000
556.703773	467.000000
559.068926	449.800000
561.429407	431.600000
563.791306	425.000000
566.150564	441.200000
568.507185	441.000000
570.867250	413.400000
573.220624	402.400000
575.577443	408.800000
577.931627	390.200000
580.285202	353.800000
582.638170	392.400000
584.988505	366.200000
587.340258	395.400000
589.685334	369.000000
592.035874	351.600000
594.379740	366.600000
596.729068	350.200000
599.073747	362.000000
601.415802	369.600000
603.759274	347.400000
606.100123	366.400000
608.440370	358.800000
610.777996	360.800000
613.119057	349.400000
615.455480	377.000000
617.793320	366.800000
620.128543	344.000000
622.461150	349.400000
624.795173	371.800000
627.126582	330.000000
629.457393	335.800000
631.787607	326.400000
634.117222	336.600000
636.442214	349.000000
638.772648	361.000000
641.098461	341.200000
643.421666	342.400000
645.746288	334.200000
648.068304	351.800000
650.389726	361.800000
652.708546	326.800000
655.028781	347.000000
657.348423	385.400000
659.665464	359.000000
661.981913	364.800000
664.295764	344.400000
666.611031	371.200000
668.923701	335.800000
671.237786	358.000000
673.547271	351.000000
675.858172	388.800000
678.166480	347.400000
680.474200	367.400000
682.783334	355.600000
685.087876	381.600000
687.391832	369.400000
689.695202	391.600000
691.999986	419.200000
694.300184	383.200000
696.601796	377.800000
698.902823	378.400000
701.199269	401.600000
703.497130	396.000000
705.794407	402.200000
708.091101	421.800000
710.383219	410.400000
712.678748	419.200000
714.969703	407.200000
717.262073	408.800000
719.551868	402.400000
721.841082	419.000000
724.129717	412.800000
726.415779	432.400000
728.703256	392.800000
730.988161	430.200000
733.272489	408.200000
735.554248	434.000000
737.837421	431.800000
740.120017	419.000000
742.398057	436.600000
744.677512	441.200000
746.956390	470.800000
749.234694	467.000000
751.508448	460.200000
753.783615	456.000000
756.058209	423.600000
758.330244	464.000000
760.603692	457.000000
762.874582	477.200000
765.142916	477.200000
767.412663	461.000000
769.679856	493.400000
771.946478	490.000000
774.212530	515.400000
776.476031	507.000000
778.740945	507.600000
781.005289	508.400000
783.265104	511.200000
785.526331	513.000000
787.786991	477.400000
790.045105	545.000000
792.300674	510.800000
794.559634	505.600000
796.812095	539.600000
799.069922	529.800000
801.323231	508.000000
803.574000	529.400000
805.826181	536.800000
808.075823	544.800000
810.326878	534.000000
812.573421	551.000000
814.821376	520.200000
817.066797	541.000000
819.313629	544.000000
821.559900	531.400000
823.801666	541.400000
826.046816	547.400000
828.285493	519.000000
830.527552	560.000000
832.765113	533.200000
835.004086	555.600000
837.240532	529.600000
839.478389	560.400000
841.713721	540.400000
843.946530	563.600000
846.180750	584.000000
848.412447	554.000000
850.643590	585.800000
852.874178	608.000000
855.104212	603.600000
857.333692	604.200000
859.558690	596.800000
861.787063	620.000000
864.010956	596.400000
866.236261	663.200000
868.457090	640.400000
870.681291	649.800000
872.901019	655.400000
875.122157	676.800000
877.342745	671.000000
879.560824	696.400000
881.780312	689.200000
883.995334	728.800000
886.209808	710.600000
888.423735	745.400000
890.637115	736.200000
892.849947	747.800000
895.062233	736.200000
897.272016	732.600000
899.481254	772.800000
901.689947	757.800000
903.896141	757.400000
906.103744	748.200000
908.308849	740.200000
910.513411	715.000000
912.715478	724.800000
914.918954	760.600000
917.119936	709.000000
919.320376	719.200000
921.522225	668.800000
923.717683	665.000000
925.916500	649.400000
928.110878	599.600000
930.308614	612.200000
932.501914	627.600000
934.696623	615.200000
936.888846	600.000000
939.080530	601.200000
941.271677	590.200000
943.460341	573.800000
945.648469	575.800000
947.834116	568.000000
950.023115	555.400000
952.207691	574.600000
954.391732	584.000000
956.579123	570.200000
958.758210	572.600000
960.940648	563.600000
963.122552	560.200000
965.301981	577.400000
967.478938	558.200000
969.657303	553.600000
971.837075	525.800000
974.010498	560.400000
976.187267	557.800000
978.359629	547.800000
980.533399	594.400000
982.702765	512.200000
984.875475	559.600000
987.045720	531.800000
989.215436	551.200000
991.384623	504.400000
993.549413	505.600000
995.717544	494.000000
997.881281	472.600000
1000.046424	456.200000
1002.209108	443.400000
1004.371267	447.800000
1006.530969	464.600000
1008.690146	446.600000
1010.850730	463.800000
1013.008859	430.600000
1015.166465	414.000000
1017.323547	435.600000
1019.480105	364.200000
1021.632284	385.200000
1023.785870	368.000000
1025.938934	393.000000
1028.089549	369.800000
1030.241571	365.000000
1032.389219	354.800000
1034.540199	372.800000
1036.686808	364.800000
1038.832898	353.800000
1040.978470	356.400000
1043.125447	370.600000
1045.266135	362.400000
1047.410153	322.800000
1049.551730	366.800000
1051.692791	333.000000
1053.835256	347.000000
1055.971442	313.000000
1058.110953	379.800000
1060.246110	332.600000
1062.384591	339.200000
1064.518718	335.600000
1066.652332	327.400000
1068.787351	326.600000
1070.918020	334.200000
1073.050094	302.600000
1075.179739	323.200000
1077.308872	340.400000
1079.437493	275.600000
1081.565603	299.200000
1083.691287	296.000000
1085.816461	301.200000
1087.943039	269.400000
1090.065279	271.600000
1092.188924	299.200000
1094.308234	267.000000
1096.432774	270.400000
1098.551068	266.800000
1100.670767	263.600000
1102.788047	283.600000
1104.904821	273.000000
1107.021088	276.200000
1109.134939	252.400000
1111.250195	254.000000
1113.361127	261.800000
1115.475372	235.600000
1117.585296	202.800000
1119.696624	228.200000
1121.807447	220.400000
1123.913954	198.800000
1126.023771	213.200000
1128.129273	203.400000
1130.236178	211.800000
1132.336868	227.400000
1134.442770	217.200000
1136.544363	211.000000
1138.647359	200.200000
1140.749854	177.800000
1142.846142	195.400000
1144.947637	185.000000
1147.044830	187.600000
1149.141525	173.400000
1151.237721	173.200000
1153.333420	181.600000
1155.428620	157.800000
1157.521424	175.600000
1159.615631	183.400000
1161.703646	146.200000
1163.796859	176.200000
1165.883884	139.800000
1167.974208	153.400000
1170.060244	151.800000
1172.149579	170.800000
1174.232732	150.000000
1176.317287	154.400000
1178.403244	123.600000
1180.484919	147.600000
1182.567996	129.400000
1184.648687	150.200000
1186.728886	116.800000
1188.808594	139.800000
1190.887811	121.000000
1192.964646	133.200000
1195.039100	120.600000
1197.116845	122.800000
1199.190321	104.200000
1201.265197	117.400000
1203.335806	146.200000
1205.407816	128.800000
1207.477451	131.800000
1209.548486	134.400000
1211.619033	130.600000
1213.685319	147.000000
1215.753006	121.800000
1217.818321	134.800000
1219.885036	146.000000
1221.947495	127.200000
1224.013239	113.800000
1226.074729	139.400000
1228.137620	120.000000
1230.198143	110.000000
1232.258182	131.800000
1234.317739	101.800000
1236.374930	95.000000
1238.431640	137.000000
1240.485986	116.600000
1242.543614	122.000000
1244.598879	122.800000
1246.649903	154.600000
1248.702327	127.200000
1250.754271	119.200000
1252.803857	111.400000
1254.852964	112.400000
1256.901593	93.600000
1258.949743	138.600000
1260.997414	113.600000
1263.040855	128.800000
1265.087572	131.600000
1267.131935	122.800000
1269.175822	119.600000
1271.217357	136.800000
1273.256543	129.400000
1275.299002	110.000000
1277.337238	117.400000
1279.376873	126.000000
1281.416033	101.200000
1283.450974	123.800000
1285.487314	131.800000
1287.521310	118.000000
1289.556703	117.600000
1291.587884	129.000000
1293.620462	115.000000
1295.652569	111.400000
1297.682335	135.400000
1299.713498	124.200000
1301.740455	113.000000
1303.768809	120.600000
1305.792958	121.400000
1307.820373	136.600000
1309.843585	93.600000
1311.868195	158.200000
1313.890471	141.400000
1315.914144	126.200000
1317.935484	107.200000
1319.956356	131.000000
1321.976761	123.600000
1323.992973	118.000000
1326.010582	116.600000
1328.025863	133.400000
1330.044403	100.000000
1332.058754	135.800000
1334.070779	163.200000
1336.086061	124.600000
1338.097158	114.800000
1340.109652	146.000000
1342.117963	133.800000
1344.129529	131.400000
1346.135057	103.400000
1348.143840	126.600000
1350.148445	101.800000
1352.156304	125.000000
1354.163701	123.600000
1356.165067	151.000000
1358.167829	127.400000
1360.170132	115.200000
1362.171975	126.800000
1364.173358	95.000000
1366.172428	107.200000
1368.171039	123.000000
1370.169192	101.800000
1372.166886	135.600000
1374.160418	116.200000
1376.155345	137.400000
1378.149816	120.000000
1380.143830	126.800000
1382.135537	112.000000
1384.126789	147.000000
1386.115735	130.200000
1388.106076	127.200000
1390.095962	132.800000
1392.083544	119.000000
1394.070673	114.200000
1396.055500	119.000000
1398.041722	108.400000
1400.025644	117.000000
1402.009113	113.800000
1403.992129	118.600000
1405.972848	123.200000
1407.954961	121.800000
1409.934778	106.200000
1411.914143	115.600000
1413.889370	113.000000
1415.867835	138.600000
1417.844007	109.400000
1419.819730	121.000000
1421.795003	125.000000
1423.767985	133.600000
1425.740519	96.000000
1427.712605	136.400000
1429.684244	113.600000
1431.651754	121.400000
1433.624338	116.800000
1435.589116	116.200000
1437.558967	114.000000
1439.524694	132.800000
1441.491813	106.000000
1443.456649	133.400000
1445.417365	117.400000
1447.383149	121.200000
1449.342978	116.800000
1451.304201	91.400000
1453.266816	91.000000
1455.225316	119.000000
1457.183373	96.200000
1459.140989	115.000000
1461.098162	89.600000
1463.053060	114.600000
1465.009351	104.200000
1466.963367	113.600000
1468.916942	117.600000
1470.868245	118.000000
1472.820941	117.800000
1474.771364	124.000000
1476.721349	88.600000
1478.670895	136.000000
1480.618172	110.400000
1482.563181	91.000000
1484.509583	92.400000
1486.455547	116.400000
1488.401074	102.800000
1490.344335	111.000000
1492.287161	99.200000
1494.227723	117.800000
1496.169676	94.800000
1498.109367	117.600000
1500.048624	99.000000
1501.987445	96.600000
1503.924007	94.000000
1505.861960	125.400000
1507.797654	95.800000
1509.732915	133.800000
1511.665920	97.200000
1513.598492	131.600000
1515.530632	104.400000
1517.462340	111.800000
1519.391794	91.200000
1521.322639	117.200000
1523.253052	68.600000
1525.179393	121.800000
1527.107125	85.000000
1529.032606	114.200000
1530.957658	87.200000
1532.882281	104.800000
1534.806475	87.800000
1536.728421	98.000000
1538.651758	112.800000
1540.572848	95.000000
1542.491694	86.200000
1544.411930	114.000000
1546.329923	99.800000
1548.247489	108.600000
1550.162813	111.800000
1552.079527	88.800000
1553.992186	102.400000
1555.908049	106.000000
1557.821672	106.400000
1559.733057	127.200000
1561.645832	109.400000
1563.554557	113.800000
1565.464671	109.000000
1567.374362	98.400000
1569.283630	83.600000
1571.190664	87.000000
1573.095465	69.600000
1575.001655	121.200000
1576.905613	111.000000
1578.809150	101.000000
1580.712267	124.600000
1582.613154	73.800000
1584.515430	106.000000
1586.415478	103.800000
1588.316913	96.600000
1590.214315	123.800000
1592.111298	113.200000
1594.007863	88.000000
1595.905816	82.800000
1597.797934	107.600000
1599.693245	111.400000
1601.588139	104.200000
1603.480811	112.000000
1605.373066	95.200000
1607.263102	70.000000
1609.152722	102.400000
1611.041927	97.600000
1612.930717	127.800000
1614.817289	96.600000
1616.705249	97.800000
1618.589192	98.200000
1620.474522	98.000000
1622.359439	107.600000
1624.242142	108.200000
1626.126232	104.800000
1628.006310	84.600000
1629.887776	94.600000
1631.767031	87.200000
1633.647672	97.200000
1635.522509	89.200000
1637.402327	111.600000
1639.278141	113.000000
1641.153544	83.200000
1643.030333	96.400000
1644.901326	110.200000
1646.775500	100.800000
1648.645675	92.800000
1650.519032	93.400000
1652.390184	75.000000
1654.259136	103.600000
1656.129472	106.000000
1657.995816	94.400000
1659.863545	107.400000
1661.729075	110.400000
1663.595991	92.400000
1665.458918	96.200000
1667.323230	99.400000
1669.185346	110.800000
1671.047057	112.200000
1672.910154	100.600000
1674.771055	90.800000
1676.629764	100.800000
1678.488069	97.400000
1680.347759	78.400000
1682.201681	95.800000
1684.058777	97.400000
1685.915470	71.800000
1687.768186	121.400000
1689.624074	69.000000
1691.475988	103.800000
1693.327501	68.800000
1695.178613	103.800000
1697.029325	104.400000
1698.879635	100.000000
1700.727762	107.200000
1702.577273	87.800000
1704.421035	111.800000
1706.269746	111.400000
1708.112711	111.600000
1709.958843	93.800000
1711.801012	121.800000
1713.646347	101.000000
1715.485941	93.400000
1717.326919	84.400000
1719.169280	71.000000
1721.007685	106.600000
1722.847473	87.600000
1724.685086	89.800000
1726.522303	82.000000
1728.357347	97.800000
1730.193774	101.400000
1732.028029	105.000000
1733.861889	82.000000
1735.695355	121.800000
1737.524876	127.600000
1739.357555	108.600000
1741.186290	97.600000
1743.018182	120.000000
1744.846132	82.400000
1746.673691	89.200000
1748.500857	92.400000
1750.327632	129.400000
1752.154015	80.600000
1753.976462	125.200000
1755.802064	105.400000
1757.623731	76.800000
1759.446780	92.200000
1761.267667	121.400000
1763.088166	64.600000
1764.910045	91.000000
1766.726226	113.200000
1768.545558	100.400000
1770.360963	99.000000
1772.179518	102.400000
1773.994148	88.000000
1775.808391	121.800000
1777.622248	87.200000
1779.435718	101.200000
1781.247035	71.200000
1783.059732	95.000000
1784.872044	70.400000
1786.680438	104.600000
1788.490212	96.600000
1790.296072	105.200000
1792.105077	60.000000
1793.910169	125.800000
1795.716642	95.800000
1797.522731	107.200000
1799.324909	91.600000
1801.130232	86.600000
1802.931646	91.600000
1804.734440	101.400000
1806.533328	83.200000
1808.333597	106.400000
1810.133484	104.600000
1811.931229	100.600000
1813.728594	89.800000
1815.525579	135.000000
1817.322183	92.200000
1819.116648	115.000000
1820.912492	96.400000
1822.702681	101.600000
1824.497767	88.600000
1826.287201	94.400000
1828.079771	82.200000
1829.870206	90.200000
1831.658507	81.200000
1833.449943	86.200000
1835.235733	62.800000
1837.022903	98.600000
1838.807941	86.800000
1840.596113	71.000000
1842.380399	75.000000
1844.162555	96.400000
1845.946091	97.600000
1847.727498	78.200000
1849.510284	77.000000
1851.289189	78.000000
1853.069474	69.200000
1854.847632	104.600000
1856.627169	77.000000
1858.404581	91.000000
1860.179869	74.400000
1861.956535	85.200000
1863.731079	101.400000
1865.507001	115.000000
1867.277302	96.400000
1869.050731	90.600000
1870.822040	75.400000
1872.592978	100.600000
1874.365294	75.600000
1876.131996	94.400000
1877.901824	64.400000
1879.667788	101.200000
1881.436875	63.800000
1883.202101	85.000000
1884.966959	128.000000
1886.733194	104.200000
1888.495570	71.200000
1890.257579	105.000000
1892.019220	96.400000
1893.780495	105.400000
1895.541402	105.600000
1897.301943	103.600000
1899.060374	83.600000
1900.818439	80.800000
1902.574397	91.800000
1904.331731	85.600000
1906.088700	111.800000
1907.843562	97.800000
1909.596320	87.000000
1911.348713	96.400000
1913.102483	85.600000
1914.854149	100.800000
1916.603713	86.000000
1918.354652	95.400000
1920.105229	82.800000
1921.851966	88.400000
1923.600080	77.000000
1925.346094	88.600000
1927.093483	91.600000
1928.838775	58.400000
1930.581969	77.600000
1932.326538	98.800000
1934.069012	83.600000
1935.811125	109.000000
1937.552878	95.600000
1939.294271	109.800000
1941.033571	82.800000
1942.772512	87.800000
1944.511094	99.200000
1946.247585	105.800000
1947.983718	93.700000
1949.721225	81.600000
1951.454910	78.000000
1953.189970	91.600000
1954.922941	98.200000
1956.655556	74.400000
1958.387815	73.800000
1960.119717	89.800000
1961.849533	80.200000
1963.577264	74.800000
1965.306370	81.000000
1967.035121	84.000000
1968.761788	75.200000
1970.488101	83.000000
1972.215787	81.800000
1973.937937	95.600000
1975.663188	57.000000
1977.384632	98.000000
1979.109177	81.600000
1980.831641	89.600000
1982.550303	99.600000
1984.272063	88.400000
1985.990021	84.000000
1987.709352	107.400000
1989.424884	83.600000
1991.145236	83.000000
1992.861790	86.000000
1994.574547	106.200000
1996.290400	69.200000
1998.004181	103.000000
1999.717612	91.200000
2001.428972	82.000000
2003.141704	68.600000
2004.850646	76.800000
2006.562680	91.400000
2008.269206	99.000000
2009.978823	98.800000
2011.686374	83.800000
2013.393576	77.800000
2015.098713	87.200000
2016.803504	87.800000
2018.509666	84.000000
2020.212046	63.400000
2021.915797	72.200000
2023.617486	73.000000
2025.318830	73.600000
2027.019828	87.400000
2028.718765	82.800000
2030.419074	96.000000
2032.115608	91.600000
2033.813513	102.400000
2035.509359	92.800000
2037.208291	64.800000
2038.901737	91.400000
2040.596554	79.400000
2042.291029	89.800000
2043.981735	70.400000
2045.675525	135.000000
2047.365548	96.200000
2049.056942	102.600000
2050.746283	97.800000
2052.436994	102.600000
2054.123942	104.600000
2055.810551	92.000000
2057.498529	95.600000
2059.182748	104.600000
2060.868338	84.000000
2062.553588	104.000000
2064.236789	92.600000
2065.921361	110.800000
2067.600470	73.800000
2069.284364	94.800000
2070.962797	89.400000
2072.644308	85.400000
2074.322067	78.200000
2075.999490	82.000000
2077.678282	96.400000
2079.355032	78.000000
2081.029740	72.400000
2082.705817	83.400000
2084.379853	81.400000
2086.053555	91.600000
2087.726921	78.600000
2089.398248	92.200000
2091.069241	81.400000
2092.739900	99.600000
2094.410225	79.200000
2096.080216	89.800000
2097.748171	98.600000
2099.415793	95.800000
2101.081380	91.000000
2102.748336	97.000000
2104.413259	107.600000
2106.077850	97.200000
2107.740409	87.200000
2109.404336	96.200000
2111.066232	105.200000
2112.727798	131.600000
2114.389032	75.600000
2116.048238	102.800000
2117.707113	83.800000
2119.365659	98.000000
2121.023874	90.400000
2122.678367	103.000000
2124.335924	76.600000
2125.993152	99.000000
2127.646658	109.200000
2129.301532	72.400000
2130.952687	102.400000
2132.606905	71.800000
2134.257406	70.400000
2135.909273	91.200000
2137.555732	84.200000
2139.206946	95.800000
2140.854446	93.200000
2142.503313	94.800000
2144.150161	102.400000
2145.796684	91.600000
2147.442881	87.800000
2149.085370	101.000000
2150.730917	129.600000
2152.372757	92.200000
2154.017654	74.800000
2155.658845	83.800000
2157.299714	115.400000
2158.940258	100.200000
2160.578790	85.200000
2162.218688	107.600000
2163.854886	83.600000
2165.492450	82.800000
2167.129692	71.600000
2168.764924	91.200000
2170.399835	77.400000
2172.034423	81.800000
2173.668691	58.600000
2175.299265	92.800000
2176.932891	84.600000
2178.562825	90.400000
2180.194124	87.600000
2181.823418	81.800000
2183.452393	93.600000
2185.081048	64.800000
2186.709384	103.000000
2188.335718	99.800000
2189.961733	62.800000
2191.585746	94.400000
2193.211125	92.200000
2194.834503	76.400000
2196.459246	79.600000
2198.080308	99.600000
2199.701053	87.600000
2201.323163	91.000000
2202.943275	69.400000
2204.561390	113.800000
2206.179190	88.800000
2207.796675	76.000000
2209.413844	84.000000
2211.030698	102.800000
2212.647236	68.600000
2214.261782	102.000000
2215.874335	69.000000
2217.488252	93.800000
2219.100178	74.600000
2220.713467	72.200000
2222.324766	95.400000
2223.934075	98.800000
2225.544748	103.800000
2227.153432	84.400000
2228.761803	101.800000
2230.368188	91.000000
2231.975936	84.200000
2233.581697	58.000000
2235.187147	103.800000
2236.790612	76.000000
2238.395440	82.800000
2239.998284	83.200000
2241.599145	83.200000
2243.201369	71.600000
2244.801611	89.600000
2246.403215	77.000000
2248.001166	66.800000
2249.600480	72.600000
2251.197814	82.000000
2252.794840	86.200000
2254.393228	76.400000
2255.987967	80.200000
2257.580729	70.200000
2259.174854	52.000000
2260.770340	74.600000
2262.362181	78.000000
2263.953716	110.000000
2265.546613	90.600000
2267.134200	94.400000
2268.726483	82.000000
2270.313460	97.400000
2271.903464	102.400000
2273.488164	83.400000
2275.077558	50.000000
2276.661650	63.000000
2278.247102	64.600000
2279.830586	67.400000
2281.417095	73.600000
2282.999971	72.600000
2284.582544	112.400000
2286.164813	82.400000
2287.743452	90.800000
2289.325116	85.200000
2290.903151	100.400000
2292.484209	67.400000
2294.061640	57.600000
2295.637108	47.800000
2297.215598	99.200000
2298.790464	58.200000
2300.365029	71.400000
2301.939294	89.000000
2303.513258	110.600000
2305.086921	81.800000
2306.660285	100.200000
2308.230030	89.600000
2309.799476	84.400000
2311.371940	72.800000
2312.939130	86.200000
2314.509338	66.000000
2316.075931	98.400000
2317.643884	80.600000
2319.209881	60.000000
2320.775581	86.200000
2322.340983	85.200000
2323.904432	90.200000
2325.469240	91.000000
2327.030440	61.200000
2328.594654	83.200000
2330.153606	80.000000
2331.715573	83.200000
2333.275588	83.400000
2334.835309	97.400000
2336.393080	71.200000
2337.950556	93.000000
2339.507738	74.600000
2341.062972	92.200000
2342.617913	106.800000
2344.172559	90.000000
2345.726912	86.000000
2347.280972	80.800000
2348.834737	55.400000
2350.386558	95.000000
2351.936437	87.000000
2353.489323	101.000000
2355.036966	53.600000
2356.587618	80.400000
2358.134678	78.000000
2359.683096	82.200000
2361.231223	73.000000
2362.775761	94.400000
2364.321657	82.000000
2365.865615	93.000000
2367.410930	61.600000
2368.952660	84.000000
2370.495747	106.600000
2372.036898	76.200000
2373.577760	76.600000
2375.118333	94.000000
2376.658617	91.600000
2378.198612	88.400000
2379.735029	99.600000
2381.274447	70.600000
2382.810287	88.000000
2384.347485	71.200000
2385.881107	97.200000
2387.417729	77.000000
2388.952421	78.400000
2390.485183	97.200000
2392.017658	67.600000
2393.548205	85.600000
2395.081750	75.200000
2396.610084	90.200000
2398.139774	74.800000
2399.669179	80.600000
2401.198299	72.600000
2402.727134	74.600000
2404.250763	86.600000
2405.779028	87.200000
2407.302091	71.600000
2408.829787	94.000000
2410.350644	83.600000
2411.876134	92.000000
2413.398063	98.200000
2414.921348	82.400000
2416.442711	81.800000
2417.962155	75.400000
2419.482954	70.000000
2421.001835	80.400000
2422.520433	102.600000
2424.037114	63.000000
2425.555149	99.600000
2427.072903	78.200000
2428.587106	69.400000
2430.101028	89.200000
2431.614670	57.800000
2433.129667	66.800000
2434.641115	57.000000
2436.153918	54.400000
2437.664807	68.600000
2439.175418	93.200000
2440.684117	64.000000
2442.195802	88.400000
2443.703944	87.800000
2445.211808	85.400000
2446.719394	80.800000
2448.223439	70.200000
2449.730469	75.200000
2451.235591	59.000000
2452.740436	76.600000
2454.243374	97.600000
2455.746036	50.600000
2457.248421	75.600000
2458.748901	94.600000
2460.250734	71.000000
2461.750662	58.200000
2463.250315	49.800000
2464.749693	47.000000
2466.247168	84.400000
2467.742741	74.400000
2469.241294	72.800000
2470.736319	68.800000
2472.232696	78.400000
2473.725547	79.800000
2475.219751	90.000000
2476.713681	80.400000
2478.204087	73.600000
2479.697471	86.200000
2481.188957	98.600000
2482.678546	63.600000
2484.167863	71.600000
2485.655284	61.000000
2487.145681	96.600000
2488.632560	57.400000
2490.120790	61.200000
2491.605503	72.800000
2493.089947	79.400000
2494.575741	67.200000
2496.059644	87.400000
2497.544897	60.600000
2499.025017	84.000000
2500.508110	68.000000
2501.989312	94.400000
2503.470245	64.200000
2504.949289	73.000000
2506.428064	91.600000
2507.906571	60.200000
2509.384810	80.200000
2510.862780	67.200000
2512.337245	69.600000
2513.814680	74.800000
2515.288611	89.000000
2516.763892	77.200000
2518.238906	64.600000
2519.710419	93.600000
2521.183283	58.800000
2522.654264	75.200000
2524.126595	79.600000
2525.593812	79.000000
2527.063996	87.800000
2528.532299	69.600000
2530.000337	86.600000
2531.468110	81.400000
2532.935618	101.200000
2534.402861	80.800000
2535.866612	70.400000
2537.331713	78.000000
2538.794937	65.800000
2540.259510	73.000000
2541.720595	71.000000
2543.183029	111.000000
2544.645200	76.000000
2546.103885	73.600000
2547.567141	72.800000
2549.025302	81.400000
2550.484811	60.400000
2551.939226	86.800000
2553.398212	63.800000
2554.855326	65.200000
2556.310569	66.200000
2557.765550	71.200000
2559.218663	80.800000
2560.673124	76.600000
2562.125715	95.000000
2563.578047	86.200000
2565.028512	96.600000
2566.481932	61.600000
2567.930270	92.800000
2569.381563	66.600000
2570.830991	64.400000
2572.276946	70.400000
2573.725856	79.600000
2575.171296	67.800000
2576.618083	64.000000
2578.063008	80.400000
2579.507674	94.400000
2580.953688	56.800000
2582.396236	65.800000
2583.840131	49.000000
2585.280561	77.800000
2586.722338	79.000000
2588.162256	72.400000
2589.603521	62.800000
2591.041324	57.800000
2592.482077	78.600000
2593.917768	63.600000
2595.356408	70.000000
2596.793190	71.400000
2598.228117	68.400000
2599.665991	65.600000
2601.098808	81.000000
2602.532972	55.000000
2603.965282	66.600000
2605.398938	73.600000
2606.830741	75.200000
2608.262290	65.800000
2609.693587	77.000000
2611.123031	65.200000
2612.552223	94.600000
2613.979565	62.000000
2615.408252	84.800000
2616.836688	82.000000
2618.261676	80.200000
2619.688011	69.600000
2621.112497	94.000000
2622.538329	56.600000
2623.960717	67.200000
2625.384451	63.800000
2626.806338	79.600000
2628.227976	73.800000
2629.647768	84.600000
2631.068906	84.200000
2632.489794	95.400000
2633.907244	90.000000
2635.327633	96.400000
2636.744585	69.600000
2638.161288	63.200000
2639.577743	60.600000
2640.993950	58.000000
2642.409909	77.800000
2643.824027	83.000000
2645.237897	52.800000
2646.649929	100.200000
2648.063304	60.000000
2649.473250	80.400000
2650.886132	68.200000
2652.295585	79.400000
2653.704792	72.600000
2655.112163	79.400000
2656.522468	74.400000
2657.930938	109.600000
2659.337572	66.800000
2660.743961	75.400000
2662.148516	65.200000
2663.554415	64.600000
2664.958481	55.200000
2666.362302	107.200000
2667.765879	83.200000
2669.167625	73.000000
2670.570714	63.600000
2671.970385	80.200000
2673.371400	77.200000
2674.768999	63.800000
2676.169527	59.400000
2677.566641	67.400000
2678.965098	70.000000
2680.361728	77.000000
2681.758115	73.800000
2683.154260	95.600000
2684.548579	91.200000
2685.944241	72.200000
2687.336494	71.600000
2688.730089	66.400000
2690.121860	68.000000
2691.514974	70.400000
2692.906264	59.800000
2694.295731	66.800000
2695.684958	60.800000
2697.073946	97.000000
2698.464275	48.400000
2699.849621	103.200000
2701.237890	65.000000
2702.624339	86.000000
2704.010549	89.600000
2705.396520	80.000000
2706.779093	76.600000
2708.163008	66.800000
2709.546685	58.000000
2710.930123	66.600000
2712.310167	85.800000
2713.691551	77.800000
2715.071121	68.800000
2716.452031	63.400000
2717.831127	90.200000
2719.208409	71.000000
2720.587032	85.200000
2721.963842	87.000000
2723.340415	77.200000
2724.716753	80.600000
2726.091280	61.800000
2727.467147	71.000000
2728.839627	63.000000
2730.215023	48.600000
2731.585459	47.400000
2732.957236	76.600000
2734.328778	91.000000
2735.698512	62.400000
2737.069587	59.200000
2738.438853	69.800000
2739.807886	53.400000
2741.175113	75.000000
2742.542106	53.600000
2743.908867	69.600000
2745.275396	57.600000
2746.640119	93.400000
2748.004610	78.200000
2749.368870	73.200000
2750.732897	59.200000
2752.096693	84.200000
2753.457115	40.800000
2754.820447	70.000000
2756.178837	73.000000
2757.540137	73.600000
2758.898067	51.000000
2760.258905	72.200000
2761.617944	72.600000
2762.973614	65.400000
2764.332192	86.600000
2765.687403	96.800000
2767.042385	62.000000
2768.395571	77.800000
2769.751662	56.000000
2771.104390	88.800000
2772.456890	82.000000
2773.809161	68.400000
2775.162770	59.200000
2776.513019	74.400000
2777.861473	70.400000
2779.212833	53.000000
2780.560833	66.800000
2781.910171	49.000000
2783.257717	81.800000
2784.605037	48.200000
2785.952130	55.400000
2787.297432	69.400000
2788.642507	62.800000
2789.987357	67.800000
2791.331981	63.200000
2792.673253	102.600000
2794.015863	67.000000
2795.358247	64.400000
2796.700406	58.400000
2798.039216	74.600000
2799.380926	60.200000
2800.719288	53.800000
2802.058986	73.200000
2803.396900	87.400000
2804.733029	69.400000
2806.068934	66.200000
2807.406177	65.000000
2808.741636	76.000000
2810.076872	56.600000
2811.410325	80.000000
2812.745115	41.000000
2814.076565	71.200000
2815.410910	63.800000
2816.740357	89.400000
2818.071141	77.600000
2819.401703	38.600000
2820.730486	88.400000
2822.060605	82.000000
2823.388946	61.400000
2824.717066	69.000000
2826.043408	71.600000
2827.371087	67.800000
2828.695432	76.800000
2830.021114	71.200000
2831.345020	69.600000
2832.668707	59.000000
2833.993729	61.800000
2835.315421	67.600000
2836.636895	68.600000
2837.958150	76.400000
2839.279186	64.200000
2840.598449	85.200000
2841.919048	61.200000
2843.237876	72.400000
2844.556485	65.600000
2845.873323	64.600000
2847.189944	65.400000
2848.506348	80.200000
2849.820982	42.000000
2851.136952	58.600000
2852.449601	55.000000
2853.763585	59.200000
2855.077353	44.600000
2856.390904	69.000000
2857.702689	75.600000
2859.012707	77.400000
2860.324060	35.600000
2861.632098	60.400000
2862.941470	69.200000
2864.250628	83.000000
2865.559570	69.800000
2866.866748	77.600000
2868.172164	46.800000
2869.478913	71.600000
2870.783901	78.200000
2872.088675	94.800000
2873.391687	73.400000
2874.697580	67.600000
2875.998619	85.200000
2877.300992	68.000000
2878.601605	46.000000
2879.903552	56.600000
2881.205285	64.200000
2882.503715	72.600000
2883.803478	45.800000
2885.101484	80.600000
2886.399278	83.400000
2887.695316	56.600000
2888.992687	70.800000
2890.288302	47.800000
2891.583706	69.600000
2892.878899	70.800000
2894.170795	75.200000
2895.465567	81.400000
2896.757042	62.800000
2898.049850	65.600000
2899.342448	72.000000
2900.631752	96.600000
2901.922388	41.200000
2903.211273	80.400000
2904.501490	76.200000
2905.788416	64.000000
2907.076674	60.600000
2908.363183	65.200000
2909.649483	82.000000
2910.935576	48.000000
2912.219920	64.200000
2913.507135	49.400000
2914.789524	67.000000
2916.073245	65.800000
2917.355220	60.800000
2918.636987	63.400000
2919.917010	72.400000
2921.199902	85.800000
2922.481049	79.600000
2923.758914	93.200000
2925.039648	43.800000
2926.317101	80.600000
2927.594348	70.400000
2928.869853	64.400000
2930.148226	62.200000
2931.421785	105.400000
2932.698211	77.400000
2933.972896	70.600000
2935.245840	59.200000
2936.520116	73.200000
2937.792652	62.200000
2939.064983	64.000000
2940.334042	64.000000
2941.605966	57.600000
2942.876152	64.800000
2944.146134	80.200000
2945.415913	86.800000
2946.683956	75.000000
2947.950262	54.000000
2949.216367	83.200000
2950.483801	93.200000
2951.749501	71.000000
2953.014998	81.800000
2954.280293	96.000000
2955.542323	66.600000
2956.805683	99.200000
2958.068842	54.600000
2959.330269	68.400000
2960.593025	90.800000
2961.854049	69.400000
2963.113343	74.000000
2964.372437	50.800000
2965.631330	59.400000
2966.890023	45.000000
2968.148516	62.600000
2969.405280	82.400000
2970.661844	74.600000
2971.916681	91.200000
2973.172846	67.400000
2974.425757	70.000000
2975.679997	70.400000
2976.934037	93.400000
2978.186353	54.000000
2979.438469	68.800000
2980.688861	70.000000
2981.942108	71.800000
2983.190578	68.200000
2984.441903	74.400000
2985.689978	71.600000
2986.937857	57.600000
2988.185538	43.800000
2989.433022	57.800000
2990.678785	57.800000
2991.924352	90.600000
2993.171246	41.800000
2994.414896	75.600000
2995.659874	65.600000
2996.901608	80.400000
2998.146194	64.200000
2999.389061	71.600000
3000.628687	52.800000
3001.871163	71.200000
3003.110399	64.600000
3004.350963	78.600000
3005.589810	74.200000
3006.828463	58.200000
3008.065400	62.000000
3009.303665	78.000000
3010.540214	84.800000
3011.776570	68.200000
3013.012732	55.200000
3014.247180	41.600000
3015.481436	82.400000
3016.715498	51.200000
3017.947848	60.400000
3019.178486	83.800000
3020.411970	67.000000
3021.643742	68.800000
3022.873804	50.400000
3024.103673	69.600000
3025.331833	44.400000
3026.561320	81.000000
3027.789097	67.800000
3029.016683	58.400000
3030.245596	56.000000
3031.469766	42.000000
3032.696779	94.000000
3033.920568	83.800000
3035.145684	58.800000
3036.369093	70.400000
3037.592312	48.800000
3038.813826	73.600000
3040.038181	64.200000
3041.257801	79.800000
3042.478747	60.000000
3043.699504	59.800000
3044.918557	51.000000
3046.138935	71.200000
3047.356097	58.000000
3048.574585	71.800000
3049.791370	75.600000
3051.007968	52.000000
3052.224377	36.600000
3053.437574	63.200000
3054.653608	58.400000
3055.866430	47.800000
3057.082089	74.800000
3058.293025	69.600000
3059.505286	55.000000
3060.717361	72.000000
3061.929248	73.400000
3063.139439	66.200000
3064.349443	80.400000
3065.559261	77.400000
3066.767383	58.000000
3067.975320	72.400000
3069.181561	63.400000
3070.389127	70.600000
3071.594998	81.400000
3072.800685	92.200000
3074.006186	48.400000
3075.209994	67.400000
3076.415126	51.400000
3077.618565	60.200000
3078.820313	75.800000
3080.021876	87.800000
3081.223256	80.200000
3082.424452	65.800000
3083.623958	63.000000
3084.823281	51.400000
3086.023927	75.800000
3087.222883	59.000000
3088.418645	64.000000
3089.617236	61.000000
3090.812633	65.400000
3092.009353	65.800000
3093.202881	45.600000
3094.399237	52.200000
3095.593907	52.600000
3096.785385	72.000000
3097.981196	58.800000
3099.172312	62.200000
3100.364752	70.800000
3101.554004	84.200000
3102.746081	71.800000
3103.936475	51.600000
3105.123683	58.200000
3106.312213	63.000000
3107.502066	78.600000
3108.688735	82.200000
3109.875223	82.200000
3111.061533	67.800000
3112.249164	45.000000
3113.433613	57.800000
3114.616383	62.800000
3115.801975	63.400000
3116.985888	50.600000
3118.168122	46.400000
3119.350177	71.600000
3120.532054	69.000000
3121.713753	51.400000
3122.893775	45.400000
3124.072120	58.000000
3125.253285	50.200000
3126.431275	46.600000
3127.609089	79.600000
3128.786725	83.400000
3129.962686	70.200000
3131.138470	63.800000
3132.315576	41.400000
3133.491007	48.800000
3134.664765	65.800000
3135.836850	41.000000
3137.010257	64.600000
3138.183487	55.800000
3139.355046	72.600000
3140.527925	50.800000
3141.697637	72.600000
3142.868670	71.000000
3144.038033	51.400000
3145.205725	65.200000
3146.376233	81.800000
3147.542083	61.200000
3148.712241	82.000000
3149.877743	54.800000
3151.043070	70.200000
3152.208224	63.400000
3153.373205	58.200000
3154.539505	80.600000
3155.701153	65.800000
3156.864120	32.800000
3158.026915	59.800000
3159.189537	70.000000
3160.350494	61.800000
3161.511278	58.200000
3162.671890	60.000000
3163.830838	49.800000
3164.989615	70.200000
3166.148220	70.000000
3167.306652	36.600000
3168.464914	62.600000
3169.621513	78.800000
3170.776451	50.800000
3171.932708	43.800000
3173.087304	51.600000
3174.241730	58.600000
3175.394496	69.600000
3176.547091	69.600000
3177.699517	80.400000
3178.851773	61.600000
3180.003858	65.800000
3181.152798	47.800000
3182.304544	58.800000
3183.454632	42.600000
3184.603064	60.400000
3185.751326	39.200000
3186.899420	78.200000
3188.047345	78.600000
3189.193614	72.200000
3190.339715	59.400000
3191.484162	80.200000
3192.628441	77.000000
3193.772552	39.000000
3194.917980	51.400000
3196.060270	47.200000
3197.202393	59.400000
3198.344348	65.000000
3199.486136	80.800000
3200.627757	54.400000
3201.766243	48.600000
3202.906046	38.800000
3204.047167	65.000000
3205.185153	78.000000
3206.321490	83.600000
3207.457661	54.200000
3208.595149	68.200000
3209.730989	66.000000
3210.868146	68.200000
3212.000690	84.200000
3213.137516	58.400000
3214.269730	64.400000
3215.403261	64.200000
3216.536628	72.200000
3217.666867	39.800000
3218.799904	56.200000
3219.929815	51.400000
3221.061042	31.600000
3222.189145	45.000000
3223.320044	60.200000
3224.449299	61.000000
3225.576911	57.200000
3226.701400	62.200000
3227.830165	27.800000
3228.955808	74.400000
3230.081289	59.600000
3231.205128	64.600000
3232.331761	22.600000
3233.453797	68.800000
3234.577149	57.800000
3235.700339	57.000000
3236.823366	47.000000
3237.944755	45.400000
3239.065981	39.200000
3240.185570	55.400000
3241.304997	36.800000
3242.422786	40.400000
3243.543367	61.000000
3244.660835	77.000000
3245.778142	50.400000
3246.895289	60.600000
3248.010800	61.800000
3249.127625	62.800000
3250.241341	35.600000
3251.357846	76.600000
3252.472717	59.800000
3253.584479	73.800000
3254.696081	56.000000
3255.808999	51.400000
3256.921757	59.600000
3258.031409	74.200000
3259.142376	48.200000
3260.253184	75.400000
3261.362360	53.600000
3262.469906	50.200000
3263.578765	46.000000
3264.687467	114.600000
3265.793066	73.600000
3266.899979	53.800000
3268.005263	53.800000
3269.111861	60.800000
3270.215359	44.200000
3271.320172	69.000000
3272.424827	50.600000
3273.526383	66.600000
3274.627783	54.000000
3275.730497	44.600000
3276.833055	32.800000
3277.932516	72.800000
3279.034761	28.000000
3280.133910	45.800000
3281.231435	43.200000
3282.328804	72.800000
3283.428955	69.000000
3284.526014	74.400000
3285.622917	36.000000
3286.719665	63.000000
3287.811855	56.400000
3288.908293	82.800000
3290.003109	49.600000
3291.097771	49.600000
3292.190811	48.200000
3293.283696	73.400000
3294.374962	53.400000
3295.467539	47.000000
3296.558497	50.000000
3297.647835	84.600000
3298.737020	26.000000
3299.827518	82.600000
3300.914931	70.400000
3302.002191	62.600000
3303.090764	52.000000
3304.179185	91.200000
3305.263058	52.600000
3306.351173	64.200000
3307.436206	61.800000
3308.519624	55.400000
3309.604354	53.400000
3310.687468	39.800000
3311.771895	49.400000
3312.853243	62.600000
3313.935903	62.800000
3315.016949	81.800000
3316.097844	77.200000
3317.177125	69.200000
3318.256256	65.200000
3319.336699	94.600000
3320.414067	46.800000
3321.492747	71.000000
3322.569815	50.400000
3323.646734	58.400000
3324.722041	40.800000
3325.797199	64.000000
3326.873668	71.200000
3327.947067	73.000000
3329.020317	41.800000
3330.094877	72.800000
3331.167829	60.000000
3332.239172	75.400000
3333.311826	85.800000
3334.381414	76.200000
3335.452312	50.600000
3336.521603	65.000000
3337.592205	50.000000
3338.661200	56.600000
3339.728589	60.800000
3340.794373	70.200000
3341.864383	37.200000
3342.931330	56.400000
3343.995215	60.600000
3345.061868	56.800000
3346.126916	63.200000
3347.190361	36.200000
3348.253660	49.200000
3349.316812	80.600000
3350.379818	56.600000
3351.442678	66.400000
3352.503936	60.000000
3353.562137	31.000000
3354.624558	64.400000
3355.683924	68.200000
3356.743144	87.600000
3357.803673	63.600000
3358.859694	70.600000
3359.918478	71.800000
3360.972755	52.400000
3362.029796	81.400000
3363.085238	60.400000
3364.141990	60.800000
3365.197143	57.200000
3366.250699	25.800000
3367.302659	76.600000
3368.357380	37.400000
3369.409052	57.400000
3370.460581	77.000000
3371.513418	65.400000
3372.563208	92.000000
3373.614307	65.400000
3374.662360	63.000000
3375.713172	45.600000
3376.760940	54.200000
3377.808565	60.600000
3378.856047	63.600000
3379.901937	56.000000
3380.949135	59.400000
3381.993291	58.200000
3383.040205	48.800000
3384.085527	73.000000
3385.127808	87.800000
3386.169949	59.600000
3387.213397	88.600000
3388.256704	71.200000
3389.298422	82.800000
3390.339998	66.800000
3391.381433	68.400000
3392.421280	67.000000
3393.459538	62.200000
3394.499104	49.000000
3395.538530	60.000000
3396.576368	50.200000
3397.612619	62.200000
3398.648731	53.000000
3399.686150	71.400000
3400.720536	54.200000
3401.756229	68.200000
3402.791783	70.400000
3403.824306	49.400000
3404.859582	51.200000
3405.891827	59.000000
3406.923934	59.800000
3407.954457	71.400000
3408.986287	70.200000
3410.017979	70.600000
3411.046643	67.200000
3412.075170	71.000000
3413.105003	63.200000
3414.134699	58.600000
3415.161369	59.600000
3416.189346	88.400000
3417.214298	62.400000
3418.242000	71.200000
3419.266679	78.600000
3420.292664	35.800000
3421.317069	78.400000
3422.341338	86.600000
3423.364028	58.200000
3424.386582	79.800000
3425.410442	47.200000
3426.431282	69.800000
3427.451986	73.200000
3428.473997	76.000000
3429.492989	47.800000
3430.511845	73.600000
3431.532008	69.000000
3432.549154	46.600000
