-116.707459	1.200000
-114.037859	0.400000
-111.371194	3.600000
-108.705281	2.400000
-106.042300	-12.000000
-103.377890	3.200000
-100.716410	-26.400000
-98.053501	-16.000000
-95.395698	7.600000
-92.736466	9.400000
-90.077982	-3.600000
-87.422422	14.600000
-84.765434	11.400000
-82.113544	-2.000000
-79.460224	0.000000
-76.809823	-1.200000
-74.157993	-12.400000
-71.511254	8.600000
-68.863086	3.400000
-66.215660	11.200000
-63.571148	-0.400000
-60.925208	1.200000
-58.284349	-25.200000
-55.642061	-15.800000
-53.002682	-16.200000
-50.361873	-6.000000
-47.721805	-7.400000
-45.086809	6.800000
-42.450385	5.400000
-39.816863	-10.400000
-37.181913	3.000000
-34.552028	4.200000
-31.918551	11.800000
-29.290136	5.000000
-26.662455	6.200000
-24.033345	8.000000
-21.409292	6.000000
-18.781650	13.000000
-16.159061	36.600000
-13.537204	33.800000
-10.916077	31.600000
-8.295680	110.800000
-5.678172	382.000000
-3.059235	1240.600000
-0.443183	2661.800000
2.172140	3025.000000
4.786736	1390.400000
7.398449	141.200000
10.011591	9.000000
12.619699	9.800000
15.231389	14.000000
17.838048	5.000000
20.446135	-2.400000
23.053498	12.000000
25.655836	-10.800000
28.261752	-3.600000
30.862646	-7.800000
33.464968	-15.000000
36.062273	-9.200000
38.663153	11.200000
41.259018	-20.400000
43.856312	39.000000
46.452886	-25.600000
49.044451	4.600000
51.637444	0.400000
54.227576	17.800000
56.819136	13.200000
59.407836	-13.800000
61.997963	18.800000
64.583091	11.400000
67.169647	-1.400000
69.755489	15.000000
72.338477	-1.000000
74.922891	1.200000
77.500177	-7.600000
80.081029	11.200000
82.659032	-8.000000
85.236325	3.600000
87.815044	10.000000
90.388781	11.000000
92.963946	2.600000
95.536267	6.200000
98.107880	-9.600000
100.676653	17.000000
103.246853	7.800000
105.814215	-12.600000
108.383002	8.400000
110.948953	1.800000
113.512069	13.600000
116.078741	-0.200000
118.636192	13.200000
121.199328	29.400000
123.757504	51.800000
126.319235	62.600000
128.876009	74.600000
131.434210	117.000000
133.987457	194.800000
136.540007	286.600000
139.096107	400.600000
141.647259	528.000000
144.197714	651.800000
146.747471	753.800000
149.294409	855.600000
151.840652	861.800000
154.388320	889.600000
156.935292	924.400000
159.477329	876.600000
162.018672	919.400000
164.559322	873.600000
167.101398	871.600000
169.640662	882.400000
172.177118	887.400000
174.712882	844.000000
177.250072	836.200000
179.786571	845.800000
182.320264	874.200000
184.851153	877.400000
187.381355	847.200000
189.912981	812.800000
192.441806	864.400000
194.967832	832.200000
197.493172	868.400000
200.019937	829.800000
202.543906	900.400000
205.067190	815.400000
207.589789	886.000000
210.109595	820.400000
212.628718	861.200000
215.147158	818.600000
217.667022	823.400000
220.179885	826.600000
222.696279	869.400000
225.211991	866.400000
227.722813	849.800000
230.235060	841.800000
232.744525	819.800000
235.253311	837.400000
237.761418	836.200000
240.270950	813.000000
242.775601	855.000000
245.279576	862.400000
247.784975	858.600000
250.285499	872.800000
252.789547	846.000000
255.286623	850.800000
257.787223	865.000000
260.285051	851.600000
262.782206	883.400000
265.278688	871.000000
267.770307	866.600000
270.265446	840.400000
272.757818	859.800000
275.249520	854.800000
277.738459	884.800000
280.228822	861.600000
282.716422	824.000000
285.201263	875.400000
287.689619	845.400000
290.171035	841.000000
292.655965	855.600000
295.136050	849.400000
297.619647	824.400000
300.098401	884.800000
302.578579	852.800000
305.056004	884.400000
307.532766	858.000000
310.008865	842.400000
312.482215	833.400000
314.954903	833.000000
317.426930	823.400000
319.898296	865.800000
322.366917	878.600000
324.834880	856.000000
327.304264	870.800000
329.768826	838.000000
332.236892	890.400000
334.700138	860.000000
337.162726	846.800000
339.624658	870.400000
342.085933	886.200000
344.544474	858.400000
347.004437	848.600000
349.461667	882.200000
351.918243	845.000000
354.374165	825.000000
356.827357	863.800000
359.281972	827.800000
361.731785	883.600000
364.185094	827.800000
366.633605	789.400000
369.081464	784.800000
371.530746	781.000000
373.975234	769.800000
376.421144	794.000000
378.866404	768.000000
381.308946	775.800000
383.750840	750.400000
386.192087	728.400000
388.630618	747.400000
391.070571	744.400000
393.507810	705.000000
395.942337	734.600000
398.380352	710.600000
400.813590	717.400000
403.248249	697.000000
405.678136	707.400000
408.111508	713.000000
410.540110	718.000000
412.968070	700.600000
415.397452	700.600000
417.822068	671.400000
420.248106	701.200000
422.673503	697.000000
425.098260	675.200000
427.518259	688.600000
429.939679	700.000000
432.358402	671.600000
434.778546	693.200000
437.195995	698.600000
439.614864	693.600000
442.031040	670.200000
444.442468	692.400000
446.857374	675.600000
449.269589	667.200000
451.681170	660.800000
454.092117	681.200000
456.500378	667.000000
458.908006	676.400000
461.315002	699.800000
463.721367	647.000000
466.125049	613.000000
468.528101	667.200000
470.930523	690.000000
473.332315	664.600000
475.731430	631.000000
478.131964	648.200000
480.531869	664.000000
482.927051	644.200000
485.325700	656.600000
487.719629	666.200000
490.112932	608.000000
492.505609	673.600000
494.897661	656.800000
497.291131	616.200000
499.679889	617.400000
502.065981	690.600000
504.453493	636.200000
506.840382	646.000000
509.224607	616.000000
511.610250	644.800000
513.993232	620.400000
516.373553	634.800000
518.755293	617.200000
521.134374	643.000000
523.514874	619.200000
525.892716	640.000000
528.267903	604.000000
530.642472	647.800000
533.018459	579.600000
535.391794	615.200000
537.766546	603.400000
540.136613	588.600000
542.506064	604.800000
544.876933	596.600000
547.243122	588.400000
549.610729	585.000000
551.975690	583.600000
554.340038	568.600000
556.703773	564.200000
559.068926	563.800000
561.429407	515.600000
563.791306	539.400000
566.150564	529.400000
568.507185	528.800000
570.867250	529.800000
573.220624	501.800000
575.577443	504.200000
577.931627	504.400000
580.285202	496.400000
582.638170	467.800000
584.988505	460.200000
587.340258	487.200000
589.685334	464.200000
592.035874	443.800000
594.379740	437.400000
596.729068	438.800000
599.073747	454.400000
601.415802	466.600000
603.759274	429.200000
606.100123	421.000000
608.440370	410.600000
610.777996	418.600000
613.119057	410.400000
615.455480	411.600000
617.793320	438.600000
620.128543	419.600000
622.461150	415.400000
624.795173	418.400000
627.126582	404.000000
629.457393	414.200000
631.787607	453.200000
634.117222	430.800000
636.442214	419.600000
638.772648	435.600000
641.098461	425.400000
643.421666	408.400000
645.746288	404.800000
648.068304	416.600000
650.389726	416.000000
652.708546	439.600000
655.028781	410.600000
657.348423	436.200000
659.665464	400.600000
661.981913	423.400000
664.295764	418.800000
666.611031	445.400000
668.923701	439.800000
671.237786	459.600000
673.547271	438.000000
675.858172	455.400000
678.166480	444.600000
680.474200	460.000000
682.783334	450.600000
685.087876	464.400000
687.391832	446.800000
689.695202	470.800000
691.999986	457.600000
694.300184	447.200000
696.601796	479.000000
698.902823	510.400000
701.199269	501.400000
703.497130	484.400000
705.794407	496.600000
708.091101	483.800000
710.383219	454.000000
712.678748	490.800000
714.969703	504.400000
717.262073	500.800000
719.551868	486.600000
721.841082	496.800000
724.129717	508.000000
726.415779	493.200000
728.703256	519.200000
730.988161	539.600000
733.272489	507.800000
735.554248	559.000000
737.837421	556.200000
740.120017	553.800000
742.398057	526.200000
744.677512	553.600000
746.956390	567.200000
749.234694	544.800000
751.508448	537.200000
753.783615	564.600000
756.058209	559.200000
758.330244	582.400000
760.603692	609.000000
762.874582	550.600000
765.142916	571.200000
767.412663	612.800000
769.679856	604.800000
771.946478	619.600000
774.212530	622.200000
776.476031	576.200000
778.740945	628.600000
781.005289	621.600000
783.265104	652.000000
785.526331	617.000000
787.786991	630.400000
790.045105	651.200000
792.300674	617.400000
794.559634	653.800000
796.812095	636.000000
799.069922	675.400000
801.323231	695.800000
803.574000	663.000000
805.826181	677.000000
808.075823	682.000000
810.326878	633.400000
812.573421	651.000000
814.821376	668.600000
817.066797	665.800000
819.313629	698.400000
821.559900	664.400000
823.801666	646.800000
826.046816	672.600000
828.285493	664.400000
830.527552	679.800000
832.765113	666.400000
835.004086	658.400000
837.240532	684.200000
839.478389	704.000000
841.713721	666.600000
843.946530	690.600000
846.180750	671.400000
848.412447	698.400000
850.643590	729.800000
852.874178	710.200000
855.104212	733.400000
857.333692	755.800000
859.558690	760.200000
861.787063	773.600000
864.010956	778.400000
866.236261	780.800000
868.457090	811.200000
870.681291	797.800000
872.901019	794.800000
875.122157	822.600000
877.342745	826.200000
879.560824	879.000000
881.780312	846.800000
883.995334	888.400000
886.209808	890.200000
888.423735	908.000000
890.637115	921.600000
892.849947	940.800000
895.062233	935.200000
897.272016	952.600000
899.481254	924.600000
901.689947	920.000000
903.896141	927.200000
906.103744	896.000000
908.308849	891.800000
910.513411	897.400000
912.715478	885.600000
914.918954	906.600000
917.119936	880.600000
919.320376	886.600000
921.522225	825.400000
923.717683	811.400000
925.916500	785.000000
928.110878	796.200000
930.308614	747.600000
932.501914	744.600000
934.696623	695.800000
936.888846	727.600000
939.080530	649.400000
941.271677	688.600000
943.460341	693.400000
945.648469	679.400000
947.834116	680.000000
950.023115	640.000000
952.207691	634.000000
954.391732	681.800000
956.579123	646.400000
958.758210	657.400000
960.940648	672.200000
963.122552	669.200000
965.301981	632.600000
967.478938	644.600000
969.657303	674.200000
971.837075	680.400000
974.010498	680.200000
976.187267	652.400000
978.359629	609.200000
980.533399	667.600000
982.702765	622.200000
984.875475	645.200000
987.045720	638.600000
989.215436	586.800000
991.384623	616.400000
993.549413	594.000000
995.717544	588.000000
997.881281	585.800000
1000.046424	563.200000
1002.209108	534.200000
1004.371267	532.200000
1006.530969	527.800000
1008.690146	525.000000
1010.850730	528.000000
1013.008859	493.000000
1015.166465	515.600000
1017.323547	488.000000
1019.480105	460.200000
1021.632284	484.600000
1023.785870	479.400000
1025.938934	440.200000
1028.089549	456.600000
1030.241571	454.800000
1032.389219	470.800000
1034.540199	417.600000
1036.686808	456.600000
1038.832898	378.600000
1040.978470	441.000000
1043.125447	417.400000
1045.266135	401.000000
1047.410153	434.200000
1049.551730	424.600000
1051.692791	408.200000
1053.835256	410.200000
1055.971442	409.000000
1058.110953	380.200000
1060.246110	396.200000
1062.384591	429.000000
1064.518718	383.800000
1066.652332	376.800000
1068.787351	382.000000
1070.918020	399.400000
1073.050094	367.400000
1075.179739	381.600000
1077.308872	368.000000
1079.437493	371.800000
1081.565603	350.000000
1083.691287	345.000000
1085.816461	339.600000
1087.943039	336.600000
1090.065279	336.200000
1092.188924	342.400000
1094.308234	331.000000
1096.432774	347.200000
1098.551068	301.800000
1100.670767	318.800000
1102.788047	307.400000
1104.904821	322.800000
1107.021088	280.600000
1109.134939	278.800000
1111.250195	285.800000
1113.361127	287.400000
1115.475372	272.800000
1117.585296	268.800000
1119.696624	249.200000
1121.807447	278.800000
1123.913954	252.800000
1126.023771	241.200000
1128.129273	252.200000
1130.236178	255.000000
1132.336868	248.800000
1134.442770	268.200000
1136.544363	232.600000
1138.647359	232.400000
1140.749854	235.800000
1142.846142	221.000000
1144.947637	235.200000
1147.044830	224.600000
1149.141525	183.600000
1151.237721	215.800000
1153.333420	180.000000
1155.428620	180.600000
1157.521424	176.000000
1159.615631	198.800000
1161.703646	192.600000
1163.796859	187.800000
1165.883884	181.600000
1167.974208	182.400000
1170.060244	187.800000
1172.149579	161.600000
1174.232732	177.600000
1176.317287	161.000000
1178.403244	156.200000
1180.484919	153.600000
1182.567996	181.400000
1184.648687	156.800000
1186.728886	145.400000
1188.808594	148.800000
1190.887811	150.200000
1192.964646	164.000000
1195.039100	127.200000
1197.116845	157.000000
1199.190321	172.000000
1201.265197	136.600000
1203.335806	139.600000
1205.407816	148.400000
1207.477451	119.000000
1209.548486	147.000000
1211.619033	129.000000
1213.685319	173.800000
1215.753006	133.800000
1217.818321	150.400000
1219.885036	126.600000
1221.947495	138.800000
1224.013239	145.600000
1226.074729	137.600000
1228.137620	136.200000
1230.198143	156.600000
1232.258182	152.000000
1234.317739	164.200000
1236.374930	88.400000
1238.431640	163.000000
1240.485986	135.800000
1242.543614	144.000000
1244.598879	144.200000
1246.649903	125.400000
1248.702327	138.400000
1250.754271	142.400000
1252.803857	113.400000
1254.852964	128.200000
1256.901593	108.800000
1258.949743	131.600000
1260.997414	125.000000
1263.040855	116.200000
1265.087572	134.200000
1267.131935	131.000000
1269.175822	113.800000
1271.217357	137.000000
1273.256543	130.800000
1275.299002	133.400000
1277.337238	134.600000
1279.376873	144.800000
1281.416033	120.000000
1283.450974	131.400000
1285.487314	126.600000
1287.521310	128.000000
1289.556703	109.400000
1291.587884	110.400000
1293.620462	146.600000
1295.652569	120.600000
1297.682335	106.200000
1299.713498	124.200000
1301.740455	137.400000
1303.768809	135.400000
1305.792958	148.600000
1307.820373	135.800000
1309.843585	118.800000
1311.868195	128.400000
1313.890471	106.600000
1315.914144	109.600000
1317.935484	136.800000
1319.956356	120.800000
1321.976761	116.200000
1323.992973	126.800000
1326.010582	109.600000
1328.025863	114.800000
1330.044403	133.600000
1332.058754	125.600000
1334.070779	131.000000
1336.086061	122.200000
1338.097158	131.600000
1340.109652	120.000000
1342.117963	136.800000
1344.129529	161.600000
1346.135057	123.400000
1348.143840	133.600000
1350.148445	123.800000
1352.156304	133.600000
1354.163701	132.400000
1356.165067	130.200000
1358.167829	135.800000
1360.170132	120.400000
1362.171975	129.400000
1364.173358	146.200000
1366.172428	116.800000
1368.171039	140.800000
1370.169192	110.200000
1372.166886	151.800000
1374.160418	141.000000
1376.155345	145.200000
1378.149816	146.000000
1380.143830	128.600000
1382.135537	128.200000
1384.126789	139.000000
1386.115735	130.000000
1388.106076	131.600000
1390.095962	114.000000
1392.083544	138.800000
1394.070673	106.800000
1396.055500	153.000000
1398.041722	139.800000
1400.025644	145.600000
1402.009113	141.200000
1403.992129	161.200000
1405.972848	117.400000
1407.954961	119.200000
1409.934778	119.400000
1411.914143	147.800000
1413.889370	123.400000
1415.867835	136.200000
1417.844007	101.600000
1419.819730	116.200000
1421.795003	131.200000
1423.767985	133.200000
1425.740519	102.800000
1427.712605	151.400000
1429.684244	120.000000
1431.651754	126.200000
1433.624338	135.600000
1435.589116	139.600000
1437.558967	121.800000
1439.524694	133.400000
1441.491813	132.400000
1443.456649	127.200000
1445.417365	128.000000
1447.383149	117.400000
1449.342978	123.200000
1451.304201	114.000000
1453.266816	116.400000
1455.225316	120.800000
1457.183373	112.400000
1459.140989	137.600000
1461.098162	113.200000
1463.053060	125.600000
1465.009351	119.200000
1466.963367	130.000000
1468.916942	112.400000
1470.868245	137.800000
1472.820941	108.200000
1474.771364	139.400000
1476.721349	130.800000
1478.670895	125.200000
1480.618172	116.600000
1482.563181	130.600000
1484.509583	109.400000
1486.455547	95.400000
1488.401074	121.200000
1490.344335	133.800000
1492.287161	106.600000
1494.227723	130.400000
1496.169676	149.200000
1498.109367	137.600000
1500.048624	101.000000
1501.987445	110.400000
1503.924007	103.400000
1505.861960	125.200000
1507.797654	102.200000
1509.732915	139.600000
1511.665920	86.600000
1513.598492	118.600000
1515.530632	114.400000
1517.462340	123.000000
1519.391794	124.000000
1521.322639	117.000000
1523.253052	123.400000
1525.179393	112.600000
1527.107125	120.000000
1529.032606	95.200000
1530.957658	123.200000
1532.882281	132.400000
1534.806475	117.000000
1536.728421	110.400000
1538.651758	136.400000
1540.572848	120.600000
1542.491694	116.400000
1544.411930	117.200000
1546.329923	118.000000
1548.247489	100.600000
1550.162813	102.800000
1552.079527	123.400000
1553.992186	100.800000
1555.908049	124.400000
1557.821672	121.000000
1559.733057	128.400000
1561.645832	121.200000
1563.554557	114.600000
1565.464671	99.000000
1567.374362	92.600000
1569.283630	120.800000
1571.190664	105.400000
1573.095465	134.400000
1575.001655	81.200000
1576.905613	132.400000
1578.809150	123.600000
1580.712267	113.800000
1582.613154	123.200000
1584.515430	115.800000
1586.415478	92.800000
1588.316913	94.400000
1590.214315	120.200000
1592.111298	81.000000
1594.007863	121.800000
1595.905816	100.800000
1597.797934	133.200000
1599.693245	101.400000
1601.588139	139.600000
1603.480811	116.600000
1605.373066	122.000000
1607.263102	116.000000
1609.152722	92.200000
1611.041927	130.800000
1612.930717	136.000000
1614.817289	86.000000
1616.705249	116.000000
1618.589192	110.400000
1620.474522	86.400000
1622.359439	110.800000
1624.242142	112.800000
1626.126232	114.000000
1628.006310	104.200000
1629.887776	105.000000
1631.767031	126.400000
1633.647672	107.600000
1635.522509	100.600000
1637.402327	119.200000
1639.278141	101.400000
1641.153544	113.800000
1643.030333	104.400000
1644.901326	105.600000
1646.775500	109.000000
1648.645675	129.400000
1650.519032	104.400000
1652.390184	116.200000
1654.259136	110.000000
1656.129472	99.600000
1657.995816	125.600000
1659.863545	116.200000
1661.729075	133.200000
1663.595991	79.000000
1665.458918	128.000000
1667.323230	119.400000
1669.185346	121.800000
1671.047057	84.000000
1672.910154	115.600000
1674.771055	114.400000
1676.629764	123.200000
1678.488069	93.000000
1680.347759	113.800000
1682.201681	93.400000
1684.058777	106.800000
1685.915470	111.200000
1687.768186	86.800000
1689.624074	104.800000
1691.475988	102.800000
1693.327501	102.200000
1695.178613	95.000000
1697.029325	115.000000
1698.879635	112.200000
1700.727762	126.000000
1702.577273	101.600000
1704.421035	92.400000
1706.269746	131.400000
1708.112711	102.400000
1709.958843	114.000000
1711.801012	105.400000
1713.646347	103.800000
1715.485941	88.000000
1717.326919	84.800000
1719.169280	78.800000
1721.007685	106.600000
1722.847473	98.400000
1724.685086	115.000000
1726.522303	112.000000
1728.357347	111.000000
1730.193774	119.000000
1732.028029	118.400000
1733.861889	115.200000
1735.695355	109.000000
1737.524876	116.800000
1739.357555	104.400000
1741.186290	111.600000
1743.018182	104.200000
1744.846132	115.600000
1746.673691	113.400000
1748.500857	107.000000
1750.327632	118.800000
1752.154015	91.400000
1753.976462	117.800000
1755.802064	103.800000
1757.623731	85.000000
1759.446780	109.600000
1761.267667	105.000000
1763.088166	122.200000
1764.910045	97.400000
1766.726226	85.200000
1768.545558	126.200000
1770.360963	100.200000
1772.179518	118.000000
1773.994148	90.400000
1775.808391	122.400000
1777.622248	84.200000
1779.435718	89.200000
1781.247035	100.800000
1783.059732	104.600000
1784.872044	94.200000
1786.680438	114.600000
1788.490212	84.200000
1790.296072	100.400000
1792.105077	109.800000
1793.910169	113.600000
1795.716642	104.000000
1797.522731	98.400000
1799.324909	100.000000
1801.130232	109.600000
1802.931646	103.000000
1804.734440	103.800000
1806.533328	116.400000
1808.333597	112.400000
1810.133484	92.600000
1811.931229	101.200000
1813.728594	96.800000
1815.525579	111.000000
1817.322183	91.200000
1819.116648	106.800000
1820.912492	120.200000
1822.702681	108.800000
1824.497767	92.400000
1826.287201	113.000000
1828.079771	91.800000
1829.870206	116.200000
1831.658507	127.800000
1833.449943	91.000000
1835.235733	100.200000
1837.022903	139.800000
1838.807941	89.800000
1840.596113	107.200000
1842.380399	76.000000
1844.162555	103.400000
1845.946091	99.000000
1847.727498	121.400000
1849.510284	125.000000
1851.289189	113.200000
1853.069474	99.800000
1854.847632	78.800000
1856.627169	73.800000
1858.404581	88.400000
1860.179869	101.000000
1861.956535	95.600000
1863.731079	90.600000
1865.507001	117.200000
1867.277302	94.000000
1869.050731	91.000000
1870.822040	105.800000
1872.592978	89.200000
1874.365294	114.200000
1876.131996	93.600000
1877.901824	84.200000
1879.667788	127.800000
1881.436875	79.600000
1883.202101	110.400000
1884.966959	91.200000
1886.733194	92.200000
1888.495570	98.600000
1890.257579	121.000000
1892.019220	89.000000
1893.780495	105.800000
1895.541402	92.800000
1897.301943	95.800000
1899.060374	98.400000
1900.818439	121.000000
1902.574397	91.200000
1904.331731	114.200000
1906.088700	100.200000
1907.843562	84.400000
1909.596320	111.200000
1911.348713	136.800000
1913.102483	88.200000
1914.854149	115.800000
1916.603713	80.000000
1918.354652	99.200000
1920.105229	99.000000
1921.851966	105.800000
1923.600080	103.200000
1925.346094	83.000000
1927.093483	87.200000
1928.838775	109.800000
1930.581969	102.200000
1932.326538	84.400000
1934.069012	96.400000
1935.811125	93.200000
1937.552878	100.800000
1939.294271	85.000000
1941.033571	93.600000
1942.772512	115.800000
1944.511094	106.200000
1946.247585	90.400000
1947.983718	102.300000
1949.721225	114.200000
1951.454910	100.400000
1953.189970	102.600000
1954.922941	100.200000
1956.655556	104.200000
1958.387815	80.600000
1960.119717	149.000000
1961.849533	91.800000
1963.577264	107.200000
1965.306370	92.000000
1967.035121	89.400000
1968.761788	88.600000
1970.488101	109.200000
1972.215787	94.400000
1973.937937	113.400000
1975.663188	86.600000
1977.384632	109.800000
1979.109177	81.800000
1980.831641	88.200000
1982.550303	106.600000
1984.272063	94.400000
1985.990021	90.000000
1987.709352	106.400000
1989.424884	84.600000
1991.145236	103.800000
1992.861790	75.000000
1994.574547	108.200000
1996.290400	125.000000
1998.004181	111.200000
1999.717612	95.800000
2001.428972	124.600000
2003.141704	96.800000
2004.850646	107.200000
2006.562680	84.400000
2008.269206	94.400000
2009.978823	86.000000
2011.686374	106.000000
2013.393576	81.200000
2015.098713	116.200000
2016.803504	85.800000
2018.509666	110.800000
2020.212046	100.200000
2021.915797	89.000000
2023.617486	70.400000
2025.318830	118.600000
2027.019828	78.800000
2028.718765	95.000000
2030.419074	76.400000
2032.115608	112.000000
2033.813513	62.600000
2035.509359	129.000000
2037.208291	94.600000
2038.901737	113.600000
2040.596554	120.600000
2042.291029	90.200000
2043.981735	97.600000
2045.675525	109.600000
2047.365548	109.400000
2049.056942	99.200000
2050.746283	91.000000
2052.436994	110.600000
2054.123942	97.600000
2055.810551	100.800000
2057.498529	96.600000
2059.182748	93.200000
2060.868338	102.200000
2062.553588	107.600000
2064.236789	87.600000
2065.921361	78.600000
2067.600470	98.000000
2069.284364	114.400000
2070.962797	110.200000
2072.644308	107.000000
2074.322067	90.800000
2075.999490	102.200000
2077.678282	126.600000
2079.355032	132.000000
2081.029740	82.600000
2082.705817	110.200000
2084.379853	100.600000
2086.053555	96.000000
2087.726921	76.400000
2089.398248	100.800000
2091.069241	78.200000
2092.739900	131.800000
2094.410225	72.600000
2096.080216	99.600000
2097.748171	76.800000
2099.415793	79.400000
2101.081380	87.800000
2102.748336	86.000000
2104.413259	101.000000
2106.077850	88.800000
2107.740409	88.600000
2109.404336	83.800000
2111.066232	83.400000
2112.727798	107.200000
2114.389032	97.000000
2116.048238	103.600000
2117.707113	97.800000
2119.365659	118.000000
2121.023874	100.400000
2122.678367	93.000000
2124.335924	126.400000
2125.993152	97.400000
2127.646658	88.400000
2129.301532	99.000000
2130.952687	91.200000
2132.606905	114.600000
2134.257406	84.800000
2135.909273	99.600000
2137.555732	92.800000
2139.206946	93.600000
2140.854446	104.600000
2142.503313	100.600000
2144.150161	107.200000
2145.796684	91.200000
2147.442881	90.400000
2149.085370	97.000000
2150.730917	87.400000
2152.372757	109.800000
2154.017654	106.000000
2155.658845	104.200000
2157.299714	75.400000
2158.940258	81.200000
2160.578790	97.800000
2162.218688	107.800000
2163.854886	66.000000
2165.492450	110.600000
2167.129692	83.600000
2168.764924	99.400000
2170.399835	98.800000
2172.034423	108.000000
2173.668691	94.400000
2175.299265	100.800000
2176.932891	88.000000
2178.562825	100.200000
2180.194124	98.200000
2181.823418	75.000000
2183.452393	60.400000
2185.081048	101.000000
2186.709384	98.400000
2188.335718	91.400000
2189.961733	60.400000
2191.585746	94.000000
2193.211125	81.000000
2194.834503	115.200000
2196.459246	83.400000
2198.080308	61.200000
2199.701053	87.000000
2201.323163	84.800000
2202.943275	96.000000
2204.561390	88.200000
2206.179190	84.000000
2207.796675	104.000000
2209.413844	102.000000
2211.030698	110.800000
2212.647236	98.200000
2214.261782	89.800000
2215.874335	81.600000
2217.488252	84.200000
2219.100178	94.000000
2220.713467	98.800000
2222.324766	75.600000
2223.934075	97.800000
2225.544748	85.600000
2227.153432	98.000000
2228.761803	97.400000
2230.368188	87.200000
2231.975936	62.800000
2233.581697	100.600000
2235.187147	76.800000
2236.790612	91.000000
2238.395440	95.400000
2239.998284	87.200000
2241.599145	88.600000
2243.201369	89.600000
2244.801611	59.600000
2246.403215	109.200000
2248.001166	77.200000
2249.600480	87.800000
2251.197814	78.200000
2252.794840	92.000000
2254.393228	78.800000
2255.987967	94.000000
2257.580729	79.200000
2259.174854	101.800000
2260.770340	83.800000
2262.362181	88.800000
2263.953716	99.400000
2265.546613	92.800000
2267.134200	85.400000
2268.726483	68.400000
2270.313460	71.800000
2271.903464	92.200000
2273.488164	77.800000
2275.077558	111.600000
2276.661650	81.800000
2278.247102	101.800000
2279.830586	67.800000
2281.417095	93.800000
2282.999971	102.600000
2284.582544	87.000000
2286.164813	80.400000
2287.743452	94.400000
2289.325116	76.400000
2290.903151	98.200000
2292.484209	93.400000
2294.061640	96.700000
2295.637108	100.000000
2297.215598	86.400000
2298.790464	64.600000
2300.365029	63.400000
2301.939294	84.400000
2303.513258	66.200000
2305.086921	92.000000
2306.660285	93.200000
2308.230030	49.600000
2309.799476	105.800000
2311.371940	83.800000
2312.939130	65.600000
2314.509338	70.000000
2316.075931	118.000000
2317.643884	79.800000
2319.209881	74.800000
2320.775581	105.600000
2322.340983	100.600000
2323.904432	77.600000
2325.469240	92.600000
2327.030440	107.200000
2328.594654	78.600000
2330.153606	98.000000
2331.715573	121.800000
2333.275588	92.600000
2334.835309	100.200000
2336.393080	117.400000
2337.950556	107.600000
2339.507738	100.800000
2341.062972	94.800000
2342.617913	91.200000
2344.172559	95.800000
2345.726912	85.600000
2347.280972	88.000000
2348.834737	80.400000
2350.386558	117.000000
2351.936437	88.800000
2353.489323	116.000000
2355.036966	76.600000
2356.587618	88.000000
2358.134678	82.600000
2359.683096	76.600000
2361.231223	91.200000
2362.775761	79.400000
2364.321657	84.400000
2365.865615	72.600000
2367.410930	83.800000
2368.952660	82.600000
2370.495747	64.200000
2372.036898	74.200000
2373.577760	96.000000
2375.118333	93.000000
2376.658617	93.000000
2378.198612	91.000000
2379.735029	89.000000
2381.274447	68.800000
2382.810287	82.800000
2384.347485	69.400000
2385.881107	87.000000
2387.417729	99.200000
2388.952421	93.400000
2390.485183	108.800000
2392.017658	62.800000
2393.548205	102.000000
2395.081750	98.200000
2396.610084	105.200000
2398.139774	103.200000
2399.669179	89.000000
2401.198299	85.400000
2402.727134	88.200000
2404.250763	88.200000
2405.779028	103.200000
2407.302091	93.200000
2408.829787	89.200000
2410.350644	89.800000
2411.876134	111.000000
2413.398063	88.200000
2414.921348	99.400000
2416.442711	89.600000
2417.962155	75.600000
2419.482954	79.200000
2421.001835	93.600000
2422.520433	88.200000
2424.037114	78.600000
2425.555149	91.800000
2427.072903	109.000000
2428.587106	80.000000
2430.101028	118.000000
2431.614670	77.400000
2433.129667	107.200000
2434.641115	98.800000
2436.153918	97.800000
2437.664807	91.400000
2439.175418	96.200000
2440.684117	90.000000
2442.195802	109.000000
2443.703944	77.600000
2445.211808	87.000000
2446.719394	90.000000
2448.223439	76.400000
2449.730469	88.800000
2451.235591	95.400000
2452.740436	88.000000
2454.243374	100.000000
2455.746036	98.000000
2457.248421	91.400000
2458.748901	90.000000
2460.250734	89.200000
2461.750662	63.600000
2463.250315	87.800000
2464.749693	76.600000
2466.247168	76.800000
2467.742741	85.400000
2469.241294	90.400000
2470.736319	90.400000
2472.232696	72.200000
2473.725547	67.600000
2475.219751	101.200000
2476.713681	88.400000
2478.204087	68.200000
2479.697471	73.600000
2481.188957	104.000000
2482.678546	94.400000
2484.167863	77.000000
2485.655284	78.200000
2487.145681	99.200000
2488.632560	86.000000
2490.120790	89.800000
2491.605503	85.000000
2493.089947	101.600000
2494.575741	93.600000
2496.059644	87.400000
2497.544897	75.200000
2499.025017	76.400000
2500.508110	84.200000
2501.989312	106.200000
2503.470245	98.600000
2504.949289	121.200000
2506.428064	81.000000
2507.906571	87.200000
2509.384810	79.200000
2510.862780	90.200000
2512.337245	75.000000
2513.814680	89.200000
2515.288611	77.200000
2516.763892	102.600000
2518.238906	86.800000
2519.710419	95.600000
2521.183283	86.000000
2522.654264	93.600000
2524.126595	79.200000
2525.593812	94.800000
2527.063996	75.200000
2528.532299	96.400000
2530.000337	89.800000
2531.468110	100.400000
2532.935618	89.000000
2534.402861	118.600000
2535.866612	62.000000
2537.331713	86.600000
2538.794937	71.000000
2540.259510	118.200000
2541.720595	82.600000
2543.183029	62.800000
2544.645200	88.400000
2546.103885	105.200000
2547.567141	74.400000
2549.025302	72.800000
2550.484811	71.400000
2551.939226	92.400000
2553.398212	92.800000
2554.855326	96.800000
2556.310569	63.800000
2557.765550	91.600000
2559.218663	78.200000
2560.673124	110.000000
2562.125715	91.600000
2563.578047	85.600000
2565.028512	81.600000
2566.481932	92.800000
2567.930270	73.400000
2569.381563	88.400000
2570.830991	85.800000
2572.276946	80.600000
2573.725856	94.200000
2575.171296	119.800000
2576.618083	74.800000
2578.063008	95.000000
2579.507674	81.800000
2580.953688	99.200000
2582.396236	85.200000
2583.840131	88.400000
2585.280561	96.200000
2586.722338	108.600000
2588.162256	90.000000
2589.603521	85.600000
2591.041324	71.600000
2592.482077	85.800000
2593.917768	83.000000
2595.356408	77.000000
2596.793190	99.000000
2598.228117	76.800000
2599.665991	100.400000
2601.098808	58.400000
2602.532972	88.400000
2603.965282	109.600000
2605.398938	82.800000
2606.830741	75.200000
2608.262290	84.400000
2609.693587	81.600000
2611.123031	87.800000
2612.552223	80.800000
2613.979565	83.600000
2615.408252	66.200000
2616.836688	59.600000
2618.261676	97.400000
2619.688011	77.000000
2621.112497	82.200000
2622.538329	73.200000
2623.960717	89.000000
2625.384451	91.600000
2626.806338	109.000000
2628.227976	95.800000
2629.647768	75.800000
2631.068906	95.200000
2632.489794	80.600000
2633.907244	65.400000
2635.327633	106.800000
2636.744585	78.200000
2638.161288	67.600000
2639.577743	102.200000
2640.993950	78.400000
2642.409909	105.600000
2643.824027	89.600000
2645.237897	86.600000
2646.649929	82.000000
2648.063304	87.000000
2649.473250	102.200000
2650.886132	73.800000
2652.295585	92.600000
2653.704792	68.400000
2655.112163	105.200000
2656.522468	84.400000
2657.930938	79.000000
2659.337572	97.000000
2660.743961	77.800000
2662.148516	59.600000
2663.554415	83.200000
2664.958481	56.600000
2666.362302	120.400000
2667.765879	78.600000
2669.167625	70.200000
2670.570714	87.200000
2671.970385	101.400000
2673.371400	74.600000
2674.768999	127.400000
2676.169527	66.400000
2677.566641	100.000000
2678.965098	88.800000
2680.361728	95.600000
2681.758115	67.600000
2683.154260	87.200000
2684.548579	70.800000
2685.944241	92.200000
2687.336494	89.200000
2688.730089	84.200000
2690.121860	98.800000
2691.514974	92.200000
2692.906264	77.200000
2694.295731	107.000000
2695.684958	64.200000
2697.073946	87.200000
2698.464275	67.600000
2699.849621	101.200000
2701.237890	64.600000
2702.624339	81.200000
2704.010549	70.600000
2705.396520	87.400000
2706.779093	73.200000
2708.163008	101.800000
2709.546685	91.200000
2710.930123	112.000000
2712.310167	78.200000
2713.691551	110.400000
2715.071121	89.400000
2716.452031	80.200000
2717.831127	62.200000
2719.208409	92.600000
2720.587032	66.400000
2721.963842	103.000000
2723.340415	82.800000
2724.716753	102.600000
2726.091280	77.400000
2727.467147	71.600000
2728.839627	81.600000
2730.215023	110.600000
2731.585459	102.000000
2732.957236	81.200000
2734.328778	54.800000
2735.698512	55.200000
2737.069587	70.600000
2738.438853	81.200000
2739.807886	50.800000
2741.175113	85.600000
2742.542106	83.800000
2743.908867	76.400000
2745.275396	66.400000
2746.640119	70.800000
2748.004610	75.200000
2749.368870	100.000000
2750.732897	92.800000
2752.096693	64.800000
2753.457115	51.600000
2754.820447	57.400000
2756.178837	93.000000
2757.540137	56.800000
2758.898067	78.800000
2760.258905	83.600000
2761.617944	84.200000
2762.973614	83.600000
2764.332192	82.800000
2765.687403	88.000000
2767.042385	54.800000
2768.395571	76.800000
2769.751662	53.000000
2771.104390	47.800000
2772.456890	100.400000
2773.809161	86.800000
2775.162770	59.400000
2776.513019	80.600000
2777.861473	74.200000
2779.212833	81.200000
2780.560833	73.000000
2781.910171	81.600000
2783.257717	60.200000
2784.605037	88.600000
2785.952130	80.400000
2787.297432	81.200000
2788.642507	61.600000
2789.987357	64.600000
2791.331981	80.800000
2792.673253	92.400000
2794.015863	67.800000
2795.358247	95.000000
2796.700406	65.000000
2798.039216	97.200000
2799.380926	77.600000
2800.719288	75.800000
2802.058986	69.000000
2803.396900	89.000000
2804.733029	75.400000
2806.068934	75.400000
2807.406177	62.800000
2808.741636	81.400000
2810.076872	74.200000
2811.410325	96.600000
2812.745115	68.000000
2814.076565	95.200000
2815.410910	71.000000
2816.740357	64.600000
2818.071141	62.000000
2819.401703	69.000000
2820.730486	61.400000
2822.060605	64.400000
2823.388946	87.400000
2824.717066	63.400000
2826.043408	86.000000
2827.371087	87.400000
2828.695432	76.000000
2830.021114	78.400000
2831.345020	73.600000
2832.668707	64.200000
2833.993729	62.600000
2835.315421	40.000000
2836.636895	72.400000
2837.958150	74.000000
2839.279186	78.200000
2840.598449	88.200000
2841.919048	102.400000
2843.237876	80.600000
2844.556485	76.200000
2845.873323	99.000000
2847.189944	63.400000
2848.506348	58.000000
2849.820982	71.800000
2851.136952	86.000000
2852.449601	62.200000
2853.763585	67.200000
2855.077353	53.000000
2856.390904	80.400000
2857.702689	88.000000
2859.012707	78.000000
2860.324060	62.400000
2861.632098	85.000000
2862.941470	85.200000
2864.250628	55.200000
2865.559570	60.400000
2866.866748	75.800000
2868.172164	87.200000
2869.478913	76.200000
2870.783901	61.400000
2872.088675	102.800000
2873.391687	77.800000
2874.697580	76.600000
2875.998619	51.800000
2877.300992	78.200000
2878.601605	77.400000
2879.903552	71.000000
2881.205285	66.000000
2882.503715	65.800000
2883.803478	70.000000
2885.101484	68.600000
2886.399278	65.000000
2887.695316	75.000000
2888.992687	54.200000
2890.288302	77.800000
2891.583706	71.000000
2892.878899	66.000000
2894.170795	82.400000
2895.465567	80.200000
2896.757042	77.000000
2898.049850	73.800000
2899.342448	53.800000
2900.631752	79.200000
2901.922388	83.000000
2903.211273	80.000000
2904.501490	67.600000
2905.788416	85.200000
2907.076674	62.600000
2908.363183	86.000000
2909.649483	68.400000
2910.935576	55.600000
2912.219920	63.200000
2913.507135	88.200000
2914.789524	47.800000
2916.073245	89.400000
2917.355220	53.400000
2918.636987	68.800000
2919.917010	57.000000
2921.199902	94.600000
2922.481049	58.000000
2923.758914	70.000000
2925.039648	65.200000
2926.317101	103.800000
2927.594348	68.200000
2928.869853	78.200000
2930.148226	49.000000
2931.421785	75.000000
2932.698211	77.000000
2933.972896	86.600000
2935.245840	79.200000
2936.520116	78.400000
2937.792652	51.000000
2939.064983	85.400000
2940.334042	69.800000
2941.605966	65.000000
2942.876152	74.800000
2944.146134	51.800000
2945.415913	74.600000
2946.683956	72.200000
2947.950262	73.400000
2949.216367	69.600000
2950.483801	95.000000
2951.749501	74.200000
2953.014998	57.200000
2954.280293	55.000000
2955.542323	76.000000
2956.805683	64.600000
2958.068842	61.400000
2959.330269	80.400000
2960.593025	56.200000
2961.854049	63.600000
2963.113343	82.800000
2964.372437	53.400000
2965.631330	40.600000
2966.890023	91.000000
2968.148516	62.000000
2969.405280	68.400000
2970.661844	55.600000
2971.916681	69.200000
2973.172846	59.400000
2974.425757	61.800000
2975.679997	53.800000
2976.934037	78.200000
2978.186353	53.400000
2979.438469	76.800000
2980.688861	62.200000
2981.942108	62.000000
2983.190578	63.600000
2984.441903	61.400000
2985.689978	77.000000
2986.937857	83.200000
2988.185538	31.000000
2989.433022	82.600000
2990.678785	56.600000
2991.924352	71.200000
2993.171246	56.000000
2994.414896	78.200000
2995.659874	64.800000
2996.901608	68.600000
2998.146194	40.400000
2999.389061	70.400000
3000.628687	84.800000
3001.871163	71.400000
3003.110399	73.200000
3004.350963	75.200000
3005.589810	71.400000
3006.828463	67.800000
3008.065400	70.600000
3009.303665	76.600000
3010.540214	74.200000
3011.776570	100.400000
3013.012732	80.800000
3014.247180	92.400000
3015.481436	49.000000
3016.715498	82.000000
3017.947848	62.400000
3019.178486	73.000000
3020.411970	77.600000
3021.643742	59.200000
3022.873804	56.200000
3024.103673	81.000000
3025.331833	62.400000
3026.561320	68.000000
3027.789097	54.000000
3029.016683	81.800000
3030.245596	87.000000
3031.469766	66.800000
3032.696779	85.400000
3033.920568	67.800000
3035.145684	55.200000
3036.369093	58.800000
3037.592312	55.800000
3038.813826	82.200000
3040.038181	45.600000
3041.257801	83.400000
3042.478747	42.400000
3043.699504	72.000000
3044.918557	78.600000
3046.138935	69.200000
3047.356097	75.400000
3048.574585	83.600000
3049.791370	35.400000
3051.007968	62.200000
3052.224377	71.400000
3053.437574	50.200000
3054.653608	64.000000
3055.866430	70.600000
3057.082089	66.400000
3058.293025	90.000000
3059.505286	67.000000
3060.717361	78.000000
3061.929248	53.800000
3063.139439	79.000000
3064.349443	59.400000
3065.559261	72.200000
3066.767383	55.000000
3067.975320	71.600000
3069.181561	66.400000
3070.389127	81.600000
3071.594998	76.400000
3072.800685	71.200000
3074.006186	61.600000
3075.209994	87.800000
3076.415126	60.000000
3077.618565	83.600000
3078.820313	66.400000
3080.021876	80.400000
3081.223256	67.600000
3082.424452	78.800000
3083.623958	87.200000
3084.823281	82.400000
3086.023927	66.200000
3087.222883	84.800000
3088.418645	58.400000
3089.617236	59.200000
3090.812633	85.600000
3092.009353	67.600000
3093.202881	64.200000
3094.399237	54.200000
3095.593907	43.200000
3096.785385	47.000000
3097.981196	65.200000
3099.172312	69.600000
3100.364752	49.800000
3101.554004	64.400000
3102.746081	50.600000
3103.936475	46.800000
3105.123683	63.200000
3106.312213	68.000000
3107.502066	73.400000
3108.688735	80.800000
3109.875223	78.200000
3111.061533	82.800000
3112.249164	58.000000
3113.433613	65.600000
3114.616383	57.400000
3115.801975	54.600000
3116.985888	70.600000
3118.168122	60.000000
3119.350177	51.600000
3120.532054	90.600000
3121.713753	80.600000
3122.893775	74.400000
3124.072120	70.400000
3125.253285	70.800000
3126.431275	76.600000
3127.609089	70.800000
3128.786725	57.200000
3129.962686	71.400000
3131.138470	50.600000
3132.315576	87.000000
3133.491007	68.800000
3134.664765	78.000000
3135.836850	66.000000
3137.010257	93.000000
3138.183487	43.000000
3139.355046	50.600000
3140.527925	46.800000
3141.697637	69.400000
3142.868670	36.400000
3144.038033	49.400000
3145.205725	62.400000
3146.376233	74.400000
3147.542083	60.400000
3148.712241	76.400000
3149.877743	76.000000
3151.043070	70.200000
3152.208224	39.600000
3153.373205	83.200000
3154.539505	52.600000
3155.701153	58.400000
3156.864120	74.400000
3158.026915	74.200000
3159.189537	66.400000
3160.350494	76.200000
3161.511278	46.400000
3162.671890	65.800000
3163.830838	76.000000
3164.989615	70.600000
3166.148220	80.400000
3167.306652	53.600000
3168.464914	64.400000
3169.621513	70.600000
3170.776451	52.000000
3171.932708	97.200000
3173.087304	50.800000
3174.241730	67.200000
3175.394496	97.800000
3176.547091	47.800000
3177.699517	52.600000
3178.851773	80.800000
3180.003858	59.400000
3181.152798	57.600000
3182.304544	67.000000
3183.454632	74.400000
3184.603064	64.600000
3185.751326	88.600000
3186.899420	63.600000
3188.047345	80.600000
3189.193614	63.200000
3190.339715	51.000000
3191.484162	68.800000
3192.628441	48.800000
3193.772552	64.000000
3194.917980	57.000000
3196.060270	62.200000
3197.202393	50.800000
3198.344348	81.600000
3199.486136	69.600000
3200.627757	72.000000
3201.766243	66.600000
3202.906046	42.400000
3204.047167	61.000000
3205.185153	57.400000
3206.321490	48.200000
3207.457661	54.800000
3208.595149	73.400000
3209.730989	40.000000
3210.868146	78.400000
3212.000690	60.200000
3213.137516	59.600000
3214.269730	72.000000
3215.403261	74.200000
3216.536628	48.800000
3217.666867	76.000000
3218.799904	64.400000
3219.929815	70.200000
3221.061042	59.600000
3222.189145	90.800000
3223.320044	72.800000
3224.449299	56.600000
3225.576911	80.600000
3226.701400	65.800000
3227.830165	55.000000
3228.955808	79.000000
3230.081289	70.200000
3231.205128	53.800000
3232.331761	68.800000
3233.453797	86.400000
3234.577149	36.400000
3235.700339	91.200000
3236.823366	51.400000
3237.944755	34.000000
3239.065981	61.000000
3240.185570	63.200000
3241.304997	63.800000
3242.422786	70.400000
3243.543367	60.000000
3244.660835	63.000000
3245.778142	69.000000
3246.895289	75.600000
3248.010800	71.200000
3249.127625	77.800000
3250.241341	60.400000
3251.357846	70.600000
3252.472717	82.200000
3253.584479	74.000000
3254.696081	51.000000
3255.808999	85.600000
3256.921757	63.600000
3258.031409	57.800000
3259.142376	69.200000
3260.253184	77.600000
3261.362360	68.000000
3262.469906	73.200000
3263.578765	81.600000
3264.687467	79.000000
3265.793066	57.200000
3266.899979	69.000000
3268.005263	45.800000
3269.111861	95.200000
3270.215359	60.400000
3271.320172	49.200000
3272.424827	66.800000
3273.526383	65.600000
3274.627783	61.000000
3275.730497	75.400000
3276.833055	70.200000
3277.932516	75.600000
3279.034761	68.600000
3280.133910	84.200000
3281.231435	61.400000
3282.328804	90.000000
3283.428955	75.000000
3284.526014	80.000000
3285.622917	74.000000
3286.719665	75.200000
3287.811855	83.400000
3288.908293	65.800000
3290.003109	67.800000
3291.097771	51.800000
3292.190811	62.600000
3293.283696	77.200000
3294.374962	46.400000
3295.467539	50.200000
3296.558497	56.200000
3297.647835	56.000000
3298.737020	65.200000
3299.827518	76.600000
3300.914931	76.000000
3302.002191	69.000000
3303.090764	89.000000
3304.179185	55.600000
3305.263058	68.000000
3306.351173	89.400000
3307.436206	65.800000
3308.519624	43.000000
3309.604354	63.800000
3310.687468	46.200000
3311.771895	59.600000
3312.853243	50.600000
3313.935903	77.200000
3315.016949	60.400000
3316.097844	64.200000
3317.177125	59.800000
3318.256256	49.200000
3319.336699	62.400000
3320.414067	48.800000
3321.492747	50.400000
3322.569815	86.000000
3323.646734	79.200000
3324.722041	73.000000
3325.797199	65.800000
3326.873668	47.000000
3327.947067	81.600000
3329.020317	63.200000
3330.094877	63.600000
3331.167829	76.000000
3332.239172	71.000000
3333.311826	69.800000
3334.381414	65.600000
3335.452312	62.000000
3336.521603	65.600000
3337.592205	45.600000
3338.661200	58.800000
3339.728589	64.200000
3340.794373	54.200000
3341.864383	76.200000
3342.931330	66.600000
3343.995215	78.800000
3345.061868	79.200000
3346.126916	58.200000
3347.190361	78.000000
3348.253660	70.000000
3349.316812	75.800000
3350.379818	61.600000
3351.442678	83.400000
3352.503936	46.400000
3353.562137	76.600000
3354.624558	84.200000
3355.683924	49.000000
3356.743144	56.000000
3357.803673	70.800000
3358.859694	83.200000
3359.918478	71.400000
3360.972755	41.800000
3362.029796	101.200000
3363.085238	60.000000
3364.141990	77.800000
3365.197143	57.200000
3366.250699	57.200000
3367.302659	69.200000
3368.357380	71.000000
3369.409052	63.000000
3370.460581	56.000000
3371.513418	65.400000
3372.563208	68.000000
3373.614307	68.600000
3374.662360	45.400000
3375.713172	42.000000
3376.760940	60.600000
3377.808565	47.800000
3378.856047	56.600000
3379.901937	57.600000
3380.949135	66.200000
3381.993291	72.000000
3383.040205	56.600000
3384.085527	40.400000
3385.127808	64.400000
3386.169949	60.800000
3387.213397	52.400000
3388.256704	67.000000
3389.298422	57.600000
3390.339998	31.200000
3391.381433	70.200000
3392.421280	37.600000
3393.459538	70.000000
3394.499104	49.000000
3395.538530	42.600000
3396.576368	54.800000
3397.612619	62.400000
3398.648731	58.600000
3399.686150	71.200000
3400.720536	70.200000
3401.756229	62.200000
3402.791783	59.600000
3403.824306	66.800000
3404.859582	76.400000
3405.891827	63.400000
3406.923934	62.000000
3407.954457	69.200000
3408.986287	30.400000
3410.017979	70.800000
3411.046643	65.200000
3412.075170	51.600000
3413.105003	53.800000
3414.134699	69.600000
3415.161369	48.200000
3416.189346	55.200000
3417.214298	35.800000
3418.242000	81.000000
3419.266679	58.200000
3420.292664	76.200000
3421.317069	48.600000
3422.341338	57.600000
3423.364028	49.600000
3424.386582	36.800000
3425.410442	67.800000
3426.431282	74.600000
3427.451986	32.400000
3428.473997	59.400000
3429.492989	92.600000
3430.511845	66.000000
3431.532008	48.800000
3432.549154	54.800000
