-116.707459	8.800000
-114.037859	17.800000
-111.371194	-22.800000
-108.705281	1.600000
-106.042300	5.200000
-103.377890	-2.000000
-100.716410	9.600000
-98.053501	-3.200000
-95.395698	-3.400000
-92.736466	-0.200000
-90.077982	-17.600000
-87.422422	-12.600000
-84.765434	3.400000
-82.113544	-0.600000
-79.460224	-19.400000
-76.809823	9.400000
-74.157993	17.600000
-71.511254	20.600000
-68.863086	-22.800000
-66.215660	-7.000000
-63.571148	-7.000000
-60.925208	-2.000000
-58.284349	-0.200000
-55.642061	2.200000
-53.002682	-4.800000
-50.361873	6.000000
-47.721805	-11.600000
-45.086809	-13.600000
-42.450385	2.200000
-39.816863	5.600000
-37.181913	-11.600000
-34.552028	5.000000
-31.918551	-1.400000
-29.290136	0.000000
-26.662455	27.400000
-24.033345	-2.200000
-21.409292	-2.600000
-18.781650	12.800000
-16.159061	0.400000
-13.537204	19.200000
-10.916077	-2.800000
-8.295680	46.200000
-5.678172	62.600000
-3.059235	239.200000
-0.443183	537.000000
2.172140	557.600000
4.786736	267.800000
7.398449	23.800000
10.011591	23.200000
12.619699	11.600000
15.231389	-25.200000
17.838048	6.000000
20.446135	-9.400000
23.053498	1.600000
25.655836	8.800000
28.261752	30.000000
30.862646	8.600000
33.464968	-2.800000
36.062273	6.000000
38.663153	10.600000
41.259018	-20.400000
43.856312	16.600000
46.452886	12.200000
49.044451	15.000000
51.637444	-1.200000
54.227576	-14.000000
56.819136	-5.400000
59.407836	8.200000
61.997963	3.600000
64.583091	32.400000
67.169647	-6.200000
69.755489	29.000000
72.338477	-15.200000
74.922891	10.800000
77.500177	4.400000
80.081029	-4.000000
82.659032	-10.600000
85.236325	25.400000
87.815044	-4.400000
90.388781	8.000000
92.963946	13.800000
95.536267	5.200000
98.107880	3.400000
100.676653	25.800000
103.246853	7.400000
105.814215	5.800000
108.383002	-12.800000
110.948953	2.600000
113.512069	-15.000000
116.078741	-4.200000
118.636192	32.200000
121.199328	56.200000
123.757504	46.200000
126.319235	56.200000
128.876009	69.400000
131.434210	128.200000
133.987457	164.000000
136.540007	228.400000
139.096107	295.200000
141.647259	446.200000
144.197714	498.600000
146.747471	568.200000
149.294409	603.400000
151.840652	660.800000
154.388320	652.400000
156.935292	680.800000
159.477329	666.800000
162.018672	636.000000
164.559322	623.200000
167.101398	667.200000
169.640662	673.800000
172.177118	653.000000
174.712882	626.200000
177.250072	642.800000
179.786571	609.800000
182.320264	624.400000
184.851153	619.400000
187.381355	634.800000
189.912981	618.000000
192.441806	655.000000
194.967832	639.600000
197.493172	628.600000
200.019937	608.400000
202.543906	641.000000
205.067190	605.800000
207.589789	627.800000
210.109595	623.600000
212.628718	640.600000
215.147158	613.000000
217.667022	627.600000
220.179885	620.200000
222.696279	623.200000
225.211991	602.400000
227.722813	646.600000
230.235060	635.600000
232.744525	601.800000
235.253311	639.400000
237.761418	653.800000
240.270950	590.000000
242.775601	645.000000
245.279576	646.200000
247.784975	665.200000
250.285499	637.000000
252.789547	646.200000
255.286623	644.400000
257.787223	651.400000
260.285051	622.600000
262.782206	659.400000
265.278688	634.800000
267.770307	643.200000
270.265446	672.200000
272.757818	627.200000
275.249520	627.400000
277.738459	643.000000
280.228822	620.600000
282.716422	673.200000
285.201263	658.600000
287.689619	640.200000
290.171035	628.600000
292.655965	664.600000
295.136050	643.600000
297.619647	654.400000
300.098401	629.800000
302.578579	667.200000
305.056004	645.000000
307.532766	654.000000
310.008865	636.600000
312.482215	654.000000
314.954903	668.200000
317.426930	633.800000
319.898296	635.200000
322.366917	669.800000
324.834880	672.600000
327.304264	642.400000
329.768826	631.600000
332.236892	686.400000
334.700138	648.000000
337.162726	672.200000
339.624658	641.000000
342.085933	642.800000
344.544474	624.800000
347.004437	654.800000
349.461667	665.200000
351.918243	598.600000
354.374165	594.600000
356.827357	613.200000
359.281972	645.200000
361.731785	622.200000
364.185094	596.800000
366.633605	616.600000
369.081464	603.600000
371.530746	580.800000
373.975234	600.200000
376.421144	589.600000
378.866404	589.800000
381.308946	580.000000
383.750840	562.000000
386.192087	562.200000
388.630618	574.200000
391.070571	568.600000
393.507810	544.400000
395.942337	548.800000
398.380352	534.000000
400.813590	525.400000
403.248249	510.200000
405.678136	511.800000
408.111508	492.000000
410.540110	529.200000
412.968070	543.600000
415.397452	561.600000
417.822068	547.400000
420.248106	514.600000
422.673503	534.400000
425.098260	537.600000
427.518259	530.200000
429.939679	538.800000
432.358402	512.400000
434.778546	520.200000
437.195995	523.000000
439.614864	528.400000
442.031040	505.200000
444.442468	546.600000
446.857374	535.600000
449.269589	511.400000
451.681170	492.400000
454.092117	543.800000
456.500378	518.000000
458.908006	495.000000
461.315002	496.800000
463.721367	550.600000
466.125049	508.000000
468.528101	508.000000
470.930523	513.200000
473.332315	494.200000
475.731430	495.400000
478.131964	481.400000
480.531869	475.800000
482.927051	521.200000
485.325700	490.200000
487.719629	486.800000
490.112932	498.400000
492.505609	461.200000
494.897661	502.400000
497.291131	504.400000
499.679889	482.600000
502.065981	483.800000
504.453493	496.000000
506.840382	484.200000
509.224607	483.200000
511.610250	505.000000
513.993232	473.200000
516.373553	461.400000
518.755293	463.600000
521.134374	498.800000
523.514874	454.400000
525.892716	477.800000
528.267903	495.600000
530.642472	495.800000
533.018459	463.800000
535.391794	465.400000
537.766546	455.400000
540.136613	460.200000
542.506064	473.000000
544.876933	497.400000
547.243122	465.400000
549.610729	456.400000
551.975690	440.400000
554.340038	430.600000
556.703773	431.000000
559.068926	451.600000
561.429407	409.200000
563.791306	443.400000
566.150564	399.600000
568.507185	407.800000
570.867250	432.000000
573.220624	404.000000
575.577443	416.400000
577.931627	398.200000
580.285202	384.200000
582.638170	376.200000
584.988505	364.600000
587.340258	368.600000
589.685334	365.400000
592.035874	366.800000
594.379740	386.600000
596.729068	398.000000
599.073747	364.200000
601.415802	397.400000
603.759274	372.400000
606.100123	391.200000
608.440370	371.200000
610.777996	369.600000
613.119057	349.600000
615.455480	402.000000
617.793320	360.600000
620.128543	373.400000
622.461150	342.800000
624.795173	373.600000
627.126582	376.800000
629.457393	383.000000
631.787607	342.000000
634.117222	368.600000
636.442214	367.800000
638.772648	341.200000
641.098461	340.600000
643.421666	409.000000
645.746288	332.200000
648.068304	362.200000
650.389726	341.600000
652.708546	348.000000
655.028781	371.000000
657.348423	369.800000
659.665464	339.200000
661.981913	379.200000
664.295764	371.000000
666.611031	384.800000
668.923701	371.200000
671.237786	337.800000
673.547271	404.600000
675.858172	370.200000
678.166480	372.000000
680.474200	393.000000
682.783334	372.200000
685.087876	410.200000
687.391832	379.800000
689.695202	394.400000
691.999986	385.400000
694.300184	398.400000
696.601796	389.200000
698.902823	382.800000
701.199269	391.200000
703.497130	418.600000
705.794407	421.000000
708.091101	401.400000
710.383219	428.600000
712.678748	416.600000
714.969703	386.600000
717.262073	408.000000
719.551868	390.200000
721.841082	422.400000
724.129717	431.600000
726.415779	430.200000
728.703256	422.800000
730.988161	448.000000
733.272489	407.000000
735.554248	453.000000
737.837421	418.600000
740.120017	437.400000
742.398057	439.000000
744.677512	470.200000
746.956390	416.600000
749.234694	472.600000
751.508448	470.600000
753.783615	475.800000
756.058209	451.600000
758.330244	453.800000
760.603692	445.800000
762.874582	494.400000
765.142916	465.400000
767.412663	490.200000
769.679856	463.800000
771.946478	488.600000
774.212530	478.200000
776.476031	500.000000
778.740945	482.600000
781.005289	509.600000
783.265104	513.800000
785.526331	526.600000
787.786991	500.000000
790.045105	497.200000
792.300674	502.200000
794.559634	526.800000
796.812095	502.200000
799.069922	541.200000
801.323231	525.000000
803.574000	554.400000
805.826181	532.400000
808.075823	552.400000
810.326878	510.600000
812.573421	506.400000
814.821376	529.400000
817.066797	504.000000
819.313629	524.800000
821.559900	544.000000
823.801666	522.200000
826.046816	548.600000
828.285493	568.600000
830.527552	563.400000
832.765113	525.200000
835.004086	541.600000
837.240532	569.000000
839.478389	559.400000
841.713721	547.400000
843.946530	559.200000
846.180750	542.000000
848.412447	568.200000
850.643590	571.600000
852.874178	597.000000
855.104212	557.400000
857.333692	591.400000
859.558690	569.200000
861.787063	606.800000
864.010956	620.400000
866.236261	612.600000
868.457090	609.400000
870.681291	623.400000
872.901019	636.000000
875.122157	667.000000
877.342745	633.600000
879.560824	668.800000
881.780312	678.800000
883.995334	675.400000
886.209808	685.000000
888.423735	712.200000
890.637115	694.000000
892.849947	709.000000
895.062233	672.000000
897.272016	750.400000
899.481254	696.600000
901.689947	715.400000
903.896141	686.600000
906.103744	660.600000
908.308849	700.000000
910.513411	695.800000
912.715478	688.400000
914.918954	706.200000
917.119936	641.200000
919.320376	621.000000
921.522225	637.200000
923.717683	660.400000
925.916500	618.400000
928.110878	643.600000
930.308614	609.600000
932.501914	587.400000
934.696623	587.200000
936.888846	575.800000
939.080530	576.800000
941.271677	566.800000
943.460341	566.800000
945.648469	549.200000
947.834116	532.200000
950.023115	526.600000
952.207691	553.600000
954.391732	528.800000
956.579123	548.400000
958.758210	559.200000
960.940648	548.400000
963.122552	553.000000
965.301981	554.800000
967.478938	529.400000
969.657303	536.400000
971.837075	568.800000
974.010498	537.200000
976.187267	533.600000
978.359629	537.000000
980.533399	531.800000
982.702765	528.200000
984.875475	527.000000
987.045720	498.800000
989.215436	521.200000
991.384623	499.200000
993.549413	502.400000
995.717544	520.800000
997.881281	488.600000
1000.046424	456.200000
1002.209108	528.600000
1004.371267	469.200000
1006.530969	465.200000
1008.690146	478.200000
1010.850730	483.800000
1013.008859	463.000000
1015.166465	457.800000
1017.323547	436.400000
1019.480105	420.800000
1021.632284	418.000000
1023.785870	414.800000
1025.938934	400.800000
1028.089549	429.800000
1030.241571	393.600000
1032.389219	428.000000
1034.540199	380.000000
1036.686808	387.400000
1038.832898	345.600000
1040.978470	379.600000
1043.125447	374.600000
1045.266135	421.800000
1047.410153	380.000000
1049.551730	386.600000
1051.692791	371.600000
1053.835256	361.800000
1055.971442	362.600000
1058.110953	363.800000
1060.246110	355.600000
1062.384591	373.200000
1064.518718	355.600000
1066.652332	338.600000
1068.787351	352.800000
1070.918020	355.600000
1073.050094	323.800000
1075.179739	341.800000
1077.308872	348.600000
1079.437493	382.000000
1081.565603	346.000000
1083.691287	323.800000
1085.816461	342.200000
1087.943039	342.800000
1090.065279	334.200000
1092.188924	323.400000
1094.308234	329.000000
1096.432774	320.000000
1098.551068	306.000000
1100.670767	313.400000
1102.788047	317.400000
1104.904821	323.400000
1107.021088	278.000000
1109.134939	309.400000
1111.250195	268.800000
1113.361127	287.800000
1115.475372	268.600000
1117.585296	312.000000
1119.696624	255.800000
1121.807447	272.600000
1123.913954	273.600000
1126.023771	262.200000
1128.129273	264.400000
1130.236178	257.200000
1132.336868	227.200000
1134.442770	273.200000
1136.544363	263.400000
1138.647359	260.000000
1140.749854	222.400000
1142.846142	229.400000
1144.947637	218.800000
1147.044830	280.000000
1149.141525	223.600000
1151.237721	232.600000
1153.333420	224.800000
1155.428620	251.200000
1157.521424	224.000000
1159.615631	222.600000
1161.703646	209.000000
1163.796859	258.000000
1165.883884	194.200000
1167.974208	259.200000
1170.060244	203.800000
1172.149579	224.400000
1174.232732	219.600000
1176.317287	233.600000
1178.403244	228.400000
1180.484919	218.400000
1182.567996	201.200000
1184.648687	228.800000
1186.728886	193.000000
1188.808594	195.200000
1190.887811	188.600000
1192.964646	216.400000
1195.039100	201.600000
1197.116845	211.000000
1199.190321	185.000000
1201.265197	220.000000
1203.335806	198.000000
1205.407816	196.600000
1207.477451	188.000000
1209.548486	186.400000
1211.619033	197.400000
1213.685319	205.400000
1215.753006	210.000000
1217.818321	181.000000
1219.885036	200.600000
1221.947495	185.800000
1224.013239	204.200000
1226.074729	196.000000
1228.137620	183.800000
1230.198143	218.000000
1232.258182	184.800000
1234.317739	194.000000
1236.374930	203.200000
1238.431640	189.800000
1240.485986	204.200000
1242.543614	204.000000
1244.598879	180.000000
1246.649903	190.400000
1248.702327	188.400000
1250.754271	218.400000
1252.803857	187.800000
1254.852964	209.200000
1256.901593	204.600000
1258.949743	215.400000
1260.997414	196.600000
1263.040855	164.400000
1265.087572	185.400000
1267.131935	190.200000
1269.175822	199.000000
1271.217357	180.600000
1273.256543	161.400000
1275.299002	204.200000
1277.337238	169.000000
1279.376873	194.200000
1281.416033	188.600000
1283.450974	197.400000
1285.487314	176.400000
1287.521310	179.200000
1289.556703	175.600000
1291.587884	218.600000
1293.620462	194.600000
1295.652569	214.000000
1297.682335	201.200000
1299.713498	219.200000
1301.740455	207.600000
1303.768809	181.600000
1305.792958	182.400000
1307.820373	185.400000
1309.843585	162.200000
1311.868195	183.200000
1313.890471	183.200000
1315.914144	209.200000
1317.935484	186.200000
1319.956356	212.800000
1321.976761	182.200000
1323.992973	197.600000
1326.010582	155.400000
1328.025863	192.000000
1330.044403	171.200000
1332.058754	193.800000
1334.070779	175.200000
1336.086061	182.200000
1338.097158	174.800000
1340.109652	185.200000
1342.117963	163.600000
1344.129529	211.400000
1346.135057	191.800000
1348.143840	216.800000
1350.148445	179.400000
1352.156304	199.800000
1354.163701	208.400000
1356.165067	198.400000
1358.167829	186.000000
1360.170132	190.600000
1362.171975	190.000000
1364.173358	217.200000
1366.172428	212.800000
1368.171039	201.400000
1370.169192	194.400000
1372.166886	195.800000
1374.160418	203.000000
1376.155345	217.600000
1378.149816	191.800000
1380.143830	197.800000
1382.135537	180.800000
1384.126789	205.200000
1386.115735	181.600000
1388.106076	167.000000
1390.095962	188.400000
1392.083544	193.600000
1394.070673	193.000000
1396.055500	193.600000
1398.041722	184.200000
1400.025644	199.000000
1402.009113	199.600000
1403.992129	178.200000
1405.972848	170.200000
1407.954961	204.400000
1409.934778	205.600000
1411.914143	229.800000
1413.889370	185.400000
1415.867835	200.200000
1417.844007	177.400000
1419.819730	180.400000
1421.795003	177.800000
1423.767985	190.000000
1425.740519	179.400000
1427.712605	209.400000
1429.684244	197.600000
1431.651754	186.200000
1433.624338	184.200000
1435.589116	194.400000
1437.558967	186.200000
1439.524694	182.400000
1441.491813	197.200000
1443.456649	198.800000
1445.417365	173.800000
1447.383149	179.600000
1449.342978	164.200000
1451.304201	177.600000
1453.266816	187.600000
1455.225316	180.400000
1457.183373	198.400000
1459.140989	209.000000
1461.098162	183.400000
1463.053060	220.600000
1465.009351	156.600000
1466.963367	183.800000
1468.916942	182.800000
1470.868245	195.200000
1472.820941	184.200000
1474.771364	186.000000
1476.721349	186.600000
1478.670895	187.600000
1480.618172	186.600000
1482.563181	192.600000
1484.509583	176.200000
1486.455547	183.400000
1488.401074	187.200000
1490.344335	170.000000
1492.287161	180.000000
1494.227723	179.800000
1496.169676	156.200000
1498.109367	237.400000
1500.048624	174.200000
1501.987445	175.400000
1503.924007	193.600000
1505.861960	187.800000
1507.797654	166.200000
1509.732915	194.400000
1511.665920	172.000000
1513.598492	183.800000
1515.530632	190.200000
1517.462340	178.400000
1519.391794	176.800000
1521.322639	193.000000
1523.253052	160.000000
1525.179393	175.200000
1527.107125	181.600000
1529.032606	194.400000
1530.957658	168.000000
1532.882281	177.400000
1534.806475	180.000000
1536.728421	172.200000
1538.651758	176.400000
1540.572848	188.600000
1542.491694	170.600000
1544.411930	188.000000
1546.329923	192.000000
1548.247489	191.200000
1550.162813	166.600000
1552.079527	156.800000
1553.992186	159.600000
1555.908049	197.600000
1557.821672	172.800000
1559.733057	199.200000
1561.645832	208.400000
1563.554557	167.600000
1565.464671	187.800000
1567.374362	170.400000
1569.283630	154.000000
1571.190664	198.800000
1573.095465	174.200000
1575.001655	183.000000
1576.905613	145.000000
1578.809150	177.000000
1580.712267	174.400000
1582.613154	177.400000
1584.515430	174.200000
1586.415478	206.000000
1588.316913	164.400000
1590.214315	195.800000
1592.111298	168.000000
1594.007863	189.200000
1595.905816	198.600000
1597.797934	187.800000
1599.693245	189.800000
1601.588139	173.600000
1603.480811	171.400000
1605.373066	193.200000
1607.263102	154.400000
1609.152722	176.800000
1611.041927	168.200000
1612.930717	188.600000
1614.817289	168.800000
1616.705249	179.000000
1618.589192	172.400000
1620.474522	196.400000
1622.359439	181.600000
1624.242142	178.400000
1626.126232	189.400000
1628.006310	196.800000
1629.887776	153.200000
1631.767031	182.800000
1633.647672	175.000000
1635.522509	172.800000
1637.402327	179.800000
1639.278141	162.200000
1641.153544	170.400000
1643.030333	186.200000
1644.901326	162.200000
1646.775500	179.800000
1648.645675	176.600000
1650.519032	180.200000
1652.390184	175.200000
1654.259136	168.600000
1656.129472	172.200000
1657.995816	168.800000
1659.863545	177.200000
1661.729075	190.800000
1663.595991	170.000000
1665.458918	194.000000
1667.323230	182.000000
1669.185346	187.200000
1671.047057	165.000000
1672.910154	191.400000
1674.771055	183.200000
1676.629764	163.200000
1678.488069	192.400000
1680.347759	170.000000
1682.201681	177.400000
1684.058777	172.800000
1685.915470	165.000000
1687.768186	167.400000
1689.624074	167.400000
1691.475988	182.400000
1693.327501	174.400000
1695.178613	184.800000
1697.029325	169.000000
1698.879635	167.600000
1700.727762	178.400000
1702.577273	165.400000
1704.421035	187.400000
1706.269746	167.200000
1708.112711	184.600000
1709.958843	166.400000
1711.801012	164.000000
1713.646347	169.000000
1715.485941	174.600000
1717.326919	149.000000
1719.169280	158.000000
1721.007685	204.800000
1722.847473	180.400000
1724.685086	162.400000
1726.522303	163.200000
1728.357347	194.400000
1730.193774	154.800000
1732.028029	165.000000
1733.861889	166.800000
1735.695355	181.400000
1737.524876	191.200000
1739.357555	172.000000
1741.186290	141.000000
1743.018182	154.000000
1744.846132	155.200000
1746.673691	169.600000
1748.500857	153.000000
1750.327632	178.200000
1752.154015	166.200000
1753.976462	158.400000
1755.802064	174.000000
1757.623731	197.800000
1759.446780	156.800000
1761.267667	177.400000
1763.088166	147.200000
1764.910045	163.200000
1766.726226	151.000000
1768.545558	147.600000
1770.360963	159.400000
1772.179518	156.200000
1773.994148	171.800000
1775.808391	195.800000
1777.622248	164.800000
1779.435718	175.200000
1781.247035	177.400000
1783.059732	159.200000
1784.872044	147.800000
1786.680438	171.000000
1788.490212	174.800000
1790.296072	198.600000
1792.105077	189.600000
1793.910169	143.400000
1795.716642	166.000000
1797.522731	192.400000
1799.324909	141.400000
1801.130232	159.400000
1802.931646	178.000000
1804.734440	164.400000
1806.533328	169.800000
1808.333597	182.400000
1810.133484	128.400000
1811.931229	165.600000
1813.728594	141.600000
1815.525579	174.000000
1817.322183	150.000000
1819.116648	161.400000
1820.912492	153.400000
1822.702681	175.600000
1824.497767	192.400000
1826.287201	159.600000
1828.079771	159.800000
1829.870206	164.800000
1831.658507	157.600000
1833.449943	156.200000
1835.235733	151.600000
1837.022903	159.200000
1838.807941	167.000000
1840.596113	173.000000
1842.380399	165.400000
1844.162555	179.000000
1845.946091	169.000000
1847.727498	156.800000
1849.510284	167.800000
1851.289189	174.600000
1853.069474	164.200000
1854.847632	151.600000
1856.627169	132.600000
1858.404581	167.800000
1860.179869	177.200000
1861.956535	158.000000
1863.731079	173.600000
1865.507001	146.600000
1867.277302	156.800000
1869.050731	178.800000
1870.822040	182.600000
1872.592978	188.400000
1874.365294	141.800000
1876.131996	140.800000
1877.901824	172.600000
1879.667788	157.000000
1881.436875	153.200000
1883.202101	179.600000
1884.966959	137.000000
1886.733194	186.600000
1888.495570	140.200000
1890.257579	178.800000
1892.019220	145.600000
1893.780495	159.000000
1895.541402	161.400000
1897.301943	176.000000
1899.060374	170.600000
1900.818439	188.200000
1902.574397	156.800000
1904.331731	179.800000
1906.088700	172.600000
1907.843562	136.400000
1909.596320	161.000000
1911.348713	165.200000
1913.102483	155.200000
1914.854149	179.000000
1916.603713	161.600000
1918.354652	170.400000
1920.105229	166.200000
1921.851966	149.000000
1923.600080	147.400000
1925.346094	160.600000
1927.093483	162.800000
1928.838775	173.000000
1930.581969	170.000000
1932.326538	169.200000
1934.069012	147.200000
1935.811125	164.800000
1937.552878	115.400000
1939.294271	164.000000
1941.033571	168.200000
1942.772512	164.400000
1944.511094	164.200000
1946.247585	155.200000
1947.983718	157.500000
1949.721225	159.800000
1951.454910	154.200000
1953.189970	178.800000
1954.922941	157.000000
1956.655556	181.200000
1958.387815	139.000000
1960.119717	160.200000
1961.849533	140.000000
1963.577264	137.600000
1965.306370	136.400000
1967.035121	178.000000
1968.761788	161.600000
1970.488101	161.600000
1972.215787	151.200000
1973.937937	178.000000
1975.663188	175.600000
1977.384632	152.400000
1979.109177	139.600000
1980.831641	137.800000
1982.550303	158.800000
1984.272063	155.400000
1985.990021	152.800000
1987.709352	177.200000
1989.424884	146.400000
1991.145236	170.200000
1992.861790	147.000000
1994.574547	165.800000
1996.290400	158.800000
1998.004181	164.400000
1999.717612	153.000000
2001.428972	165.000000
2003.141704	161.200000
2004.850646	180.800000
2006.562680	161.800000
2008.269206	174.800000
2009.978823	165.400000
2011.686374	172.800000
2013.393576	161.000000
2015.098713	176.400000
2016.803504	178.200000
2018.509666	171.400000
2020.212046	159.800000
2021.915797	152.200000
2023.617486	140.000000
2025.318830	148.400000
2027.019828	169.600000
2028.718765	164.200000
2030.419074	160.800000
2032.115608	170.200000
2033.813513	146.000000
2035.509359	199.000000
2037.208291	111.400000
2038.901737	159.800000
2040.596554	137.000000
2042.291029	163.000000
2043.981735	172.200000
2045.675525	181.600000
2047.365548	147.200000
2049.056942	172.200000
2050.746283	143.600000
2052.436994	164.600000
2054.123942	175.200000
2055.810551	181.600000
2057.498529	136.400000
2059.182748	158.800000
2060.868338	138.400000
2062.553588	168.200000
2064.236789	125.600000
2065.921361	156.200000
2067.600470	186.600000
2069.284364	169.800000
2070.962797	137.200000
2072.644308	156.200000
2074.322067	167.800000
2075.999490	203.400000
2077.678282	153.400000
2079.355032	164.000000
2081.029740	142.200000
2082.705817	160.200000
2084.379853	146.000000
2086.053555	162.000000
2087.726921	136.200000
2089.398248	145.400000
2091.069241	124.000000
2092.739900	161.600000
2094.410225	148.400000
2096.080216	168.400000
2097.748171	147.800000
2099.415793	167.400000
2101.081380	150.600000
2102.748336	169.800000
2104.413259	135.400000
2106.077850	157.800000
2107.740409	164.400000
2109.404336	163.600000
2111.066232	160.200000
2112.727798	156.200000
2114.389032	150.200000
2116.048238	173.000000
2117.707113	173.800000
2119.365659	140.400000
2121.023874	147.000000
2122.678367	164.200000
2124.335924	129.400000
2125.993152	175.400000
2127.646658	142.200000
2129.301532	173.400000
2130.952687	160.800000
2132.606905	154.400000
2134.257406	140.400000
2135.909273	152.600000
2137.555732	143.200000
2139.206946	159.600000
2140.854446	161.400000
2142.503313	188.400000
2144.150161	153.200000
2145.796684	156.200000
2147.442881	163.800000
2149.085370	153.800000
2150.730917	162.400000
2152.372757	146.400000
2154.017654	166.200000
2155.658845	147.000000
2157.299714	143.400000
2158.940258	172.400000
2160.578790	158.400000
2162.218688	180.400000
2163.854886	129.400000
2165.492450	143.600000
2167.129692	166.400000
2168.764924	134.600000
2170.399835	151.200000
2172.034423	179.800000
2173.668691	153.000000
2175.299265	169.600000
2176.932891	162.600000
2178.562825	162.000000
2180.194124	146.200000
2181.823418	150.800000
2183.452393	166.800000
2185.081048	137.400000
2186.709384	117.600000
2188.335718	159.400000
2189.961733	153.400000
2191.585746	151.800000
2193.211125	184.000000
2194.834503	143.000000
2196.459246	138.000000
2198.080308	140.200000
2199.701053	153.600000
2201.323163	150.800000
2202.943275	145.000000
2204.561390	142.000000
2206.179190	147.800000
2207.796675	163.000000
2209.413844	164.200000
2211.030698	185.600000
2212.647236	141.800000
2214.261782	165.000000
2215.874335	132.800000
2217.488252	139.800000
2219.100178	127.400000
2220.713467	147.600000
2222.324766	121.000000
2223.934075	161.000000
2225.544748	163.400000
2227.153432	129.800000
2228.761803	155.600000
2230.368188	154.800000
2231.975936	143.200000
2233.581697	160.600000
2235.187147	165.200000
2236.790612	158.800000
2238.395440	143.800000
2239.998284	151.600000
2241.599145	143.200000
2243.201369	152.400000
2244.801611	141.200000
2246.403215	157.400000
2248.001166	145.800000
2249.600480	153.200000
2251.197814	141.800000
2252.794840	152.400000
2254.393228	136.200000
2255.987967	155.600000
2257.580729	141.400000
2259.174854	152.400000
2260.770340	138.400000
2262.362181	152.000000
2263.953716	153.200000
2265.546613	145.800000
2267.134200	131.200000
2268.726483	156.200000
2270.313460	143.000000
2271.903464	155.600000
2273.488164	157.400000
2275.077558	170.800000
2276.661650	130.200000
2278.247102	145.400000
2279.830586	159.800000
2281.417095	156.200000
2282.999971	128.800000
2284.582544	150.400000
2286.164813	135.400000
2287.743452	129.800000
2289.325116	143.200000
2290.903151	163.800000
2292.484209	138.400000
2294.061640	136.500000
2295.637108	134.600000
2297.215598	191.400000
2298.790464	122.600000
2300.365029	143.800000
2301.939294	143.400000
2303.513258	151.400000
2305.086921	137.000000
2306.660285	144.400000
2308.230030	144.200000
2309.799476	135.800000
2311.371940	155.600000
2312.939130	128.000000
2314.509338	144.000000
2316.075931	153.200000
2317.643884	142.800000
2319.209881	169.400000
2320.775581	151.000000
2322.340983	151.400000
2323.904432	125.000000
2325.469240	131.600000
2327.030440	128.800000
2328.594654	143.400000
2330.153606	164.200000
2331.715573	143.800000
2333.275588	153.400000
2334.835309	135.600000
2336.393080	124.600000
2337.950556	137.200000
2339.507738	149.800000
2341.062972	151.400000
2342.617913	129.800000
2344.172559	169.200000
2345.726912	122.200000
2347.280972	144.600000
2348.834737	139.200000
2350.386558	154.800000
2351.936437	129.400000
2353.489323	149.800000
2355.036966	129.200000
2356.587618	169.400000
2358.134678	136.200000
2359.683096	154.200000
2361.231223	152.800000
2362.775761	169.200000
2364.321657	152.000000
2365.865615	134.600000
2367.410930	152.200000
2368.952660	153.400000
2370.495747	150.600000
2372.036898	137.400000
2373.577760	129.600000
2375.118333	175.200000
2376.658617	124.800000
2378.198612	137.800000
2379.735029	127.000000
2381.274447	152.800000
2382.810287	141.800000
2384.347485	155.000000
2385.881107	126.600000
2387.417729	125.400000
2388.952421	153.000000
2390.485183	150.000000
2392.017658	120.600000
2393.548205	157.000000
2395.081750	138.000000
2396.610084	171.800000
2398.139774	136.800000
2399.669179	132.600000
2401.198299	134.000000
2402.727134	146.200000
2404.250763	134.200000
2405.779028	138.000000
2407.302091	155.200000
2408.829787	159.800000
2410.350644	126.000000
2411.876134	155.000000
2413.398063	156.400000
2414.921348	128.000000
2416.442711	137.000000
2417.962155	148.800000
2419.482954	128.400000
2421.001835	136.400000
2422.520433	127.800000
2424.037114	146.200000
2425.555149	132.200000
2427.072903	154.000000
2428.587106	124.200000
2430.101028	148.800000
2431.614670	148.000000
2433.129667	148.200000
2434.641115	151.200000
2436.153918	154.200000
2437.664807	134.600000
2439.175418	146.800000
2440.684117	142.000000
2442.195802	170.000000
2443.703944	112.600000
2445.211808	141.000000
2446.719394	128.800000
2448.223439	149.600000
2449.730469	110.200000
2451.235591	148.000000
2452.740436	145.800000
2454.243374	143.000000
2455.746036	117.200000
2457.248421	149.800000
2458.748901	144.000000
2460.250734	143.800000
2461.750662	134.600000
2463.250315	120.600000
2464.749693	116.600000
2466.247168	137.200000
2467.742741	121.400000
2469.241294	147.800000
2470.736319	123.800000
2472.232696	162.400000
2473.725547	125.200000
2475.219751	150.200000
2476.713681	138.000000
2478.204087	139.800000
2479.697471	119.400000
2481.188957	155.400000
2482.678546	145.000000
2484.167863	154.400000
2485.655284	118.400000
2487.145681	156.000000
2488.632560	111.000000
2490.120790	144.400000
2491.605503	114.000000
2493.089947	143.000000
2494.575741	118.600000
2496.059644	149.400000
2497.544897	136.200000
2499.025017	129.800000
2500.508110	115.800000
2501.989312	133.600000
2503.470245	99.600000
2504.949289	163.400000
2506.428064	118.400000
2507.906571	128.000000
2509.384810	127.000000
2510.862780	137.400000
2512.337245	117.800000
2513.814680	149.800000
2515.288611	145.400000
2516.763892	143.000000
2518.238906	116.800000
2519.710419	140.600000
2521.183283	141.200000
2522.654264	150.800000
2524.126595	131.800000
2525.593812	141.600000
2527.063996	121.600000
2528.532299	141.000000
2530.000337	113.000000
2531.468110	141.600000
2532.935618	142.600000
2534.402861	130.200000
2535.866612	130.800000
2537.331713	129.200000
2538.794937	125.000000
2540.259510	123.200000
2541.720595	119.000000
2543.183029	147.800000
2544.645200	139.200000
2546.103885	140.800000
2547.567141	127.400000
2549.025302	160.000000
2550.484811	122.000000
2551.939226	158.400000
2553.398212	131.600000
2554.855326	178.000000
2556.310569	126.600000
2557.765550	140.800000
2559.218663	133.400000
2560.673124	141.200000
2562.125715	135.200000
2563.578047	139.600000
2565.028512	126.600000
2566.481932	144.800000
2567.930270	131.000000
2569.381563	151.400000
2570.830991	144.600000
2572.276946	144.400000
2573.725856	105.200000
2575.171296	165.200000
2576.618083	130.200000
2578.063008	149.400000
2579.507674	163.000000
2580.953688	114.000000
2582.396236	118.200000
2583.840131	141.800000
2585.280561	130.200000
2586.722338	111.200000
2588.162256	137.600000
2589.603521	124.400000
2591.041324	115.200000
2592.482077	135.400000
2593.917768	143.000000
2595.356408	144.600000
2596.793190	143.600000
2598.228117	141.600000
2599.665991	130.400000
2601.098808	162.400000
2602.532972	129.600000
2603.965282	123.000000
2605.398938	126.400000
2606.830741	159.800000
2608.262290	132.000000
2609.693587	148.600000
2611.123031	119.200000
2612.552223	142.600000
2613.979565	140.200000
2615.408252	164.000000
2616.836688	127.600000
2618.261676	137.800000
2619.688011	110.400000
2621.112497	116.600000
2622.538329	123.000000
2623.960717	138.600000
2625.384451	139.200000
2626.806338	165.400000
2628.227976	129.600000
2629.647768	138.200000
2631.068906	112.800000
2632.489794	123.200000
2633.907244	111.800000
2635.327633	144.600000
2636.744585	131.400000
2638.161288	145.000000
2639.577743	142.000000
2640.993950	130.200000
2642.409909	138.000000
2643.824027	138.200000
2645.237897	118.200000
2646.649929	118.800000
2648.063304	121.200000
2649.473250	141.600000
2650.886132	133.800000
2652.295585	134.200000
2653.704792	123.400000
2655.112163	122.600000
2656.522468	113.200000
2657.930938	146.800000
2659.337572	142.800000
2660.743961	128.600000
2662.148516	101.200000
2663.554415	124.400000
2664.958481	135.000000
2666.362302	152.600000
2667.765879	126.000000
2669.167625	132.400000
2670.570714	124.800000
2671.970385	141.200000
2673.371400	117.200000
2674.768999	141.400000
2676.169527	119.800000
2677.566641	131.600000
2678.965098	127.600000
2680.361728	143.000000
2681.758115	119.200000
2683.154260	127.400000
2684.548579	96.400000
2685.944241	136.800000
2687.336494	140.800000
2688.730089	115.400000
2690.121860	139.600000
2691.514974	159.000000
2692.906264	117.000000
2694.295731	141.600000
2695.684958	121.000000
2697.073946	98.600000
2698.464275	121.000000
2699.849621	136.200000
2701.237890	135.200000
2702.624339	151.600000
2704.010549	120.600000
2705.396520	142.600000
2706.779093	88.400000
2708.163008	125.600000
2709.546685	114.000000
2710.930123	103.200000
2712.310167	123.000000
2713.691551	130.600000
2715.071121	121.600000
2716.452031	104.000000
2717.831127	122.800000
2719.208409	147.400000
2720.587032	95.800000
2721.963842	152.200000
2723.340415	119.000000
2724.716753	110.800000
2726.091280	139.800000
2727.467147	150.400000
2728.839627	148.000000
2730.215023	132.800000
2731.585459	114.400000
2732.957236	134.600000
2734.328778	149.000000
2735.698512	122.600000
2737.069587	116.200000
2738.438853	121.400000
2739.807886	102.400000
2741.175113	140.000000
2742.542106	115.600000
2743.908867	119.400000
2745.275396	131.400000
2746.640119	133.400000
2748.004610	138.800000
2749.368870	129.800000
2750.732897	136.400000
2752.096693	135.400000
2753.457115	130.200000
2754.820447	137.400000
2756.178837	115.000000
2757.540137	121.000000
2758.898067	138.200000
2760.258905	137.000000
2761.617944	118.600000
2762.973614	136.200000
2764.332192	124.400000
2765.687403	145.000000
2767.042385	101.400000
2768.395571	140.000000
2769.751662	140.000000
2771.104390	129.800000
2772.456890	105.200000
2773.809161	105.000000
2775.162770	154.400000
2776.513019	129.800000
2777.861473	134.800000
2779.212833	108.800000
2780.560833	107.200000
2781.910171	164.200000
2783.257717	133.800000
2784.605037	141.400000
2785.952130	109.800000
2787.297432	130.000000
2788.642507	133.000000
2789.987357	127.600000
2791.331981	122.200000
2792.673253	142.000000
2794.015863	121.200000
2795.358247	140.000000
2796.700406	120.600000
2798.039216	119.200000
2799.380926	117.600000
2800.719288	119.200000
2802.058986	93.800000
2803.396900	112.200000
2804.733029	112.000000
2806.068934	125.000000
2807.406177	109.600000
2808.741636	126.000000
2810.076872	107.200000
2811.410325	131.800000
2812.745115	118.800000
2814.076565	137.800000
2815.410910	101.800000
2816.740357	118.200000
2818.071141	132.200000
2819.401703	128.200000
2820.730486	94.000000
2822.060605	137.800000
2823.388946	116.600000
2824.717066	125.400000
2826.043408	104.400000
2827.371087	125.200000
2828.695432	123.400000
2830.021114	89.400000
2831.345020	106.000000
2832.668707	110.600000
2833.993729	110.600000
2835.315421	115.600000
2836.636895	121.200000
2837.958150	112.800000
2839.279186	126.000000
2840.598449	118.600000
2841.919048	118.600000
2843.237876	145.800000
2844.556485	111.000000
2845.873323	128.600000
2847.189944	105.800000
2848.506348	139.600000
2849.820982	126.000000
2851.136952	124.800000
2852.449601	94.200000
2853.763585	126.200000
2855.077353	106.400000
2856.390904	137.800000
2857.702689	107.800000
2859.012707	115.400000
2860.324060	122.600000
2861.632098	130.800000
2862.941470	121.400000
2864.250628	108.800000
2865.559570	90.800000
2866.866748	133.000000
2868.172164	82.200000
2869.478913	143.000000
2870.783901	119.200000
2872.088675	135.000000
2873.391687	119.800000
2874.697580	118.000000
2875.998619	108.200000
2877.300992	113.800000
2878.601605	116.800000
2879.903552	117.400000
2881.205285	113.200000
2882.503715	143.800000
2883.803478	113.000000
2885.101484	116.000000
2886.399278	120.200000
2887.695316	133.800000
2888.992687	102.600000
2890.288302	123.800000
2891.583706	107.400000
2892.878899	141.800000
2894.170795	121.800000
2895.465567	101.200000
2896.757042	101.200000
2898.049850	105.000000
2899.342448	124.800000
2900.631752	106.000000
2901.922388	91.000000
2903.211273	111.200000
2904.501490	107.400000
2905.788416	130.400000
2907.076674	103.800000
2908.363183	154.800000
2909.649483	124.000000
2910.935576	121.400000
2912.219920	122.600000
2913.507135	100.800000
2914.789524	108.200000
2916.073245	128.000000
2917.355220	99.200000
2918.636987	95.600000
2919.917010	113.400000
2921.199902	125.600000
2922.481049	105.000000
2923.758914	94.200000
2925.039648	109.200000
2926.317101	108.800000
2927.594348	121.400000
2928.869853	139.600000
2930.148226	92.600000
2931.421785	107.600000
2932.698211	97.200000
2933.972896	113.800000
2935.245840	95.200000
2936.520116	112.200000
2937.792652	126.200000
2939.064983	106.800000
2940.334042	113.600000
2941.605966	125.600000
2942.876152	83.800000
2944.146134	128.600000
2945.415913	117.800000
2946.683956	126.200000
2947.950262	99.600000
2949.216367	135.200000
2950.483801	74.400000
2951.749501	102.800000
2953.014998	115.800000
2954.280293	131.000000
2955.542323	105.400000
2956.805683	122.000000
2958.068842	95.200000
2959.330269	127.800000
2960.593025	115.000000
2961.854049	121.200000
2963.113343	101.000000
2964.372437	116.600000
2965.631330	88.600000
2966.890023	113.200000
2968.148516	114.800000
2969.405280	100.600000
2970.661844	110.400000
2971.916681	121.000000
2973.172846	103.200000
2974.425757	105.200000
2975.679997	112.000000
2976.934037	114.200000
2978.186353	90.000000
2979.438469	137.200000
2980.688861	90.400000
2981.942108	125.400000
2983.190578	133.200000
2984.441903	115.000000
2985.689978	88.800000
2986.937857	86.400000
2988.185538	77.200000
2989.433022	105.200000
2990.678785	101.400000
2991.924352	115.200000
2993.171246	116.800000
2994.414896	126.200000
2995.659874	106.400000
2996.901608	115.200000
2998.146194	85.400000
2999.389061	99.400000
3000.628687	98.800000
3001.871163	108.000000
3003.110399	86.800000
3004.350963	104.200000
3005.589810	110.600000
3006.828463	123.600000
3008.065400	98.000000
3009.303665	117.800000
3010.540214	109.800000
3011.776570	113.800000
3013.012732	108.000000
3014.247180	90.400000
3015.481436	108.800000
3016.715498	106.000000
3017.947848	82.800000
3019.178486	110.400000
3020.411970	85.800000
3021.643742	112.400000
3022.873804	119.400000
3024.103673	137.600000
3025.331833	117.800000
3026.561320	106.200000
3027.789097	117.000000
3029.016683	89.000000
3030.245596	104.400000
3031.469766	89.000000
3032.696779	104.000000
3033.920568	110.800000
3035.145684	116.000000
3036.369093	116.800000
3037.592312	86.400000
3038.813826	111.800000
3040.038181	117.600000
3041.257801	88.200000
3042.478747	121.200000
3043.699504	106.000000
3044.918557	83.000000
3046.138935	114.800000
3047.356097	101.200000
3048.574585	102.000000
3049.791370	88.800000
3051.007968	130.200000
3052.224377	102.800000
3053.437574	102.000000
3054.653608	83.600000
3055.866430	109.600000
3057.082089	98.000000
3058.293025	92.800000
3059.505286	115.600000
3060.717361	116.800000
3061.929248	112.000000
3063.139439	88.400000
3064.349443	101.800000
3065.559261	130.200000
3066.767383	101.800000
3067.975320	110.600000
3069.181561	99.600000
3070.389127	88.000000
3071.594998	103.400000
3072.800685	118.800000
3074.006186	118.600000
3075.209994	119.000000
3076.415126	87.000000
3077.618565	111.800000
3078.820313	122.600000
3080.021876	85.200000
3081.223256	121.600000
3082.424452	94.400000
3083.623958	98.200000
3084.823281	100.800000
3086.023927	87.800000
3087.222883	112.000000
3088.418645	107.400000
3089.617236	96.400000
3090.812633	104.800000
3092.009353	107.800000
3093.202881	102.400000
3094.399237	116.800000
3095.593907	94.800000
3096.785385	125.000000
3097.981196	86.600000
3099.172312	71.600000
3100.364752	85.600000
3101.554004	104.800000
3102.746081	82.400000
3103.936475	110.000000
3105.123683	101.800000
3106.312213	105.800000
3107.502066	106.400000
3108.688735	102.600000
3109.875223	104.000000
3111.061533	108.800000
3112.249164	105.200000
3113.433613	109.800000
3114.616383	95.600000
3115.801975	104.600000
3116.985888	77.400000
3118.168122	92.800000
3119.350177	103.000000
3120.532054	78.400000
3121.713753	86.000000
3122.893775	113.400000
3124.072120	74.000000
3125.253285	98.000000
3126.431275	109.600000
3127.609089	101.400000
3128.786725	100.600000
3129.962686	105.200000
3131.138470	114.000000
3132.315576	104.600000
3133.491007	93.800000
3134.664765	104.800000
3135.836850	98.000000
3137.010257	134.000000
3138.183487	94.400000
3139.355046	105.000000
3140.527925	103.800000
3141.697637	100.200000
3142.868670	99.400000
3144.038033	90.000000
3145.205725	84.200000
3146.376233	105.400000
3147.542083	66.600000
3148.712241	108.800000
3149.877743	114.600000
3151.043070	119.200000
3152.208224	99.200000
3153.373205	113.800000
3154.539505	91.600000
3155.701153	108.400000
3156.864120	110.000000
3158.026915	92.400000
3159.189537	78.400000
3160.350494	148.400000
3161.511278	98.400000
3162.671890	98.200000
3163.830838	100.600000
3164.989615	91.800000
3166.148220	85.200000
3167.306652	96.200000
3168.464914	99.000000
3169.621513	109.800000
3170.776451	89.800000
3171.932708	105.200000
3173.087304	84.400000
3174.241730	108.600000
3175.394496	93.000000
3176.547091	123.000000
3177.699517	88.600000
3178.851773	86.800000
3180.003858	81.400000
3181.152798	130.000000
3182.304544	69.600000
3183.454632	108.400000
3184.603064	79.000000
3185.751326	103.200000
3186.899420	94.600000
3188.047345	106.600000
3189.193614	80.800000
3190.339715	116.600000
3191.484162	96.400000
3192.628441	101.600000
3193.772552	126.600000
3194.917980	127.800000
3196.060270	72.600000
3197.202393	105.400000
3198.344348	98.000000
3199.486136	99.600000
3200.627757	78.000000
3201.766243	135.400000
3202.906046	107.800000
3204.047167	95.800000
3205.185153	86.600000
3206.321490	91.800000
3207.457661	83.800000
3208.595149	91.400000
3209.730989	100.000000
3210.868146	118.400000
3212.000690	90.800000
3213.137516	102.000000
3214.269730	127.000000
3215.403261	109.600000
3216.536628	104.800000
3217.666867	95.200000
3218.799904	77.400000
3219.929815	89.000000
3221.061042	110.000000
3222.189145	115.600000
3223.320044	84.800000
3224.449299	97.000000
3225.576911	83.600000
3226.701400	99.800000
3227.830165	75.600000
3228.955808	89.400000
3230.081289	85.400000
3231.205128	93.600000
3232.331761	92.200000
3233.453797	93.600000
3234.577149	88.000000
3235.700339	90.200000
3236.823366	108.400000
3237.944755	70.800000
3239.065981	86.800000
3240.185570	110.400000
3241.304997	72.200000
3242.422786	97.800000
3243.543367	104.800000
3244.660835	94.200000
3245.778142	87.400000
3246.895289	101.000000
3248.010800	94.400000
3249.127625	119.000000
3250.241341	102.200000
3251.357846	110.200000
3252.472717	95.600000
3253.584479	100.200000
3254.696081	86.600000
3255.808999	105.600000
3256.921757	105.400000
3258.031409	103.800000
3259.142376	49.800000
3260.253184	80.800000
3261.362360	81.000000
3262.469906	90.400000
3263.578765	132.400000
3264.687467	104.800000
3265.793066	87.200000
3266.899979	75.000000
3268.005263	101.000000
3269.111861	96.800000
3270.215359	93.800000
3271.320172	83.800000
3272.424827	84.800000
3273.526383	100.400000
3274.627783	109.000000
3275.730497	104.200000
3276.833055	94.400000
3277.932516	98.400000
3279.034761	94.200000
3280.133910	98.800000
3281.231435	99.000000
3282.328804	98.800000
3283.428955	114.400000
3284.526014	96.200000
3285.622917	104.200000
3286.719665	79.000000
3287.811855	77.000000
3288.908293	95.400000
3290.003109	97.400000
3291.097771	111.400000
3292.190811	69.600000
3293.283696	111.200000
3294.374962	88.600000
3295.467539	83.600000
3296.558497	112.200000
3297.647835	95.000000
3298.737020	94.200000
3299.827518	132.200000
3300.914931	72.200000
3302.002191	99.000000
3303.090764	94.200000
3304.179185	110.000000
3305.263058	80.800000
3306.351173	110.200000
3307.436206	95.000000
3308.519624	120.400000
3309.604354	72.400000
3310.687468	127.800000
3311.771895	81.800000
3312.853243	110.000000
3313.935903	101.000000
3315.016949	66.400000
3316.097844	124.800000
3317.177125	83.800000
3318.256256	96.200000
3319.336699	93.600000
3320.414067	88.800000
3321.492747	97.600000
3322.569815	88.400000
3323.646734	112.800000
3324.722041	107.000000
3325.797199	89.200000
3326.873668	80.200000
3327.947067	93.400000
3329.020317	89.200000
3330.094877	106.800000
3331.167829	66.800000
3332.239172	92.000000
3333.311826	102.400000
3334.381414	92.000000
3335.452312	106.400000
3336.521603	104.800000
3337.592205	99.800000
3338.661200	116.200000
3339.728589	107.000000
3340.794373	83.600000
3341.864383	89.600000
3342.931330	101.200000
3343.995215	71.200000
3345.061868	100.200000
3346.126916	91.800000
3347.190361	85.200000
3348.253660	78.400000
3349.316812	91.200000
3350.379818	89.600000
3351.442678	95.200000
3352.503936	82.600000
3353.562137	111.000000
3354.624558	69.200000
3355.683924	84.400000
3356.743144	96.200000
3357.803673	98.400000
3358.859694	79.800000
3359.918478	90.800000
3360.972755	82.800000
3362.029796	82.200000
3363.085238	84.800000
3364.141990	72.200000
3365.197143	80.000000
3366.250699	109.400000
3367.302659	87.800000
3368.357380	109.000000
3369.409052	109.200000
3370.460581	96.400000
3371.513418	94.400000
3372.563208	103.800000
3373.614307	65.400000
3374.662360	94.000000
3375.713172	109.600000
3376.760940	102.200000
3377.808565	89.800000
3378.856047	86.600000
3379.901937	81.800000
3380.949135	102.000000
3381.993291	84.800000
3383.040205	92.200000
3384.085527	84.600000
3385.127808	96.000000
3386.169949	81.800000
3387.213397	97.800000
3388.256704	88.000000
3389.298422	91.400000
3390.339998	95.800000
3391.381433	95.000000
3392.421280	78.400000
3393.459538	104.600000
3394.499104	91.600000
3395.538530	97.800000
3396.576368	64.800000
3397.612619	101.600000
3398.648731	75.200000
3399.686150	78.000000
3400.720536	85.200000
3401.756229	90.200000
3402.791783	81.000000
3403.824306	84.600000
3404.859582	71.600000
3405.891827	93.600000
3406.923934	88.000000
3407.954457	89.200000
3408.986287	85.800000
3410.017979	111.600000
3411.046643	68.200000
3412.075170	102.000000
3413.105003	112.200000
3414.134699	108.600000
3415.161369	103.600000
3416.189346	103.600000
3417.214298	96.000000
3418.242000	92.200000
3419.266679	83.200000
3420.292664	75.600000
3421.317069	93.600000
3422.341338	80.000000
3423.364028	89.400000
3424.386582	114.200000
3425.410442	81.200000
3426.431282	99.800000
3427.451986	97.200000
3428.473997	73.000000
3429.492989	74.400000
3430.511845	90.400000
3431.532008	70.800000
3432.549154	100.400000
