-118.702670	11.423077
-116.033069	16.178022
-113.366404	19.310290
-110.700491	20.980020
-108.037511	21.347353
-105.373100	20.572428
-102.711620	18.815385
-100.048711	13.344056
-97.390908	9.636364
-94.731676	7.709091
-92.073192	10.096503
-89.417633	8.960839
-86.760644	11.930070
-84.108754	15.703497
-81.455434	19.678322
-78.805033	19.706294
-76.153204	22.393007
-73.506465	24.054545
-70.858296	27.500699
-68.210870	22.455944
-65.566359	18.240559
-62.920418	22.841958
-60.279559	28.257343
-57.637271	27.358042
-54.997892	29.875524
-52.357084	28.409790
-49.717015	27.288112
-47.082020	23.002797
-44.445595	26.963636
-41.812073	30.020979
-39.177123	33.627972
-36.547239	32.865734
-33.913761	39.941259
-31.285346	50.320280
-28.657665	56.956643
-26.028555	41.606993
-23.404503	-58.311888
-20.776860	-561.149650
-18.154272	-1407.086713
-15.532414	-2008.121678
-12.911287	1250.700699
-10.290891	6861.123077
-7.673382	11623.081119
-5.054445	14965.013986
-2.438394	16871.510490
0.176930	17323.808392
2.791525	16337.523077
5.403239	13918.043357
8.016381	10129.535664
10.624489	5226.072727
13.236178	336.193007
15.842837	-2719.337063
18.450925	-1725.556643
21.058287	-191.762238
23.660625	54.009790
26.266542	51.601399
28.867436	48.776224
31.469758	39.411189
34.067062	38.120280
36.667943	34.156643
39.263808	34.095105
41.861101	31.454545
44.457675	34.104895
47.049240	30.198601
49.642234	31.787413
52.232366	28.794406
54.823925	25.593007
57.412626	22.682517
60.002753	22.830769
62.587881	20.479720
65.174437	25.595804
67.760278	26.174825
70.343266	31.797203
72.927681	31.862937
75.504967	35.316084
78.085818	29.029371
80.663822	23.774825
83.241114	22.089510
85.819834	19.131469
88.393571	16.156643
90.968735	16.211189
93.541056	15.615385
96.112670	19.553846
98.681443	22.299301
101.251643	29.855944
103.819004	28.553846
106.387792	29.401399
108.953743	24.434965
111.516859	25.173427
114.083531	29.997203
116.640981	30.716084
119.204117	32.579021
121.762294	36.093706
124.324025	46.932867
126.880799	71.597203
129.438999	108.082517
131.992247	154.151049
134.544797	200.437762
137.100897	250.211189
139.652049	300.756643
142.202504	359.565035
144.752261	404.062937
147.299199	434.211189
149.845442	454.660140
152.393110	465.100699
154.940082	468.110490
157.482118	467.356643
160.023462	466.605594
162.564112	465.734266
165.106187	454.240559
167.645452	447.629371
170.181907	446.153846
172.717672	449.654545
175.254862	449.506294
177.791361	448.317483
180.325054	448.944056
182.855943	448.886713
185.386144	441.958042
187.917771	438.560839
190.446596	438.958042
192.972622	437.320280
195.497962	435.441958
198.024727	438.780420
200.548696	436.702098
203.071979	437.653147
205.594578	440.292308
208.114384	443.138462
210.633507	444.237762
213.151947	449.795804
215.671812	447.588811
218.184674	450.018182
220.701068	448.802797
223.216781	452.111888
225.727603	455.639161
228.239850	455.285315
230.749314	453.132867
233.258100	455.483916
235.766208	455.009790
238.275740	459.690909
240.780391	460.921678
243.284366	466.386014
245.789765	464.759441
248.290289	465.544056
250.794336	469.440559
253.291413	476.468531
255.792012	480.791608
258.289840	483.923077
260.786995	485.335664
263.283478	487.373427
265.775097	486.816783
268.270236	487.274126
270.762608	488.425175
273.254310	490.532867
275.743249	490.906294
278.233611	494.408392
280.721212	497.970629
283.206053	502.681119
285.694409	502.861538
288.175825	508.583217
290.660755	507.802797
293.140839	514.510490
295.624436	512.559441
298.103191	513.619580
300.583368	511.367832
303.060794	512.029371
305.537556	517.994406
308.013654	536.181818
310.487004	557.009790
312.959693	590.104895
315.431720	618.690909
317.903085	647.742657
320.371707	664.602797
322.839669	677.446154
325.309054	664.081119
327.773616	649.450350
330.241682	620.572028
332.704927	596.366434
335.167516	569.692308
337.629448	554.034965
340.090723	552.313287
342.549263	556.576224
345.009226	558.338462
347.466457	561.993007
349.923033	567.651748
352.378955	568.032168
354.832147	562.683916
357.286762	566.286713
359.736575	558.794406
362.189884	557.848951
364.638394	551.232168
367.086254	555.167832
369.535536	558.173427
371.980023	556.853147
374.425933	559.627972
376.871194	564.732867
379.313736	568.153846
381.755630	565.600000
384.196876	566.054545
386.635408	568.492308
389.075360	567.559441
391.512599	570.590210
393.947127	566.318881
396.385141	564.749650
398.818380	555.990210
401.253039	555.813986
403.682926	557.590210
406.116298	559.257343
408.544900	562.341259
410.972860	564.492308
413.402241	571.137063
415.826858	573.609790
418.252895	578.372028
420.678293	583.495105
423.103050	582.285315
425.523048	584.289510
427.944468	583.738462
430.363192	583.820979
432.783335	581.043357
435.200784	583.323077
437.619654	579.763636
440.035829	580.688112
442.447258	577.335664
444.862163	574.602797
447.274378	573.451748
449.685960	577.151049
452.096907	571.643357
454.505167	569.693706
456.912796	563.117483
459.319792	561.236364
461.726157	557.967832
464.129839	555.204196
466.532891	548.461538
468.935313	548.767832
471.337105	541.611189
473.736219	539.216783
476.136753	531.883916
478.536658	532.714685
480.931841	531.697902
483.330489	534.531469
485.724418	533.984615
488.117721	535.841958
490.510399	533.123077
492.902451	530.643357
495.295921	520.837762
497.684679	502.688112
500.070771	477.138462
502.458283	456.909091
504.845172	433.563636
507.229396	420.482517
509.615040	404.050350
511.998022	388.373427
514.378342	376.581818
516.760083	371.088112
519.139164	368.495105
521.519663	370.002797
523.897506	364.902098
526.272692	361.667133
528.647261	357.949650
531.023249	358.765035
533.396584	355.748252
535.771336	353.973427
538.141402	343.756643
540.510854	333.875524
542.881723	329.469930
545.247911	327.137063
547.615518	318.464336
549.980479	318.096503
552.344828	315.854545
554.708563	315.265734
557.073716	313.980420
559.434197	314.904895
561.796095	313.974825
564.155354	317.805594
566.511974	315.131469
568.872040	316.419580
571.225414	318.289510
573.582233	317.001399
575.936417	309.436364
578.289992	310.226573
580.642960	309.037762
582.993295	308.486713
585.345048	302.383217
587.690124	304.233566
590.040663	304.295105
592.384530	306.613986
594.733858	303.051748
597.078537	306.784615
599.420592	303.545455
601.764064	299.116084
604.104913	297.783217
606.445159	298.888112
608.782785	296.848951
611.123846	297.279720
613.460270	291.125874
615.798110	292.116084
618.133333	283.801399
620.465939	276.774825
622.799963	273.353846
625.131372	274.306294
627.462183	274.499301
629.792396	277.033566
632.122012	277.834965
634.447004	274.471329
636.777438	270.699301
639.103251	273.909091
641.426456	268.569231
643.751078	264.135664
646.073094	256.180420
648.394516	255.639161
650.713335	253.619580
653.033571	254.869930
655.353212	254.791608
657.670254	256.836364
659.986703	250.295105
662.300554	247.865734
664.615821	246.965035
666.928491	251.496503
669.242576	248.395804
671.552061	250.865734
673.862962	249.520280
676.171270	248.608392
678.478989	246.899301
680.788124	249.850350
683.092666	249.341259
685.396622	254.839161
687.699991	253.416783
690.004776	256.457343
692.304973	256.965035
694.606586	258.474126
696.907613	249.765035
699.204059	248.334266
701.501920	239.237762
703.799197	230.549650
706.095891	228.380420
708.388009	225.748252
710.683538	223.011189
712.974493	229.230769
715.266863	235.272727
717.556657	241.749650
719.845872	248.479720
722.134507	255.489510
724.420569	255.019580
726.708045	261.907692
728.992951	256.534266
731.277279	256.956643
733.559038	252.444755
735.842211	250.641958
738.124807	248.453147
740.402847	250.906294
742.682301	253.269930
744.961180	255.513287
747.239484	259.478322
749.513237	261.061538
751.788405	260.016783
754.062999	260.051748
756.335034	255.816783
758.608482	256.135664
760.879372	252.064336
763.147706	256.794406
765.417453	256.570629
767.684645	257.549650
769.951268	262.664336
772.217320	269.223776
774.480821	273.641958
776.745734	276.306294
779.010079	277.662937
781.269893	278.793007
783.531121	280.050350
785.791781	280.818182
788.049895	279.840559
790.305464	281.781818
792.564423	277.637762
794.816884	274.170629
797.074712	276.885315
799.328021	277.869930
801.578790	275.367832
803.830971	274.055944
806.080613	271.345455
808.331667	272.034965
810.578210	268.888112
812.826166	266.079720
815.071586	258.647552
817.318419	256.500699
819.564689	249.844755
821.806456	247.330070
824.051605	248.492308
826.290283	248.321678
828.532342	247.297902
830.769903	248.737063
833.008876	248.227972
835.245322	250.055944
837.483179	246.127273
839.718511	239.205594
841.951320	232.609790
844.185539	228.013986
846.417237	224.213986
848.648380	224.867133
850.878968	228.827972
853.109002	230.149650
855.338481	230.104895
857.563480	234.099301
859.791852	232.832168
862.015746	235.251748
864.241051	233.597203
866.461880	230.261538
868.686081	230.707692
870.905809	229.130070
873.126947	233.815385
875.347535	238.146853
877.565614	240.116084
879.785102	242.376224
882.000124	240.188811
884.214598	240.299301
886.428525	237.605594
888.641904	237.774825
890.854737	235.351049
893.067022	237.064336
895.276806	232.090909
897.486044	232.483916
899.694737	235.686713
901.900930	235.023776
904.108533	231.151049
906.313639	233.732867
908.518201	231.862937
910.720268	234.114685
912.923744	234.927273
915.124726	236.386014
917.325166	239.727273
919.527015	243.018182
921.722473	240.952448
923.921289	246.753846
926.115668	246.152448
928.313404	246.703497
930.506704	245.037762
932.701413	248.574825
934.893635	249.234965
937.085320	246.671329
939.276467	245.798601
941.465131	248.625175
943.653259	251.513287
945.838905	253.597203
948.027905	252.314685
950.212480	252.474126
952.396521	254.502098
954.583913	259.179021
956.763000	261.320280
958.945438	267.579021
961.127342	270.307692
963.306771	272.123077
965.483728	276.381818
967.662093	284.924476
969.841865	285.240559
972.015288	291.465734
974.192057	289.134266
976.364419	292.615385
978.538189	296.409790
980.707555	296.995804
982.880265	300.514685
985.050510	307.281119
987.220225	305.819580
989.389412	308.900699
991.554202	311.065734
993.722334	317.004196
995.886070	316.844755
998.051214	321.570629
1000.213898	324.194406
1002.376057	325.846154
1004.535759	325.777622
1006.694936	326.808392
1008.855520	328.935664
1011.013649	329.924476
1013.171255	329.518881
1015.328337	341.335664
1017.484895	343.612587
1019.637074	349.696503
1021.790660	353.074126
1023.943724	356.054545
1026.094339	360.188811
1028.246360	357.008392
1030.394009	355.969231
1032.544989	355.925874
1034.691598	356.809790
1036.837688	355.748252
1038.983260	356.654545
1041.130237	368.644755
1043.270925	368.296503
1045.414942	376.513287
1047.556520	380.904895
1049.697580	387.258741
1051.840046	389.493706
1053.976231	389.288112
1056.115743	390.351049
1058.250899	390.574825
1060.389380	388.151049
1062.523508	381.675524
1064.657122	374.163636
1066.792140	376.241958
1068.922810	368.647552
1071.054884	366.251748
1073.184528	362.763636
1075.313661	362.499301
1077.442283	358.130070
1079.570393	356.632168
1081.696077	352.148252
1083.821251	352.967832
1085.947829	346.829371
1088.070069	342.861538
1090.193714	337.882517
1092.313024	339.078322
1094.437563	330.307692
1096.555858	324.732867
1098.675556	322.029371
1100.792837	320.050350
1102.909610	315.646154
1105.025877	315.100699
1107.139729	312.499301
1109.254984	310.644755
1111.365917	303.812587
1113.480162	302.767832
1115.590086	298.292308
1117.701413	298.837762
1119.812237	292.765035
1121.918744	294.637762
1124.028560	297.853147
1126.134062	301.334266
1128.240968	302.367832
1130.341658	302.569231
1132.447560	301.114685
1134.549153	297.641958
1136.652148	296.632168
1138.754644	291.793007
1140.850932	283.012587
1142.952427	285.227972
1145.049620	284.405594
1147.146314	286.380420
1149.242511	283.363636
1151.338209	283.006993
1153.433410	280.213986
1155.526214	277.401399
1157.620420	270.272727
1159.708435	267.020979
1161.801648	263.935664
1163.888674	263.005594
1165.978998	262.355245
1168.065034	269.841958
1170.154368	271.658741
1172.237521	271.704895
1174.322077	268.186014
1176.408034	271.054545
1178.489709	274.057343
1180.572785	276.068531
1182.653476	270.759441
1184.733676	272.516084
1186.813384	274.248951
1188.892601	272.688112
1190.969435	267.983217
1193.043889	266.086713
1195.121635	260.781818
1197.195110	256.310490
1199.269987	254.174825
1201.340596	256.183217
1203.412606	258.037762
1205.482240	261.461538
1207.553275	260.327273
1209.623822	263.222378
1211.690109	259.689510
1213.757796	253.310490
1215.823110	245.455944
1217.889825	242.130070
1219.952284	238.601399
1222.018029	238.165035
1224.079519	235.703497
1226.142410	236.875524
1228.202932	237.279720
1230.262972	242.696503
1232.322528	246.110490
1234.379720	250.085315
1236.436429	249.570629
1238.490776	255.946853
1240.548403	250.695105
1242.603668	251.320280
1244.654693	248.457343
1246.707117	245.362238
1248.759061	241.872727
1250.808647	242.948252
1252.857754	238.692308
1254.906382	239.702098
1256.954532	238.851748
1259.002204	242.093706
1261.045645	237.668531
1263.092362	239.089510
1265.136725	237.853147
1267.180611	240.393007
1269.222147	240.952448
1271.261333	245.029371
1273.303792	245.257343
1275.342028	245.146853
1277.381663	240.213986
1279.420822	240.044755
1281.455764	234.406993
1283.492104	234.848951
1285.526100	225.174825
1287.561493	229.265734
1289.592673	231.867133
1291.625252	229.598601
1293.657359	229.179021
1295.687125	234.082517
1297.718288	230.130070
1299.745244	230.151049
1301.773599	227.741259
1303.797748	230.674126
1305.825163	229.843357
1307.848375	234.648951
1309.872985	233.538462
1311.895260	234.181818
1313.918933	231.076923
1315.940273	229.841958
1317.961146	224.330070
1319.981551	227.120280
1321.997763	224.409790
1324.015372	223.727273
1326.030653	222.138462
1328.049193	224.967832
1330.063543	224.293706
1332.075568	226.316084
1334.090851	223.309091
1336.101948	224.448951
1338.114441	224.962238
1340.122752	226.125874
1342.134319	222.634965
1344.139847	226.264336
1346.148630	225.815385
1348.153235	226.809790
1350.161094	226.366434
1352.168491	226.667133
1354.169857	221.034965
1356.172619	227.510490
1358.174922	227.608392
1360.176765	231.338462
1362.178148	227.267133
1364.177217	229.895105
1366.175828	226.629371
1368.173981	228.678322
1370.171676	227.689510
1372.165208	228.823776
1374.160135	228.001399
1376.154606	226.563636
1378.148620	219.846154
1380.140327	225.467133
1382.131578	222.240559
1384.120524	218.556643
1386.110865	216.264336
1388.100752	219.262937
1390.088334	221.090909
1392.075463	225.226573
1394.060290	225.282517
1396.046512	226.949650
1398.030433	227.903497
1400.013902	229.258741
1401.996919	225.730070
1403.977638	225.833566
1405.959751	220.209790
1407.939567	219.590210
1409.918933	220.994406
1411.894160	225.827972
1413.872625	227.167832
1415.848797	229.419580
1417.824519	233.622378
1419.799792	237.106294
1421.772775	237.193007
1423.745309	237.462937
1425.717395	237.089510
1427.689034	235.711888
1429.656544	229.706294
1431.629128	230.667133
1433.593906	232.900699
1435.563757	236.125874
1437.529483	236.011189
1439.496603	236.991608
1441.461439	238.648951
1443.422155	243.391608
1445.387939	240.545455
1447.347768	240.629371
1449.308991	240.089510
1451.271605	238.693706
1453.230105	235.060140
1455.188163	241.044755
1457.145779	244.909091
1459.102952	244.990210
1461.057850	243.520280
1463.014141	240.970629
1464.968157	240.643357
1466.921732	242.179021
1468.873035	236.360839
1470.825730	238.144056
1472.776154	233.530070
1474.726139	235.516084
1476.675685	231.924476
1478.622962	237.006993
1480.567971	240.695105
1482.514373	236.798601
1484.460337	237.857343
1486.405864	238.787413
1488.349125	239.953846
1490.291950	249.446154
1492.232512	251.383217
1494.174466	257.317483
1496.114157	255.815385
1498.053413	261.576224
1499.992235	263.454545
1501.928797	271.546853
1503.866750	271.020979
1505.802444	262.811189
1507.737705	262.338462
1509.670709	257.483916
1511.603281	253.834965
1513.535421	256.051748
1515.467129	248.520280
1517.396584	246.861538
1519.327429	247.911888
1521.257842	250.304895
1523.184183	255.078322
1525.111914	259.344056
1527.037396	257.362238
1528.962448	260.861538
1530.887070	263.390210
1532.811264	261.504895
1534.733211	264.819580
1536.656548	272.057343
1538.577638	270.923077
1540.496484	275.443357
1542.416720	280.478322
1544.334712	284.579021
1546.252278	295.419580
1548.167603	308.307692
1550.084317	323.152448
1551.996975	337.341259
1553.912838	353.804196
1555.826462	371.676923
1557.737847	400.331469
1559.650622	428.634965
1561.559347	459.448951
1563.469461	506.634965
1565.379152	577.640559
1567.288420	685.711888
1569.195453	847.854545
1571.100254	1058.306294
1573.006444	1285.875524
1574.910403	1487.079720
1576.813940	1647.110490
1578.717057	1728.244755
1580.617944	1723.149650
1582.520220	1631.015385
1584.420267	1462.594406
1586.321703	1247.345455
1588.219104	1015.296503
1590.116088	808.995804
1592.012653	647.608392
1593.910605	545.457343
1595.802723	473.040559
1597.698035	431.413986
1599.592928	404.746853
1601.485601	385.742657
1603.377856	367.819580
1605.267892	353.730070
1607.157512	340.958042
1609.046717	334.352448
1610.935506	325.773427
1612.822079	321.552448
1614.710039	310.303497
1616.593982	308.170629
1618.479312	295.942657
1620.364229	296.995804
1622.246932	288.553846
1624.131022	286.162238
1626.011100	272.797203
1627.892566	267.325874
1629.771820	262.054545
1631.652462	263.595804
1633.527299	262.620979
1635.407117	262.882517
1637.282930	260.201399
1639.158334	261.338462
1641.035123	254.808392
1642.906115	254.993007
1644.780290	250.234965
1646.650465	249.836364
1648.523821	245.008392
1650.394974	247.688112
1652.263925	247.025175
1654.134262	255.000000
1656.000606	251.685315
1657.868335	254.279720
1659.733865	254.012587
1661.600781	252.510490
1663.463707	250.853147
1665.328020	250.879720
1667.190136	247.012587
1669.051847	249.006993
1670.914943	250.166434
1672.775845	249.137063
1674.634554	245.885315
1676.492859	250.050350
1678.352548	242.258741
1680.206471	246.524476
1682.063567	246.544056
1683.920259	244.358042
1685.772976	244.009790
1687.628864	242.401399
1689.480778	241.450350
1691.332291	243.083916
1693.183403	243.907692
1695.034114	240.942657
1696.884425	237.552448
1698.732552	238.793007
1700.582063	234.248951
1702.425824	236.330070
1704.274536	234.492308
1706.117501	234.858741
1707.963632	236.868531
1709.805802	241.876923
1711.651137	243.532867
1713.490730	242.432168
1715.331709	244.271329
1717.174070	242.935664
1719.012474	239.588811
1720.852262	239.481119
1722.689875	239.341259
1724.527093	239.539860
1726.362137	237.457343
1728.198564	237.647552
1730.032818	239.548252
1731.866679	243.370629
1733.700145	239.987413
1735.529665	242.471329
1737.362345	240.513287
1739.191079	241.528671
1741.022972	238.581818
1742.850922	234.570629
1744.678480	233.016783
1746.505647	232.137063
1748.332422	228.661538
1750.158805	230.069930
1751.981252	233.667133
1753.806854	241.079720
1755.628520	240.990210
1757.451569	247.716084
1759.272457	245.855944
1761.092955	249.128671
1762.914835	245.353846
1764.731015	242.806993
1766.550347	238.331469
1768.365752	237.027972
1770.184308	232.044755
1771.998938	234.058741
1773.813181	234.423776
1775.627038	236.313287
1777.440508	235.609790
1779.251824	238.064336
1781.064522	235.349650
1782.876834	240.437762
1784.685227	242.836364
1786.495002	243.325874
1788.300861	238.753846
1790.109867	241.321678
1791.914959	239.974825
1793.721432	243.251748
1795.527520	240.139860
1797.329699	238.474126
1799.135021	235.114685
1800.936435	231.433566
1802.739230	224.283916
1804.538118	231.902098
1806.338387	230.531469
1808.138274	231.858741
1809.936019	230.896503
1811.733384	236.376224
1813.530368	239.941259
1815.326972	242.595804
1817.121437	240.004196
1818.917282	241.232168
1820.707471	239.559441
1822.502557	235.636364
1824.291990	234.022378
1826.084561	241.058741
1827.874996	236.276923
1829.663296	235.993007
1831.454732	234.313287
1833.240523	234.979021
1835.027692	236.085315
1836.812731	236.767832
1838.600902	236.050350
1840.385188	241.299301
1842.167345	243.594406
1843.950881	245.875524
1845.732288	249.444755
1847.515073	254.400000
1849.293979	248.538462
1851.074263	247.906294
1852.852422	243.176224
1854.631958	243.047552
1856.409370	242.517483
1858.184659	243.520280
1859.961325	241.316084
1861.735869	242.706294
1863.511790	240.090909
1865.282092	243.197203
1867.055521	241.253147
1868.826830	239.760839
1870.597768	234.362238
1872.370084	236.883916
1874.136786	233.188811
1875.906613	237.548252
1877.672577	236.542657
1879.441665	242.159441
1881.206891	239.427972
1882.971749	242.588811
1884.737983	239.303497
1886.500359	242.573427
1888.262368	237.748252
1890.024010	236.520280
1891.785284	232.616783
1893.546192	232.408392
1895.306732	226.258741
1897.065164	229.099301
1898.823229	231.437762
1900.579187	234.230769
1902.336521	233.244755
1904.093490	237.372028
1905.848352	235.058741
1907.601109	239.930070
1909.353503	242.737063
1911.107273	242.290909
1912.858939	237.525874
1914.608502	239.826573
1916.359442	236.226573
1918.110018	240.397203
1919.856756	234.195804
1921.604869	228.183217
1923.350883	224.693706
1925.098273	223.551049
1926.843564	220.846154
1928.586758	224.869930
1930.331328	228.538462
1932.073801	223.739860
1933.815914	224.205594
1935.557668	227.502098
1937.299061	227.406993
1939.038361	233.069930
1940.777302	229.110490
1942.515884	231.580420
1944.252375	230.413986
1945.988507	233.774825
1947.726015	232.285315
1949.459700	240.360839
1951.194760	237.995804
1952.927731	231.538462
1954.660346	228.486713
1956.392604	227.334266
1958.124506	228.707692
1959.854323	230.183217
1961.582054	228.819580
1963.311160	232.328671
1965.039910	228.363636
1966.766577	235.633566
1968.492890	238.478322
1970.220577	246.751049
1971.942727	245.548252
1973.667978	246.128671
1975.389422	245.907692
1977.113966	249.850350
1978.836431	250.532867
1980.555092	251.097902
1982.276852	248.914685
1983.994811	245.851748
1985.714142	237.092308
1987.429674	242.700699
1989.150026	236.530070
1990.866580	235.137063
1992.579337	231.492308
1994.295190	227.930070
1996.008971	224.040559
1997.722402	224.731469
1999.433762	222.127273
2001.146494	227.651748
2002.855435	226.311888
2004.567470	224.537063
2006.273995	222.255944
2007.983613	228.678322
2009.691163	222.544056
2011.398366	224.920280
2013.103503	226.462937
2014.808293	228.153846
2016.514456	232.471329
2018.216835	242.773427
2019.920587	245.634965
2021.622276	253.013986
2023.323619	252.489510
2025.024618	254.798601
2026.723555	249.693706
2028.423864	247.860140
2030.120397	239.183217
2031.818302	237.911888
2033.514149	238.397203
2035.213081	238.579021
2036.906527	241.061538
2038.601344	242.307692
2040.295818	232.503497
2041.986525	233.534266
2043.680314	237.393007
2045.370338	240.509091
2047.061731	230.342657
2048.751072	228.406993
2050.441784	221.753846
2052.128732	225.299301
2053.815340	222.717483
2055.503319	229.018182
2057.187538	229.327273
2058.873127	230.559441
2060.558377	226.762238
2062.241579	236.324476
2063.926151	240.601399
2065.605259	243.681119
2067.289154	235.942657
2068.967587	235.675524
2070.649098	230.453147
2072.326857	231.916084
2074.004280	229.261538
2075.683072	236.081119
2077.359821	234.500699
2079.034529	238.411189
2080.710607	235.779021
2082.384643	236.998601
2084.058345	237.412587
2085.731711	244.876923
2087.403038	240.606993
2089.074031	242.682517
2090.744690	238.987413
2092.415015	240.903497
2094.085006	237.342657
2095.752960	236.155245
2097.420582	237.979021
2099.086170	239.430769
2100.753126	233.227972
2102.418049	231.002797
2104.082640	233.786014
2105.745199	234.492308
2107.409126	233.935664
2109.071022	233.525874
2110.732587	231.826573
2112.393822	235.988811
2114.053027	232.072727
2115.711903	234.276923
2117.370448	238.016783
2119.028664	237.882517
2120.683157	233.060140
2122.340714	234.765035
2123.997941	229.488112
2125.651448	228.967832
2127.306322	228.208392
2128.957477	224.861538
2130.611695	227.910490
2132.262195	230.409790
2133.914063	232.236364
2135.560522	235.956643
2137.211735	237.100699
2138.859236	238.909091
2140.508103	239.927273
2142.154951	245.138462
2143.801474	237.109091
2145.447671	235.890909
2147.090159	228.067133
2148.735706	226.562238
2150.377546	226.281119
2152.022443	223.387413
2153.663635	220.285315
2155.304503	220.478322
2156.945048	218.013986
2158.583580	220.969231
2160.223478	223.482517
2161.859676	230.559441
2163.497240	227.781818
2165.134482	231.351049
2166.769714	233.569231
2168.404624	237.829371
2170.039213	239.257343
2171.673481	237.430769
2173.304055	230.576224
2174.937681	231.190210
2176.567614	225.855944
2178.198914	225.366434
2179.828208	221.906294
2181.457183	224.447552
2183.085838	220.276923
2184.714174	222.913287
2186.340507	222.641958
2187.966522	227.323077
2189.590536	229.015385
2191.215915	230.012587
2192.839293	225.935664
2194.464036	228.451748
2196.085098	226.050350
2197.705843	225.213986
2199.327952	220.717483
2200.948064	220.763636
2202.566180	218.503497
2204.183980	224.030769
2205.801464	225.226573
2207.418634	232.365035
2209.035487	230.646154
2210.652026	232.953846
2212.266571	234.646154
2213.879125	239.777622
2215.493042	238.304895
2217.104968	237.993007
2218.718257	236.882517
2220.329555	236.503497
2221.938865	236.155245
2223.549537	239.781818
2225.158221	237.576224
2226.766593	239.588811
2228.372978	232.690909
2229.980725	232.678322
2231.586487	235.469930
2233.191937	235.468531
2234.795402	232.486713
2236.400230	232.721678
2238.003074	229.524476
2239.603935	230.468531
2241.206159	230.798601
2242.806401	238.988811
2244.408005	237.748252
2246.005956	238.446154
2247.605270	228.510490
2249.202604	225.998601
2250.799630	223.412587
2252.398017	222.969231
2253.992757	220.788811
2255.585519	222.120280
2257.179644	220.688112
2258.775130	222.152448
2260.366971	223.813986
2261.958506	232.636364
2263.551402	229.767832
2265.138990	229.742657
2266.731273	224.300699
2268.318249	226.109091
2269.908254	228.102098
2271.492954	234.177622
2273.082348	232.855944
2274.666439	234.602797
2276.251892	230.001399
2277.835376	228.658741
2279.421885	226.630769
2281.004761	226.025175
2282.587334	224.160839
2284.169603	224.393007
2285.748242	221.932867
2287.329906	223.370629
2288.907941	221.300699
2290.488999	221.952448
2292.066430	216.369231
2293.641898	217.220979
2295.220388	214.657343
2296.795254	217.998601
2298.369819	218.176224
2299.944083	220.555245
2301.518047	222.432168
2303.091711	225.311888
2304.665075	223.959441
2306.234820	225.057343
2307.804266	219.546853
2309.376730	219.681119
2310.943920	212.981818
2312.514127	216.868531
2314.080721	216.036364
2315.648673	218.647552
2317.214671	220.152448
2318.780371	223.700699
2320.345773	230.762238
2321.909222	245.272727
2323.474030	250.637762
2325.035229	262.127273
2326.599443	262.669930
2328.158396	266.657343
2329.720362	260.074126
2331.280378	255.521678
2332.840098	242.433566
2334.397870	233.499301
2335.955346	221.455944
2337.512528	218.121678
2339.067762	217.323077
2340.622702	221.345455
2342.177349	222.581818
2343.731702	231.411189
2345.285761	230.097902
2346.839527	237.125874
2348.391348	236.106294
2349.941226	232.737063
2351.494113	227.138462
2353.041756	227.076923
2354.592407	221.253147
2356.139468	222.742657
2357.687886	218.100699
2359.236013	220.405594
2360.780551	220.367832
2362.326447	220.467133
2363.870404	219.966434
2365.415719	221.727273
2366.957449	217.166434
2368.500537	214.840559
2370.041688	212.826573
2371.582550	216.286713
2373.123123	215.737063
2374.663407	219.802797
2376.203402	220.904895
2377.739818	225.400000
2379.279236	225.239161
2380.815077	231.511888
2382.352275	233.047552
2383.885897	229.257343
2385.422519	225.567832
2386.957211	229.986014
2388.489972	230.222378
2390.022448	230.641958
2391.552995	228.176224
2393.086540	228.240559
2394.614874	224.839161
2396.144564	222.744056
2397.673969	221.177622
2399.203089	223.521678
2400.731923	215.745455
2402.255553	213.970629
2403.783818	213.795804
2405.306880	220.902098
2406.834577	225.433566
2408.355434	225.728671
2409.880923	226.934266
2411.402853	231.629371
2412.926137	231.800000
2414.447501	238.156643
2415.966945	239.278322
2417.487744	243.598601
2419.006624	239.910490
2420.525223	243.313287
2422.041903	241.731469
2423.559939	243.325874
2425.077693	240.472727
2426.591895	235.000000
2428.105818	233.609790
2429.619460	239.062937
2431.134456	241.558042
2432.645905	248.248951
2434.158707	250.081119
2435.669597	258.625175
2437.180208	262.895105
2438.688907	269.307692
2440.200592	269.779021
2441.708734	268.411189
2443.216598	263.209790
2444.724183	263.096503
2446.228229	259.167832
2447.735259	255.597203
2449.240381	247.847552
2450.745226	242.993007
2452.248164	241.689510
2453.750825	243.962238
2455.253211	244.006993
2456.753690	244.626573
2458.255524	243.855944
2459.755452	243.760839
2461.255105	242.767832
2462.754483	246.212587
2464.251958	238.197203
2465.747531	233.039161
2467.246084	231.955245
2468.741109	232.446154
2470.237486	232.598601
2471.730337	234.753846
2473.224541	234.983217
2474.718471	239.658741
2476.208877	238.179021
2477.702261	238.131469
2479.193747	237.836364
2480.683336	236.527273
2482.172653	232.317483
2483.660074	231.741259
2485.150471	231.644755
2486.637350	228.083916
2488.125580	225.727273
2489.610293	225.966434
2491.094736	223.823776
2492.580531	228.304895
2494.064434	224.404196
2495.549687	226.314685
2497.029807	228.374825
2498.512899	231.784615
2499.994102	231.395804
2501.475035	228.825175
2502.954078	228.393007
2504.432854	224.577622
2505.911361	222.282517
2507.389599	218.036364
2508.867570	216.166434
2510.342035	218.725874
2511.819470	218.955245
2513.293400	223.839161
2514.768682	224.227972
2516.243696	227.032168
2517.715209	222.325874
2519.188073	221.886713
2520.659054	222.794406
2522.131385	226.002797
2523.598602	231.082517
2525.068786	232.697902
2526.537089	238.152448
2528.005126	240.916084
2529.472899	242.511888
2530.940407	243.618182
2532.407651	235.844755
2533.871402	232.892308
2535.336503	226.020979
2536.799727	219.626573
2538.264300	216.170629
2539.725385	219.486713
2541.187819	219.230769
2542.649990	223.702098
2544.108674	225.400000
2545.571931	226.120280
2547.030091	226.864336
2548.489601	230.040559
2549.944016	228.514685
2551.403002	228.257343
2552.860116	224.187413
2554.315358	222.798601
2555.770340	219.369231
2557.223452	220.958042
2558.677913	218.829371
2560.130505	218.051748
2561.582837	215.349650
2563.033301	217.314685
2564.486722	221.994406
2565.935060	227.753846
2567.386353	227.605594
2568.835780	231.868531
2570.281736	234.251748
2571.730646	237.958042
2573.176085	237.299301
2574.622873	242.292308
2576.067797	242.304895
2577.512464	236.878322
2578.958478	233.707692
2580.401025	231.932867
2581.844920	231.745455
2583.285350	233.160839
2584.727128	225.514685
2586.167046	227.055944
2587.608311	224.499301
2589.046114	225.942657
2590.486867	222.556643
2591.922558	230.553846
2593.361197	230.302098
2594.797980	227.724476
2596.232907	226.225175
2597.670781	230.818182
2599.103598	235.062937
2600.537762	243.871329
2601.970071	242.262937
2603.403728	244.749650
2604.835530	243.688112
2606.267080	245.867133
2607.698376	243.160839
2609.127821	246.172028
2610.557013	241.205594
2611.984354	237.230769
2613.413042	237.941259
2614.841477	242.448951
2616.266466	243.579021
2617.692800	247.125874
2619.117287	246.818182
2620.543118	245.062937
2621.965507	245.394406
2623.389240	245.911888
2624.811128	239.640559
2626.232765	238.048951
2627.652558	236.583217
2629.073696	238.731469
2630.494584	247.788811
2631.912033	253.344056
2633.332422	257.903497
2634.749374	264.419580
2636.166078	267.609790
2637.582533	272.104895
2638.998740	274.562238
2640.414699	274.847552
2641.828817	271.682517
2643.242687	283.365035
2644.654718	287.165035
2646.068094	294.261538
2647.478040	303.187413
2648.890922	307.394406
2650.300375	312.439161
2651.709582	314.924476
2653.116953	314.167832
2654.527258	323.191608
2655.935727	323.875524
2657.342362	330.777622
2658.748750	337.672727
2660.153306	349.924476
2661.559205	356.995804
2662.963270	366.987413
2664.367092	378.106294
2665.770669	385.464336
2667.172415	388.408392
2668.575504	392.551049
2669.975175	399.840559
2671.376190	412.935664
2672.773789	417.172028
2674.174317	428.847552
2675.571431	430.485315
2676.969888	433.834965
2678.366517	439.945455
2679.762905	444.097902
2681.159050	438.516084
2682.553369	435.121678
2683.949031	426.334266
2685.341284	428.265734
2686.734879	429.742657
2688.126650	434.327273
2689.519764	440.942657
2690.911053	446.932867
2692.300521	446.716084
2693.689748	457.765035
2695.078735	462.777622
2696.469065	471.044755
2697.854411	470.095105
2699.242680	474.481119
2700.629129	477.900699
2702.015339	490.144056
2703.401310	507.462937
2704.783883	526.646154
2706.167798	547.725874
2707.551474	571.406993
2708.934913	593.839161
2710.314956	617.159441
2711.696341	631.349650
2713.075910	648.370629
2714.456821	649.660140
2715.835917	646.297902
2717.213199	641.815385
2718.591822	638.664336
2719.968631	629.155245
2721.345205	609.503497
2722.721543	590.928671
2724.096069	578.911888
2725.471936	556.093706
2726.844416	535.296503
2728.219813	514.234965
2729.590249	495.244755
2730.962025	472.696503
2732.333568	456.507692
2733.703302	442.439161
2735.074376	430.888112
2736.443643	412.258741
2737.812676	397.969231
2739.179903	387.310490
2740.546896	382.921678
2741.913657	369.822378
2743.280185	358.525874
2744.644909	342.500699
2746.009400	329.893706
2747.373659	315.827972
2748.737687	302.276923
2750.101482	293.022378
2751.461905	284.871329
2752.825237	270.793007
2754.183627	266.405594
2755.544927	258.822378
2756.902857	256.888112
2758.263695	247.188811
2759.622733	241.528671
2760.978403	235.086713
2762.336982	232.661538
2763.692193	231.337063
2765.047175	232.135664
2766.400360	235.549650
2767.756452	236.195804
2769.109180	230.606993
2770.461679	234.173427
2771.813951	229.137063
2773.167560	227.173427
2774.517808	224.267133
2775.866263	226.043357
2777.217622	224.924476
2778.565622	225.457343
2779.914961	225.620979
2781.262507	226.282517
2782.609827	220.297902
2783.956919	218.958042
2785.302221	211.265734
2786.647297	212.914685
2787.992147	206.355245
2789.336771	205.260140
2790.678043	205.524476
2792.020652	209.525874
2793.363037	211.064336
2794.705196	214.293706
2796.044006	213.758042
2797.385716	215.426573
2798.724077	212.113287
2800.063776	212.693706
2801.401689	206.574825
2802.737818	205.995804
2804.073724	200.930070
2805.410967	200.612587
2806.746425	197.988811
2808.081661	203.730070
2809.415115	202.109091
2810.749905	203.288112
2812.081354	201.976224
2813.415699	201.415385
2814.745146	201.475524
2816.075930	203.489510
2817.406492	200.029371
2818.735275	200.763636
2820.065395	197.625175
2821.393736	199.514685
2822.721855	197.734266
2824.048198	199.972028
2825.375876	197.415385
2826.700222	200.465734
2828.025904	199.665734
2829.349810	196.076923
2830.673496	196.801399
2831.998518	192.962238
2833.320211	190.832168
2834.641685	190.681119
2835.962939	188.253147
2837.283975	193.172028
2838.603239	190.413986
2839.923838	192.317483
2841.242665	193.622378
2842.561274	196.981818
2843.878113	197.216783
2845.194734	197.390210
2846.511138	197.749650
2847.825772	195.503497
2849.141741	195.979021
2850.454391	196.545455
2851.768375	192.995804
2853.082143	193.320280
2854.395694	190.172028
2855.707479	190.275524
2857.017497	185.204196
2858.328850	185.581818
2859.636888	187.320280
2860.946260	192.104895
2862.255417	190.061538
2863.564359	190.111888
2864.871538	185.797203
2866.176953	189.128671
2867.483703	182.988811
2868.788691	184.973427
2870.093464	184.257343
2871.396477	186.349650
2872.702370	184.395804
2874.003409	188.959441
2875.305781	191.629371
2876.606395	195.316084
2877.908341	189.481119
2879.210075	184.955245
2880.508505	180.586014
2881.808268	179.911888
2883.106274	174.448951
2884.404068	178.138462
2885.700105	175.181818
2886.997476	179.247552
2888.293092	181.741259
2889.588496	187.709091
2890.883689	187.237762
2892.175585	184.612587
2893.470356	177.709091
2894.761832	176.907692
2896.054640	174.966434
2897.347238	171.598601
2898.636541	168.258741
2899.927178	174.155245
2901.216063	175.783217
2902.506280	182.769231
2903.793206	185.327273
2905.081464	190.100699
2906.367973	188.118881
2907.654273	189.096503
2908.940365	186.187413
2910.224709	187.586014
2911.511925	183.731469
2912.794314	179.334266
2914.078035	176.318881
2915.360009	178.994406
2916.641777	175.426573
2917.921799	174.890909
2919.204691	175.307692
2920.485838	176.843357
2921.763703	176.338462
2923.044437	175.211189
2924.321890	174.980420
2925.599138	179.282517
2926.874643	179.661538
2928.153016	182.805594
2929.426575	181.946853
2930.703001	183.226573
2931.977685	179.720280
2933.250630	179.618182
2934.524906	178.479720
2935.797441	176.672727
2937.069773	173.991608
2938.338832	171.427972
2939.610756	173.602797
2940.880942	177.172028
2942.150924	176.061538
2943.420703	179.338462
2944.688746	177.208392
2945.955052	181.033566
2947.221156	178.162238
2948.488591	175.620979
2949.754290	170.737063
2951.019788	173.411189
2952.285083	170.609790
2953.547113	169.358042
2954.810473	169.065734
2956.073632	171.019580
2957.335058	168.107692
2958.597815	170.636364
2959.858839	168.665734
2961.118133	171.900699
2962.377226	169.983217
2963.636120	169.548252
2964.894812	167.886713
2966.153305	172.413986
2967.410069	168.043357
2968.666634	167.292308
2969.921470	165.523077
2971.177636	168.241958
2972.430547	169.823776
2973.684786	174.356643
2974.938827	174.390210
2976.191142	179.545455
2977.443259	179.205594
2978.693651	179.000000
2979.946898	177.240559
2981.195368	175.412587
2982.446693	169.405594
2983.694768	167.495105
2984.942646	162.598601
2986.190328	165.268531
2987.437812	165.626573
2988.683575	170.181818
2989.929141	172.023776
2991.176036	180.493706
2992.419686	181.762238
2993.664663	182.911888
2994.906398	183.121678
2996.150984	184.163636
2997.393851	180.678322
2998.633477	179.398601
2999.875953	175.734266
3001.115189	174.559441
3002.355753	169.815385
3003.594600	169.413986
3004.833253	167.993007
3006.070190	169.504895
3007.308455	167.846154
3008.545004	167.820979
3009.781360	168.520280
3011.017522	169.278322
3012.251970	170.139860
3013.486225	174.316084
3014.720287	175.784615
3015.952637	172.690909
3017.183275	170.553846
3018.416759	172.142657
3019.648532	173.323077
3020.878593	177.861538
3022.108463	178.219580
3023.336623	174.974825
3024.566110	172.627972
3025.793887	170.967832
3027.021473	172.468531
3028.250385	174.359441
3029.474555	169.314685
3030.701568	167.565035
3031.925358	168.116084
3033.150473	170.179021
3034.373883	170.320280
3035.597102	176.334266
3036.818616	173.286713
3038.042971	172.486713
3039.262591	171.046154
3040.483537	173.544056
3041.704293	169.848951
3042.923347	169.032168
3044.143725	166.559441
3045.360887	168.234965
3046.579374	168.346853
3047.796160	168.552448
3049.012757	167.671329
3050.229167	171.346853
3051.442363	168.455944
3052.658397	171.808392
3053.871219	175.709091
3055.086878	177.527273
3056.297814	175.530070
3057.510076	178.436364
3058.722150	176.579021
3059.934038	177.776224
3061.144229	177.650350
3062.354233	173.897203
3063.564051	168.679720
3064.772173	164.578322
3065.980110	157.931469
3067.186351	158.621678
3068.393917	157.264336
3069.599788	153.930769
3070.805474	152.478322
3072.010976	157.698601
3073.214784	158.293706
3074.419916	164.908392
3075.623355	163.212587
3076.825102	163.369930
3078.026666	164.921678
3079.228046	169.538462
3080.429242	165.394406
3081.628748	161.857343
3082.828071	159.279720
3084.028717	161.700699
3085.227673	159.440559
3086.423434	161.544056
3087.622025	160.302098
3088.817422	158.651748
3090.014143	153.247552
3091.207671	153.002797
3092.404027	155.682517
3093.598696	159.281119
3094.790175	155.539860
3095.985986	154.588811
3097.177102	156.931469
3098.369542	158.413986
3099.558793	149.806993
3100.750871	150.362238
3101.941265	153.643357
3103.128473	154.353846
3104.317003	153.479720
3105.506856	153.979021
3106.693524	153.854545
3107.880013	156.482517
3109.066323	154.944056
3110.253954	155.581818
3111.438403	156.704895
3112.621173	155.212587
3113.806765	151.717483
3114.990678	155.451748
3116.172911	156.064336
3117.354967	157.643357
3118.536844	155.111888
3119.718543	154.137063
3120.898565	149.695105
3122.076910	154.282517
3123.258075	156.170629
3124.436065	159.590210
3125.613878	160.644755
3126.791514	165.937063
3127.967475	163.285315
3129.143260	161.464336
3130.320365	154.874126
3131.495797	159.169231
3132.669555	153.190210
3133.841640	153.615385
3135.015046	148.841958
3136.188277	153.587413
3137.359836	154.829371
3138.532715	156.542657
3139.702427	159.931469
3140.873460	162.934266
3142.042822	156.451748
3143.210515	157.338462
3144.381023	153.841958
3145.546872	156.623776
3146.717031	151.774825
3147.882532	155.587413
3149.047860	154.679720
3150.213014	160.619580
3151.377995	164.583217
3152.544295	166.387413
3153.705942	164.265734
3154.868910	160.763636
3156.031705	156.198601
3157.194326	157.313287
3158.355283	151.558042
3159.516068	148.464336
3160.676680	142.408392
3161.835628	145.281119
3162.994405	147.689510
3164.153009	150.223776
3165.311442	152.419580
3166.469703	154.949650
3167.626303	154.479720
3168.781241	159.745455
3169.937498	159.735664
3171.092094	161.979021
3172.246520	156.559441
3173.399285	158.858741
3174.551881	153.090909
3175.704307	161.362238
3176.856562	162.234965
3178.008648	158.907692
3179.157587	156.188811
3180.309333	155.853147
3181.459422	150.924476
3182.607853	149.598601
3183.756116	147.924476
3184.904210	148.758042
3186.052135	146.085315
3187.198404	150.570629
3188.344505	148.430769
3189.488952	152.805594
3190.633230	150.422378
3191.777341	151.553846
3192.922770	147.220979
3194.065060	148.883916
3195.207182	143.538462
3196.349138	142.623776
3197.490926	144.718881
3198.632547	147.483916
3199.771033	147.159441
3200.910836	149.574825
3202.051956	148.394406
3203.189943	151.016783
3204.326279	151.509091
3205.462451	156.745455
3206.599939	151.404196
3207.735779	149.420979
3208.872936	146.605594
3210.005480	149.416783
3211.142305	150.867133
3212.274520	152.682517
3213.408051	150.562238
3214.541417	152.090909
3215.671657	148.598601
3216.804694	147.201399
3217.934605	142.762238
3219.065832	139.793007
3220.193934	132.104895
3221.324834	131.500699
3222.454089	133.504895
3223.581701	137.724476
3224.706190	139.847552
3225.834955	145.225175
3226.960598	146.737063
3228.086078	152.690909
3229.209917	152.904895
3230.336551	150.233566
3231.458587	147.811189
3232.581939	149.363636
3233.705128	153.079720
3234.828156	159.735664
3235.949544	162.243357
3237.070771	171.064336
3238.190359	177.120280
3239.309786	184.790210
3240.427576	187.051748
3241.548157	191.262937
3242.665625	191.412587
3243.782932	191.076923
3244.900079	189.840559
3246.015589	184.973427
3247.132415	182.324476
3248.246130	176.304895
3249.362636	167.513287
3250.477506	164.967832
3251.589268	158.447552
3252.700871	156.843357
3253.813789	152.653147
3254.926547	152.397203
3256.036199	153.338462
3257.147166	156.951049
3258.257974	156.006993
3259.367150	151.921678
3260.474695	149.688112
3261.583555	144.289510
3262.692256	139.144056
3263.797855	138.885315
3264.904769	137.229371
3266.010053	137.837762
3267.116651	133.559441
3268.220149	131.395804
3269.324961	128.012587
3270.429616	129.865734
3271.531173	132.839161
3272.632573	135.627972
3273.735287	139.337063
3274.837845	144.411189
3275.937306	146.897902
3277.039551	147.847552
3278.138700	151.679720
3279.236224	152.551049
3280.333594	151.303497
3281.433745	153.232168
3282.530804	144.700699
3283.627707	144.292308
3284.724455	141.855944
3285.816644	142.956643
3286.913083	144.539860
3288.007899	140.184615
3289.102560	134.794406
3290.195600	135.191608
3291.288486	135.932867
3292.379751	137.606993
3293.472329	135.469930
3294.563287	137.984615
3295.652625	130.517483
3296.741810	130.930070
3297.832307	129.183217
3298.919721	131.104895
3300.006981	131.552448
3301.095554	129.654545
3302.183974	130.941259
3303.267848	139.420979
3304.355963	139.271329
3305.440996	145.026573
3306.524414	145.206993
3307.609144	147.822378
3308.692258	143.804196
3309.776684	143.881119
3310.858033	141.013986
3311.940693	139.864336
3313.021738	133.641958
3314.102633	131.283916
3315.181915	130.405594
3316.261046	130.927273
3317.341489	129.797203
3318.418857	135.453147
3319.497537	136.955245
3320.574605	139.885315
3321.651523	140.026573
3322.726831	145.429371
3323.801989	143.934266
3324.878458	144.658741
3325.951857	139.528671
3327.025106	143.613986
3328.099667	140.346853
3329.172619	136.110490
3330.243962	136.972028
3331.316616	136.721678
3332.386203	136.483916
3333.457101	139.155245
3334.526393	134.139860
3335.596994	134.390210
3336.665989	131.204196
3337.733379	133.167832
3338.799163	132.625175
3339.869173	135.802797
3340.936120	131.148252
3342.000005	129.167832
3343.066657	129.040559
3344.131706	129.634965
3345.195151	128.875524
3346.258450	130.423776
3347.321602	126.306294
3348.384608	128.844755
3349.447468	126.580420
3350.508725	131.612587
3351.566926	130.462937
3352.629348	133.504895
3353.688714	132.448951
3354.747934	131.493706
3355.808463	130.720280
3356.864484	132.289510
3357.923268	128.117483
3358.977545	128.188811
3360.034586	127.707692
3361.090028	129.643357
3362.146780	127.323077
3363.201933	133.969231
3364.255489	133.837762
3365.307448	137.619580
3366.362170	135.486713
3367.413842	136.727273
3368.465370	134.932867
3369.518208	136.639161
3370.567998	132.346853
3371.619097	134.948252
3372.667149	136.688112
3373.717962	138.808392
3374.765729	136.437762
3375.813354	135.204196
3376.860837	132.352448
3377.906727	131.304895
3378.953925	127.352448
3379.998080	131.994406
3381.044995	127.239161
3382.090317	127.448951
3383.132598	124.783217
3384.174738	128.653147
3385.218187	127.646154
3386.261494	128.393007
3387.303211	124.946853
3388.344788	124.984615
3389.386223	126.930070
3390.426070	129.278322
3391.464328	133.327273
3392.503894	140.455944
3393.543320	136.783217
3394.581158	141.509091
3395.617409	141.391608
3396.653520	140.704895
3397.690939	135.805594
3398.725325	133.724476
3399.761019	130.741259
3400.796573	130.662937
3401.829095	126.344056
3402.864371	126.959441
3403.896617	126.843357
3404.928723	129.201399
3405.959247	125.938462
3406.991077	132.597203
3408.022769	134.748252
3409.051433	132.535664
3410.079960	130.019580
3411.109793	131.041958
3412.139489	130.165035
3413.166159	131.509091
3414.194135	127.634965
3415.219087	127.489510
3416.246790	127.146853
3417.271468	128.867133
3418.297453	126.818182
3419.321859	134.223776
3420.346128	135.832168
3421.368818	134.458741
3422.391372	129.885315
3423.415232	127.581818
3424.436072	121.050350
3425.456776	114.221578
3426.478786	110.372677
3427.497778	111.367632
3428.516635	119.070430
3429.536798	135.345055
3430.553944	162.055495
