-118.702670	-21.000000
-116.033069	16.200000
-113.366404	-15.600000
-110.700491	34.400000
-108.037511	-21.600000
-105.373100	25.800000
-102.711620	-8.800000
-100.048711	15.200000
-97.390908	-22.600000
-94.731676	7.200000
-92.073192	9.200000
-89.417633	2.400000
-86.760644	-17.800000
-84.108754	35.800000
-81.455434	18.600000
-78.805033	11.000000
-76.153204	-19.600000
-73.506465	22.000000
-70.858296	2.000000
-68.210870	-10.600000
-65.566359	-20.600000
-62.920418	34.400000
-60.279559	6.000000
-57.637271	8.200000
-54.997892	4.000000
-52.357084	37.600000
-49.717015	25.800000
-47.082020	30.400000
-44.445595	-24.800000
-41.812073	21.400000
-39.177123	0.400000
-36.547239	47.000000
-33.913761	14.400000
-31.285346	50.800000
-28.657665	9.400000
-26.028555	48.800000
-23.404503	68.600000
-20.776860	80.600000
-18.154272	99.000000
-15.532414	184.400000
-12.911287	278.200000
-10.290891	710.800000
-7.673382	2326.600000
-5.054445	9799.000000
-2.438394	23154.600000
0.176930	38846.600000
2.791525	23708.400000
5.403239	4067.000000
8.016381	337.200000
10.624489	200.200000
13.236178	104.400000
15.842837	117.000000
18.450925	65.600000
21.058287	59.600000
23.660625	36.200000
26.266542	53.000000
28.867436	32.400000
31.469758	47.000000
34.067062	2.600000
36.667943	31.800000
39.263808	10.200000
41.861101	16.000000
44.457675	1.600000
47.049240	18.400000
49.642234	15.400000
52.232366	38.200000
54.823925	1.400000
57.412626	34.200000
60.002753	-1.000000
62.587881	24.200000
65.174437	-13.800000
67.760278	16.800000
70.343266	27.000000
72.927681	25.600000
75.504967	9.400000
78.085818	25.800000
80.663822	-2.800000
83.241114	7.200000
85.819834	0.800000
88.393571	4.600000
90.968735	-16.800000
93.541056	6.400000
96.112670	9.600000
98.681443	-2.800000
101.251643	2.600000
103.819004	3.200000
106.387792	7.800000
108.953743	-6.400000
111.516859	1.800000
114.083531	14.200000
116.640981	1.600000
119.204117	38.600000
121.762294	26.400000
124.324025	68.400000
126.880799	55.600000
129.438999	75.200000
131.992247	128.600000
134.544797	183.000000
137.100897	224.000000
139.652049	338.800000
142.202504	341.400000
144.752261	417.600000
147.299199	413.600000
149.845442	435.400000
152.393110	439.400000
154.940082	465.800000
157.482118	453.000000
160.023462	451.400000
162.564112	419.000000
165.106187	451.200000
167.645452	439.800000
170.181907	467.000000
172.717672	398.000000
175.254862	417.400000
177.791361	408.200000
180.325054	469.400000
182.855943	408.200000
185.386144	435.000000
187.917771	427.800000
190.446596	433.600000
192.972622	433.600000
195.497962	419.200000
198.024727	418.400000
200.548696	439.000000
203.071979	400.800000
205.594578	428.600000
208.114384	399.400000
210.633507	444.800000
213.151947	450.400000
215.671812	435.000000
218.184674	440.000000
220.701068	465.600000
223.216781	405.200000
225.727603	444.200000
228.239850	426.000000
230.749314	439.000000
233.258100	437.200000
235.766208	464.400000
238.275740	470.800000
240.780391	463.000000
243.284366	474.400000
245.789765	474.800000
248.290289	467.800000
250.794336	472.000000
253.291413	449.200000
255.792012	448.800000
258.289840	465.200000
260.786995	511.600000
263.283478	468.000000
265.775097	497.800000
268.270236	498.200000
270.762608	501.000000
273.254310	469.600000
275.743249	519.000000
278.233611	465.400000
280.721212	512.800000
283.206053	500.400000
285.694409	490.000000
288.175825	501.400000
290.660755	504.600000
293.140839	524.200000
295.624436	517.600000
298.103191	477.200000
300.583368	550.600000
303.060794	506.000000
305.537556	513.000000
308.013654	499.200000
310.487004	585.200000
312.959693	551.600000
315.431720	607.800000
317.903085	668.800000
320.371707	718.000000
322.839669	667.000000
325.309054	705.200000
327.773616	611.800000
330.241682	571.000000
332.704927	546.800000
335.167516	558.600000
337.629448	520.200000
340.090723	553.200000
342.549263	549.800000
345.009226	586.400000
347.466457	544.600000
349.923033	573.600000
352.378955	560.600000
354.832147	533.000000
357.286762	558.800000
359.736575	593.600000
362.189884	568.200000
364.638394	566.200000
367.086254	566.600000
369.535536	572.800000
371.980023	547.600000
374.425933	577.400000
376.871194	536.400000
379.313736	565.000000
381.755630	523.000000
384.196876	556.200000
386.635408	568.800000
389.075360	557.000000
391.512599	567.600000
393.947127	567.800000
396.385141	559.600000
398.818380	548.000000
401.253039	572.600000
403.682926	549.200000
406.116298	535.400000
408.544900	557.000000
410.972860	542.400000
413.402241	546.400000
415.826858	542.000000
418.252895	580.000000
420.678293	555.000000
423.103050	587.600000
425.523048	556.600000
427.944468	568.200000
430.363192	557.600000
432.783335	556.000000
435.200784	561.200000
437.619654	560.400000
440.035829	558.600000
442.447258	568.600000
444.862163	554.200000
447.274378	581.600000
449.685960	542.200000
452.096907	569.400000
454.505167	563.200000
456.912796	569.000000
459.319792	547.800000
461.726157	540.600000
464.129839	528.800000
466.532891	565.600000
468.935313	519.000000
471.337105	551.400000
473.736219	519.000000
476.136753	573.800000
478.536658	523.000000
480.931841	541.800000
483.330489	502.000000
485.724418	532.400000
488.117721	515.000000
490.510399	567.800000
492.902451	503.000000
495.295921	507.200000
497.684679	462.600000
500.070771	478.000000
502.458283	442.400000
504.845172	423.800000
507.229396	376.800000
509.615040	390.600000
511.998022	373.600000
514.378342	406.800000
516.760083	346.600000
519.139164	388.400000
521.519663	352.000000
523.897506	349.200000
526.272692	365.000000
528.647261	347.000000
531.023249	320.000000
533.396584	376.600000
535.771336	329.400000
538.141402	356.000000
540.510854	298.400000
542.881723	308.000000
545.247911	338.200000
547.615518	336.000000
549.980479	285.600000
552.344828	336.400000
554.708563	314.800000
557.073716	298.600000
559.434197	280.800000
561.796095	313.200000
564.155354	291.800000
566.511974	303.400000
568.872040	270.400000
571.225414	317.000000
573.582233	287.200000
575.936417	322.000000
578.289992	265.000000
580.642960	330.000000
582.993295	292.800000
585.345048	315.400000
587.690124	274.800000
590.040663	312.600000
592.384530	278.600000
594.733858	287.200000
597.078537	278.600000
599.420592	335.800000
601.764064	266.800000
604.104913	309.200000
606.445159	298.800000
608.782785	307.200000
611.123846	274.400000
613.460270	299.800000
615.798110	274.800000
618.133333	282.800000
620.465939	240.000000
622.799963	288.200000
625.131372	259.000000
627.462183	264.600000
629.792396	281.200000
632.122012	271.400000
634.447004	251.600000
636.777438	268.200000
639.103251	244.400000
641.426456	234.400000
643.751078	243.600000
646.073094	270.600000
648.394516	242.800000
650.713335	271.000000
653.033571	234.800000
655.353212	260.400000
657.670254	269.000000
659.986703	264.200000
662.300554	240.000000
664.615821	253.200000
666.928491	227.200000
669.242576	276.600000
671.552061	225.400000
673.862962	267.600000
676.171270	251.400000
678.478989	246.800000
680.788124	217.800000
683.092666	261.000000
685.396622	242.200000
687.699991	258.800000
690.004776	258.200000
692.304973	257.400000
694.606586	240.200000
696.907613	246.800000
699.204059	226.000000
701.501920	251.200000
703.799197	212.200000
706.095891	232.600000
708.388009	201.600000
710.683538	261.200000
712.974493	221.600000
715.266863	263.600000
717.556657	235.800000
719.845872	247.600000
722.134507	216.600000
724.420569	239.000000
726.708045	199.600000
728.992951	256.000000
731.277279	237.800000
733.559038	279.400000
735.842211	248.200000
738.124807	265.600000
740.402847	217.200000
742.682301	248.200000
744.961180	235.800000
747.239484	259.200000
749.513237	251.400000
751.788405	276.000000
754.062999	203.800000
756.335034	261.200000
758.608482	248.800000
760.879372	256.000000
763.147706	261.000000
765.417453	261.400000
767.684645	239.000000
769.951268	266.200000
772.217320	254.600000
774.480821	257.400000
776.745734	234.400000
779.010079	280.800000
781.269893	263.600000
783.531121	280.400000
785.791781	246.600000
788.049895	274.000000
790.305464	267.000000
792.564423	282.200000
794.816884	242.600000
797.074712	238.200000
799.328021	279.200000
801.578790	276.400000
803.830971	268.200000
806.080613	266.800000
808.331667	258.000000
810.578210	271.600000
812.826166	273.000000
815.071586	243.200000
817.318419	250.600000
819.564689	259.000000
821.806456	228.000000
824.051605	231.400000
826.290283	232.200000
828.532342	260.400000
830.769903	224.600000
833.008876	225.000000
835.245322	214.200000
837.483179	248.200000
839.718511	242.200000
841.951320	240.200000
844.185539	219.000000
846.417237	223.000000
848.648380	217.800000
850.878968	219.600000
853.109002	220.400000
855.338481	239.800000
857.563480	221.600000
859.791852	246.000000
862.015746	216.200000
864.241051	245.000000
866.461880	193.800000
868.686081	233.400000
870.905809	212.000000
873.126947	226.200000
875.347535	222.400000
877.565614	250.600000
879.785102	249.600000
882.000124	248.600000
884.214598	235.400000
886.428525	236.600000
888.641904	237.200000
890.854737	258.200000
893.067022	205.600000
895.276806	247.800000
897.486044	234.400000
899.694737	255.200000
901.900930	227.000000
904.108533	235.000000
906.313639	188.000000
908.518201	238.200000
910.720268	230.400000
912.923744	233.200000
915.124726	213.400000
917.325166	231.400000
919.527015	232.200000
921.722473	223.400000
923.921289	220.200000
926.115668	257.200000
928.313404	217.400000
930.506704	224.000000
932.701413	226.800000
934.893635	250.400000
937.085320	222.600000
939.276467	271.800000
941.465131	226.200000
943.653259	239.200000
945.838905	222.200000
948.027905	248.200000
950.212480	262.800000
952.396521	260.000000
954.583913	260.800000
956.763000	255.400000
958.945438	259.000000
961.127342	261.800000
963.306771	267.200000
965.483728	305.600000
967.662093	283.400000
969.841865	315.000000
972.015288	226.400000
974.192057	271.200000
976.364419	274.400000
978.538189	280.400000
980.707555	270.400000
982.880265	316.400000
985.050510	265.800000
987.220225	317.200000
989.389412	282.600000
991.554202	337.200000
993.722334	292.000000
995.886070	321.000000
998.051214	292.800000
1000.213898	322.000000
1002.376057	312.600000
1004.535759	353.600000
1006.694936	331.400000
1008.855520	328.400000
1011.013649	303.000000
1013.171255	350.400000
1015.328337	298.800000
1017.484895	331.200000
1019.637074	314.000000
1021.790660	353.200000
1023.943724	357.800000
1026.094339	361.400000
1028.246360	342.400000
1030.394009	360.600000
1032.544989	341.800000
1034.691598	337.000000
1036.837688	359.000000
1038.983260	352.000000
1041.130237	362.000000
1043.270925	369.400000
1045.414942	353.200000
1047.556520	380.200000
1049.697580	359.600000
1051.840046	412.600000
1053.976231	317.000000
1056.115743	387.200000
1058.250899	369.800000
1060.389380	366.000000
1062.523508	402.000000
1064.657122	388.400000
1066.792140	372.400000
1068.922810	383.000000
1071.054884	345.400000
1073.184528	376.000000
1075.313661	356.800000
1077.442283	361.400000
1079.570393	361.600000
1081.696077	344.800000
1083.821251	325.600000
1085.947829	362.000000
1088.070069	335.000000
1090.193714	349.400000
1092.313024	304.000000
1094.437563	344.400000
1096.555858	325.800000
1098.675556	350.000000
1100.792837	302.000000
1102.909610	329.800000
1105.025877	286.400000
1107.139729	327.600000
1109.254984	302.000000
1111.365917	326.800000
1113.480162	289.200000
1115.590086	298.800000
1117.701413	274.600000
1119.812237	283.000000
1121.918744	283.800000
1124.028560	307.400000
1126.134062	286.000000
1128.240968	295.000000
1130.341658	287.000000
1132.447560	305.400000
1134.549153	247.000000
1136.652148	283.600000
1138.754644	296.400000
1140.850932	304.400000
1142.952427	273.600000
1145.049620	282.200000
1147.146314	264.800000
1149.242511	283.800000
1151.338209	258.800000
1153.433410	285.400000
1155.526214	260.200000
1157.620420	279.800000
1159.708435	262.800000
1161.801648	264.200000
1163.888674	235.400000
1165.978998	260.800000
1168.065034	245.400000
1170.154368	265.800000
1172.237521	248.600000
1174.322077	275.400000
1176.408034	272.000000
1178.489709	250.800000
1180.572785	248.400000
1182.653476	282.400000
1184.733676	245.800000
1186.813384	284.400000
1188.892601	259.200000
1190.969435	264.000000
1193.043889	252.000000
1195.121635	274.800000
1197.195110	242.600000
1199.269987	266.400000
1201.340596	246.400000
1203.412606	248.800000
1205.482240	250.200000
1207.553275	273.400000
1209.623822	252.800000
1211.690109	242.600000
1213.757796	246.400000
1215.823110	268.200000
1217.889825	238.200000
1219.952284	295.800000
1222.018029	231.000000
1224.079519	231.600000
1226.142410	214.200000
1228.202932	243.000000
1230.262972	222.200000
1232.322528	236.200000
1234.379720	207.200000
1236.436429	242.400000
1238.490776	222.800000
1240.548403	258.200000
1242.603668	239.800000
1244.654693	266.600000
1246.707117	226.000000
1248.759061	260.800000
1250.808647	213.800000
1252.857754	264.400000
1254.906382	214.000000
1256.954532	234.600000
1259.002204	217.000000
1261.045645	238.800000
1263.092362	216.000000
1265.136725	234.400000
1267.180611	230.800000
1269.222147	224.000000
1271.261333	187.200000
1273.303792	272.200000
1275.342028	233.000000
1277.381663	230.600000
1279.420822	179.000000
1281.455764	251.200000
1283.492104	190.600000
1285.526100	232.800000
1287.561493	213.000000
1289.592673	209.600000
1291.625252	196.200000
1293.657359	226.400000
1295.687125	195.600000
1297.718288	254.600000
1299.745244	205.600000
1301.773599	228.200000
1303.797748	236.200000
1305.825163	229.000000
1307.848375	204.200000
1309.872985	238.400000
1311.895260	186.000000
1313.918933	233.400000
1315.940273	209.600000
1317.961146	241.600000
1319.981551	197.800000
1321.997763	250.400000
1324.015372	222.000000
1326.030653	226.800000
1328.049193	219.600000
1330.063543	230.000000
1332.075568	225.000000
1334.090851	236.400000
1336.101948	232.200000
1338.114441	206.000000
1340.122752	225.600000
1342.134319	231.400000
1344.139847	208.000000
1346.148630	250.000000
1348.153235	204.800000
1350.161094	222.400000
1352.168491	210.400000
1354.169857	191.600000
1356.172619	213.400000
1358.174922	254.600000
1360.176765	208.800000
1362.178148	217.000000
1364.177217	216.400000
1366.175828	255.400000
1368.173981	218.400000
1370.171676	252.400000
1372.165208	210.800000
1374.160135	239.000000
1376.154606	201.000000
1378.148620	238.200000
1380.140327	193.800000
1382.131578	247.200000
1384.120524	241.600000
1386.110865	246.200000
1388.100752	200.400000
1390.088334	241.400000
1392.075463	209.400000
1394.060290	236.600000
1396.046512	219.600000
1398.030433	223.800000
1400.013902	211.000000
1401.996919	208.000000
1403.977638	205.200000
1405.959751	245.000000
1407.939567	205.800000
1409.918933	239.600000
1411.894160	240.600000
1413.872625	240.600000
1415.848797	212.600000
1417.824519	259.200000
1419.799792	235.800000
1421.772775	256.000000
1423.745309	215.600000
1425.717395	257.200000
1427.689034	240.200000
1429.656544	219.000000
1431.629128	221.200000
1433.593906	218.800000
1435.563757	205.200000
1437.529483	224.800000
1439.496603	211.800000
1441.461439	270.600000
1443.422155	216.400000
1445.387939	215.000000
1447.347768	226.200000
1449.308991	259.000000
1451.271605	243.800000
1453.230105	248.600000
1455.188163	215.600000
1457.145779	262.200000
1459.102952	210.600000
1461.057850	268.000000
1463.014141	249.200000
1464.968157	268.400000
1466.921732	217.200000
1468.873035	230.000000
1470.825730	242.200000
1472.776154	225.600000
1474.726139	227.600000
1476.675685	251.200000
1478.622962	231.400000
1480.567971	229.800000
1482.514373	205.000000
1484.460337	248.400000
1486.405864	191.600000
1488.349125	274.600000
1490.291950	236.400000
1492.232512	227.200000
1494.174466	241.200000
1496.114157	255.800000
1498.053413	243.800000
1499.992235	240.600000
1501.928797	248.400000
1503.866750	265.800000
1505.802444	219.000000
1507.737705	257.600000
1509.670709	234.000000
1511.603281	255.800000
1513.535421	197.800000
1515.467129	241.000000
1517.396584	252.000000
1519.327429	256.800000
1521.257842	224.200000
1523.184183	241.600000
1525.111914	241.000000
1527.037396	268.000000
1528.962448	257.800000
1530.887070	278.600000
1532.811264	250.400000
1534.733211	259.800000
1536.656548	243.000000
1538.577638	274.800000
1540.496484	269.000000
1542.416720	278.000000
1544.334712	321.800000
1546.252278	316.200000
1548.167603	291.200000
1550.084317	365.400000
1551.996975	331.000000
1553.912838	381.000000
1555.826462	368.600000
1557.737847	400.800000
1559.650622	400.600000
1561.559347	439.600000
1563.469461	497.600000
1565.379152	586.600000
1567.288420	685.000000
1569.195453	776.400000
1571.100254	902.600000
1573.006444	1165.400000
1574.910403	1436.000000
1576.813940	1680.600000
1578.717057	1866.400000
1580.617944	1921.000000
1582.520220	1701.200000
1584.420267	1383.200000
1586.321703	1126.200000
1588.219104	911.000000
1590.116088	748.800000
1592.012653	623.000000
1593.910605	522.800000
1595.802723	485.200000
1597.698035	440.000000
1599.592928	395.600000
1601.485601	366.400000
1603.377856	377.600000
1605.267892	314.400000
1607.157512	379.400000
1609.046717	318.200000
1610.935506	330.200000
1612.822079	277.200000
1614.710039	301.400000
1616.593982	288.800000
1618.479312	296.200000
1620.364229	260.200000
1622.246932	268.400000
1624.131022	277.400000
1626.011100	268.600000
1627.892566	248.000000
1629.771820	273.200000
1631.652462	237.200000
1633.527299	269.800000
1635.407117	201.000000
1637.282930	272.200000
1639.158334	245.800000
1641.035123	286.600000
1642.906115	230.000000
1644.780290	256.200000
1646.650465	219.600000
1648.523821	252.400000
1650.394974	240.200000
1652.263925	248.000000
1654.134262	242.200000
1656.000606	271.400000
1657.868335	246.600000
1659.733865	278.800000
1661.600781	225.600000
1663.463707	235.400000
1665.328020	209.200000
1667.190136	268.600000
1669.051847	242.000000
1670.914943	244.400000
1672.775845	229.800000
1674.634554	242.400000
1676.492859	222.600000
1678.352548	249.600000
1680.206471	201.200000
1682.063567	224.200000
1683.920259	240.200000
1685.772976	244.600000
1687.628864	210.200000
1689.480778	239.000000
1691.332291	225.600000
1693.183403	231.400000
1695.034114	217.000000
1696.884425	258.600000
1698.732552	215.000000
1700.582063	223.600000
1702.425824	245.800000
1704.274536	233.800000
1706.117501	222.400000
1707.963632	258.400000
1709.805802	217.800000
1711.651137	239.800000
1713.490730	235.200000
1715.331709	243.800000
1717.174070	227.400000
1719.012474	257.200000
1720.852262	200.800000
1722.689875	254.200000
1724.527093	221.400000
1726.362137	247.200000
1728.198564	218.800000
1730.032818	256.600000
1731.866679	222.200000
1733.700145	238.200000
1735.529665	230.800000
1737.362345	240.400000
1739.191079	248.000000
1741.022972	226.400000
1742.850922	227.600000
1744.678480	258.600000
1746.505647	214.800000
1748.332422	263.200000
1750.158805	213.600000
1751.981252	246.400000
1753.806854	266.000000
1755.628520	237.400000
1757.451569	208.400000
1759.272457	253.800000
1761.092955	243.800000
1762.914835	227.800000
1764.731015	226.600000
1766.550347	251.000000
1768.365752	193.800000
1770.184308	235.800000
1771.998938	217.800000
1773.813181	232.800000
1775.627038	211.400000
1777.440508	226.800000
1779.251824	226.200000
1781.064522	243.400000
1782.876834	216.000000
1784.685227	227.600000
1786.495002	232.800000
1788.300861	231.800000
1790.109867	190.600000
1791.914959	249.400000
1793.721432	236.000000
1795.527520	254.000000
1797.329699	218.400000
1799.135021	266.000000
1800.936435	229.600000
1802.739230	240.400000
1804.538118	216.000000
1806.338387	250.200000
1808.138274	192.000000
1809.936019	235.800000
1811.733384	214.400000
1813.530368	254.400000
1815.326972	202.800000
1817.121437	258.000000
1818.917282	216.600000
1820.707471	262.200000
1822.502557	199.600000
1824.291990	220.400000
1826.084561	223.800000
1827.874996	229.200000
1829.663296	194.200000
1831.454732	253.600000
1833.240523	218.600000
1835.027692	224.400000
1836.812731	206.200000
1838.600902	238.600000
1840.385188	220.800000
1842.167345	220.200000
1843.950881	217.600000
1845.732288	240.400000
1847.515073	232.400000
1849.293979	242.800000
1851.074263	216.200000
1852.852422	263.800000
1854.631958	232.600000
1856.409370	258.600000
1858.184659	233.800000
1859.961325	238.400000
1861.735869	235.200000
1863.511790	249.200000
1865.282092	216.800000
1867.055521	253.400000
1868.826830	206.600000
1870.597768	236.000000
1872.370084	234.600000
1874.136786	239.200000
1875.906613	217.800000
1877.672577	237.400000
1879.441665	227.200000
1881.206891	246.600000
1882.971749	206.200000
1884.737983	233.000000
1886.500359	205.400000
1888.262368	231.400000
1890.024010	221.400000
1891.785284	245.600000
1893.546192	183.800000
1895.306732	226.200000
1897.065164	217.600000
1898.823229	245.600000
1900.579187	210.600000
1902.336521	253.200000
1904.093490	218.000000
1905.848352	239.600000
1907.601109	242.200000
1909.353503	246.600000
1911.107273	222.400000
1912.858939	243.600000
1914.608502	214.200000
1916.359442	244.200000
1918.110018	205.200000
1919.856756	235.400000
1921.604869	220.400000
1923.350883	212.400000
1925.098273	190.000000
1926.843564	216.200000
1928.586758	200.000000
1930.331328	214.400000
1932.073801	210.800000
1933.815914	252.200000
1935.557668	235.200000
1937.299061	209.600000
1939.038361	201.200000
1940.777302	233.800000
1942.515884	226.400000
1944.252375	224.000000
1945.988507	234.800000
1947.726015	245.600000
1949.459700	210.800000
1951.194760	236.800000
1952.927731	217.200000
1954.660346	239.200000
1956.392604	237.200000
1958.124506	246.200000
1959.854323	207.000000
1961.582054	243.800000
1963.311160	244.200000
1965.039910	230.000000
1966.766577	219.600000
1968.492890	243.800000
1970.220577	213.000000
1971.942727	247.200000
1973.667978	222.800000
1975.389422	272.200000
1977.113966	229.000000
1978.836431	225.200000
1980.555092	206.800000
1982.276852	251.000000
1983.994811	212.800000
1985.714142	223.800000
1987.429674	209.200000
1989.150026	234.400000
1990.866580	193.200000
1992.579337	244.600000
1994.295190	223.200000
1996.008971	246.800000
1997.722402	205.400000
1999.433762	248.000000
2001.146494	182.000000
2002.855435	246.000000
2004.567470	226.200000
2006.273995	240.600000
2007.983613	223.400000
2009.691163	247.400000
2011.398366	199.000000
2013.103503	249.000000
2014.808293	208.600000
2016.514456	223.800000
2018.216835	212.200000
2019.920587	239.400000
2021.622276	243.200000
2023.323619	245.200000
2025.024618	231.800000
2026.723555	238.600000
2028.423864	212.600000
2030.120397	230.800000
2031.818302	222.800000
2033.514149	251.400000
2035.213081	245.200000
2036.906527	251.400000
2038.601344	224.400000
2040.295818	246.400000
2041.986525	233.400000
2043.680314	240.800000
2045.370338	199.000000
2047.061731	237.800000
2048.751072	206.400000
2050.441784	265.400000
2052.128732	218.400000
2053.815340	204.600000
2055.503319	201.600000
2057.187538	254.200000
2058.873127	202.200000
2060.558377	239.600000
2062.241579	187.600000
2063.926151	253.200000
2065.605259	177.000000
2067.289154	232.400000
2068.967587	233.000000
2070.649098	245.400000
2072.326857	209.200000
2074.004280	241.200000
2075.683072	232.600000
2077.359821	233.400000
2079.034529	208.800000
2080.710607	207.400000
2082.384643	238.600000
2084.058345	240.600000
2085.731711	212.800000
2087.403038	232.600000
2089.074031	199.000000
2090.744690	239.600000
2092.415015	226.600000
2094.085006	244.000000
2095.752960	230.800000
2097.420582	238.600000
2099.086170	221.000000
2100.753126	225.200000
2102.418049	190.200000
2104.082640	257.800000
2105.745199	218.600000
2107.409126	241.000000
2109.071022	214.400000
2110.732587	235.200000
2112.393822	203.200000
2114.053027	219.600000
2115.711903	225.600000
2117.370448	229.400000
2119.028664	238.000000
2120.683157	253.600000
2122.340714	207.800000
2123.997941	224.200000
2125.651448	234.000000
2127.306322	226.200000
2128.957477	214.800000
2130.611695	238.400000
2132.262195	210.000000
2133.914063	257.800000
2135.560522	220.600000
2137.211735	248.600000
2138.859236	225.600000
2140.508103	219.800000
2142.154951	237.000000
2143.801474	251.400000
2145.447671	222.600000
2147.090159	240.400000
2148.735706	218.600000
2150.377546	209.000000
2152.022443	226.800000
2153.663635	236.800000
2155.304503	226.400000
2156.945048	265.400000
2158.583580	217.200000
2160.223478	232.000000
2161.859676	214.400000
2163.497240	215.000000
2165.134482	213.400000
2166.769714	248.200000
2168.404624	241.000000
2170.039213	240.000000
2171.673481	207.400000
2173.304055	236.800000
2174.937681	211.000000
2176.567614	212.600000
2178.198914	214.400000
2179.828208	224.400000
2181.457183	197.200000
2183.085838	226.400000
2184.714174	208.000000
2186.340507	235.000000
2187.966522	188.800000
2189.590536	222.000000
2191.215915	207.000000
2192.839293	199.600000
2194.464036	208.800000
2196.085098	218.600000
2197.705843	215.800000
2199.327952	212.400000
2200.948064	205.400000
2202.566180	247.200000
2204.183980	187.600000
2205.801464	219.200000
2207.418634	223.200000
2209.035487	224.800000
2210.652026	214.200000
2212.266571	242.200000
2213.879125	184.000000
2215.493042	245.200000
2217.104968	193.000000
2218.718257	228.600000
2220.329555	209.600000
2221.938865	244.400000
2223.549537	226.000000
2225.158221	212.200000
2226.766593	194.400000
2228.372978	194.600000
2229.980725	216.400000
2231.586487	215.000000
2233.191937	209.000000
2234.795402	225.000000
2236.400230	222.000000
2238.003074	232.800000
2239.603935	218.000000
2241.206159	234.000000
2242.806401	187.600000
2244.408005	228.200000
2246.005956	205.400000
2247.605270	232.000000
2249.202604	221.200000
2250.799630	234.400000
2252.398017	175.200000
2253.992757	230.800000
2255.585519	212.000000
2257.179644	230.400000
2258.775130	214.200000
2260.366971	218.400000
2261.958506	214.800000
2263.551402	233.600000
2265.138990	187.000000
2266.731273	233.600000
2268.318249	222.400000
2269.908254	201.200000
2271.492954	213.000000
2273.082348	237.200000
2274.666439	201.000000
2276.251892	217.000000
2277.835376	214.400000
2279.421885	244.000000
2281.004761	208.200000
2282.587334	221.400000
2284.169603	205.000000
2285.748242	250.800000
2287.329906	200.400000
2288.907941	248.600000
2290.488999	236.800000
2292.066430	219.700000
2293.641898	202.600000
2295.220388	235.000000
2296.795254	186.400000
2298.369819	225.200000
2299.944083	203.400000
2301.518047	215.000000
2303.091711	188.800000
2304.665075	238.000000
2306.234820	203.800000
2307.804266	213.000000
2309.376730	201.000000
2310.943920	232.200000
2312.514127	219.200000
2314.080721	225.600000
2315.648673	189.200000
2317.214671	211.600000
2318.780371	193.800000
2320.345773	233.600000
2321.909222	204.200000
2323.474030	218.600000
2325.035229	210.800000
2326.599443	278.800000
2328.158396	274.000000
2329.720362	260.000000
2331.280378	221.800000
2332.840098	220.400000
2334.397870	174.000000
2335.955346	216.000000
2337.512528	212.400000
2339.067762	211.200000
2340.622702	213.600000
2342.177349	251.200000
2343.731702	202.200000
2345.285761	242.600000
2346.839527	224.200000
2348.391348	205.600000
2349.941226	214.600000
2351.494113	222.600000
2353.041756	224.600000
2354.592407	241.400000
2356.139468	181.800000
2357.687886	233.800000
2359.236013	211.600000
2360.780551	245.200000
2362.326447	209.400000
2363.870404	254.200000
2365.415719	203.400000
2366.957449	227.800000
2368.500537	211.200000
2370.041688	228.800000
2371.582550	207.600000
2373.123123	224.600000
2374.663407	225.200000
2376.203402	229.400000
2377.739818	186.600000
2379.279236	219.600000
2380.815077	210.200000
2382.352275	220.400000
2383.885897	191.600000
2385.422519	237.400000
2386.957211	203.000000
2388.489972	225.800000
2390.022448	188.800000
2391.552995	245.800000
2393.086540	215.800000
2394.614874	241.200000
2396.144564	208.000000
2397.673969	211.600000
2399.203089	218.200000
2400.731923	220.600000
2402.255553	215.000000
2403.783818	239.200000
2405.306880	186.200000
2406.834577	253.600000
2408.355434	221.200000
2409.880923	229.600000
2411.402853	232.800000
2412.926137	245.800000
2414.447501	221.600000
2415.966945	225.200000
2417.487744	215.200000
2419.006624	243.400000
2420.525223	190.600000
2422.041903	249.200000
2423.559939	213.400000
2425.077693	251.400000
2426.591895	222.000000
2428.105818	233.800000
2429.619460	256.200000
2431.134456	238.800000
2432.645905	249.400000
2434.158707	251.600000
2435.669597	258.600000
2437.180208	265.600000
2438.688907	200.000000
2440.200592	242.400000
2441.708734	234.800000
2443.216598	273.200000
2444.724183	241.200000
2446.228229	277.600000
2447.735259	244.000000
2449.240381	242.200000
2450.745226	244.200000
2452.248164	240.000000
2453.750825	188.600000
2455.253211	259.400000
2456.753690	227.200000
2458.255524	244.600000
2459.755452	232.800000
2461.255105	255.800000
2462.754483	242.400000
2464.251958	240.600000
2465.747531	245.600000
2467.246084	240.800000
2468.741109	221.400000
2470.237486	252.400000
2471.730337	251.200000
2473.224541	236.000000
2474.718471	219.600000
2476.208877	239.000000
2477.702261	234.400000
2479.193747	211.800000
2480.683336	224.800000
2482.172653	238.400000
2483.660074	210.200000
2485.150471	228.600000
2486.637350	204.400000
2488.125580	197.000000
2489.610293	202.000000
2491.094736	210.600000
2492.580531	198.600000
2494.064434	227.200000
2495.549687	213.400000
2497.029807	234.400000
2498.512899	196.200000
2499.994102	239.400000
2501.475035	195.200000
2502.954078	227.400000
2504.432854	205.600000
2505.911361	240.800000
2507.389599	182.000000
2508.867570	228.000000
2510.342035	190.000000
2511.819470	210.400000
2513.293400	202.600000
2514.768682	214.600000
2516.243696	189.200000
2517.715209	219.600000
2519.188073	211.600000
2520.659054	206.600000
2522.131385	188.600000
2523.598602	214.000000
2525.068786	194.400000
2526.537089	226.600000
2528.005126	226.400000
2529.472899	225.200000
2530.940407	198.600000
2532.407651	240.600000
2533.871402	215.600000
2535.336503	205.000000
2536.799727	196.600000
2538.264300	221.800000
2539.725385	199.000000
2541.187819	233.400000
2542.649990	212.400000
2544.108674	221.800000
2545.571931	192.200000
2547.030091	225.600000
2548.489601	225.600000
2549.944016	219.200000
2551.403002	203.800000
2552.860116	220.000000
2554.315358	199.800000
2555.770340	221.000000
2557.223452	191.000000
2558.677913	200.200000
2560.130505	204.800000
2561.582837	237.800000
2563.033301	188.000000
2564.486722	224.000000
2565.935060	235.600000
2567.386353	227.400000
2568.835780	204.400000
2570.281736	217.200000
2571.730646	199.600000
2573.176085	229.800000
2574.622873	229.000000
2576.067797	254.600000
2577.512464	216.800000
2578.958478	253.800000
2580.401025	223.400000
2581.844920	222.400000
2583.285350	239.000000
2584.727128	194.600000
2586.167046	237.400000
2587.608311	232.200000
2589.046114	229.800000
2590.486867	241.000000
2591.922558	207.400000
2593.361197	223.400000
2594.797980	212.600000
2596.232907	239.000000
2597.670781	221.800000
2599.103598	252.000000
2600.537762	203.600000
2601.970071	227.400000
2603.403728	215.800000
2604.835530	236.400000
2606.267080	245.000000
2607.698376	238.800000
2609.127821	213.400000
2610.557013	213.000000
2611.984354	218.000000
2613.413042	242.200000
2614.841477	202.000000
2616.266466	228.600000
2617.692800	244.600000
2619.117287	236.600000
2620.543118	226.000000
2621.965507	231.000000
2623.389240	234.800000
2624.811128	254.200000
2626.232765	205.600000
2627.652558	244.200000
2629.073696	252.400000
2630.494584	244.400000
2631.912033	206.600000
2633.332422	265.800000
2634.749374	247.000000
2636.166078	280.200000
2637.582533	261.200000
2638.998740	287.600000
2640.414699	261.800000
2641.828817	282.600000
2643.242687	269.200000
2644.654718	285.400000
2646.068094	256.200000
2647.478040	330.800000
2648.890922	298.400000
2650.300375	337.200000
2651.709582	271.800000
2653.116953	304.600000
2654.527258	303.400000
2655.935727	310.800000
2657.342362	335.000000
2658.748750	324.400000
2660.153306	347.400000
2661.559205	369.800000
2662.963270	336.800000
2664.367092	360.400000
2665.770669	354.600000
2667.172415	389.000000
2668.575504	386.200000
2669.975175	407.200000
2671.376190	381.200000
2672.773789	420.800000
2674.174317	428.800000
2675.571431	428.200000
2676.969888	415.600000
2678.366517	432.600000
2679.762905	414.200000
2681.159050	436.000000
2682.553369	411.000000
2683.949031	462.800000
2685.341284	429.800000
2686.734879	420.000000
2688.126650	417.200000
2689.519764	447.600000
2690.911053	403.800000
2692.300521	435.000000
2693.689748	418.800000
2695.078735	449.200000
2696.469065	444.800000
2697.854411	454.000000
2699.242680	434.200000
2700.629129	507.600000
2702.015339	461.800000
2703.401310	506.800000
2704.783883	508.000000
2706.167798	542.000000
2707.551474	559.600000
2708.934913	593.200000
2710.314956	603.200000
2711.696341	623.800000
2713.075910	632.400000
2714.456821	671.200000
2715.835917	623.800000
2717.213199	650.400000
2718.591822	613.600000
2719.968631	643.600000
2721.345205	571.400000
2722.721543	594.400000
2724.096069	559.200000
2725.471936	554.800000
2726.844416	513.400000
2728.219813	510.600000
2729.590249	484.600000
2730.962025	463.400000
2732.333568	450.600000
2733.703302	452.000000
2735.074376	394.000000
2736.443643	410.000000
2737.812676	417.200000
2739.179903	391.400000
2740.546896	342.800000
2741.913657	396.400000
2743.280185	311.600000
2744.644909	347.800000
2746.009400	325.600000
2747.373659	324.200000
2748.737687	282.400000
2750.101482	281.600000
2751.461905	283.800000
2752.825237	283.800000
2754.183627	220.800000
2755.544927	244.000000
2756.902857	237.000000
2758.263695	253.600000
2759.622733	221.800000
2760.978403	233.800000
2762.336982	202.800000
2763.692193	259.600000
2765.047175	185.800000
2766.400360	234.000000
2767.756452	203.600000
2769.109180	246.400000
2770.461679	196.800000
2771.813951	230.200000
2773.167560	186.600000
2774.517808	223.200000
2775.866263	206.800000
2777.217622	238.000000
2778.565622	211.400000
2779.914961	218.200000
2781.262507	220.800000
2782.609827	218.800000
2783.956919	187.200000
2785.302221	211.600000
2786.647297	196.400000
2787.992147	215.000000
2789.336771	174.600000
2790.678043	191.800000
2792.020652	195.200000
2793.363037	212.800000
2794.705196	170.000000
2796.044006	207.800000
2797.385716	192.800000
2798.724077	218.000000
2800.063776	176.800000
2801.401689	187.200000
2802.737818	168.200000
2804.073724	211.000000
2805.410967	199.800000
2806.746425	190.400000
2808.081661	193.000000
2809.415115	209.200000
2810.749905	189.600000
2812.081354	190.000000
2813.415699	188.600000
2814.745146	202.200000
2816.075930	185.200000
2817.406492	192.000000
2818.735275	179.000000
2820.065395	200.400000
2821.393736	194.200000
2822.721855	191.600000
2824.048198	168.600000
2825.375876	184.000000
2826.700222	154.400000
2828.025904	201.800000
2829.349810	190.600000
2830.673496	182.600000
2831.998518	184.600000
2833.320211	193.600000
2834.641685	156.200000
2835.962939	202.000000
2837.283975	190.400000
2838.603239	193.600000
2839.923838	189.200000
2841.242665	216.000000
2842.561274	145.800000
2843.878113	188.800000
2845.194734	168.800000
2846.511138	186.400000
2847.825772	174.000000
2849.141741	185.800000
2850.454391	181.800000
2851.768375	182.800000
2853.082143	179.800000
2854.395694	186.800000
2855.707479	158.000000
2857.017497	196.200000
2858.328850	157.400000
2859.636888	188.400000
2860.946260	156.000000
2862.255417	184.400000
2863.564359	177.200000
2864.871538	204.400000
2866.176953	177.600000
2867.483703	175.200000
2868.788691	149.200000
2870.093464	176.600000
2871.396477	169.000000
2872.702370	208.200000
2874.003409	171.600000
2875.305781	204.000000
2876.606395	191.600000
2877.908341	198.000000
2879.210075	162.600000
2880.508505	194.600000
2881.808268	156.800000
2883.106274	155.200000
2884.404068	146.800000
2885.700105	164.600000
2886.997476	177.000000
2888.293092	181.800000
2889.588496	168.600000
2890.883689	202.000000
2892.175585	171.200000
2893.470356	188.600000
2894.761832	193.200000
2896.054640	167.400000
2897.347238	148.400000
2898.636541	198.000000
2899.927178	131.800000
2901.216063	200.400000
2902.506280	149.000000
2903.793206	168.400000
2905.081464	183.000000
2906.367973	203.000000
2907.654273	164.600000
2908.940365	173.600000
2910.224709	160.000000
2911.511925	218.000000
2912.794314	167.400000
2914.078035	178.000000
2915.360009	147.800000
2916.641777	202.800000
2917.921799	171.600000
2919.204691	176.400000
2920.485838	177.000000
2921.763703	165.000000
2923.044437	143.200000
2924.321890	156.000000
2925.599138	185.800000
2926.874643	168.200000
2928.153016	174.400000
2929.426575	175.400000
2930.703001	146.200000
2931.977685	175.600000
2933.250630	135.400000
2934.524906	198.200000
2935.797441	149.400000
2937.069773	162.000000
2938.338832	151.000000
2939.610756	184.800000
2940.880942	159.800000
2942.150924	179.800000
2943.420703	168.600000
2944.688746	168.800000
2945.955052	171.600000
2947.221156	184.400000
2948.488591	145.400000
2949.754290	172.800000
2951.019788	141.200000
2952.285083	178.800000
2953.547113	152.000000
2954.810473	160.400000
2956.073632	182.400000
2957.335058	183.800000
2958.597815	165.200000
2959.858839	158.200000
2961.118133	143.600000
2962.377226	182.600000
2963.636120	169.400000
2964.894812	163.600000
2966.153305	159.600000
2967.410069	182.800000
2968.666634	178.600000
2969.921470	167.800000
2971.177636	121.000000
2972.430547	176.400000
2973.684786	143.800000
2974.938827	184.000000
2976.191142	161.400000
2977.443259	186.600000
2978.693651	142.400000
2979.946898	148.400000
2981.195368	132.400000
2982.446693	167.000000
2983.694768	129.600000
2984.942646	169.200000
2986.190328	171.600000
2987.437812	173.200000
2988.683575	156.200000
2989.929141	166.400000
2991.176036	146.800000
2992.419686	164.600000
2993.664663	173.000000
2994.906398	192.000000
2996.150984	178.600000
2997.393851	176.400000
2998.633477	150.600000
2999.875953	178.800000
3001.115189	140.800000
3002.355753	177.200000
3003.594600	147.800000
3004.833253	162.600000
3006.070190	164.400000
3007.308455	151.200000
3008.545004	139.800000
3009.781360	167.600000
3011.017522	159.600000
3012.251970	186.200000
3013.486225	132.600000
3014.720287	168.200000
3015.952637	162.200000
3017.183275	147.400000
3018.416759	185.600000
3019.648532	149.400000
3020.878593	146.600000
3022.108463	173.000000
3023.336623	159.600000
3024.566110	150.000000
3025.793887	154.600000
3027.021473	180.000000
3028.250385	128.400000
3029.474555	156.800000
3030.701568	164.200000
3031.925358	188.400000
3033.150473	156.400000
3034.373883	174.800000
3035.597102	134.800000
3036.818616	178.600000
3038.042971	147.200000
3039.262591	171.000000
3040.483537	150.200000
3041.704293	168.400000
3042.923347	126.800000
3044.143725	161.400000
3045.360887	167.800000
3046.579374	198.600000
3047.796160	143.200000
3049.012757	141.600000
3050.229167	150.600000
3051.442363	184.800000
3052.658397	172.000000
3053.871219	161.000000
3055.086878	150.800000
3056.297814	166.800000
3057.510076	159.000000
3058.722150	173.000000
3059.934038	166.400000
3061.144229	162.000000
3062.354233	157.600000
3063.564051	160.000000
3064.772173	129.600000
3065.980110	180.000000
3067.186351	143.600000
3068.393917	183.800000
3069.599788	164.800000
3070.805474	145.800000
3072.010976	130.200000
3073.214784	162.800000
3074.419916	140.600000
3075.623355	145.200000
3076.825102	157.600000
3078.026666	169.800000
3079.228046	147.200000
3080.429242	148.200000
3081.628748	132.800000
3082.828071	143.800000
3084.028717	158.400000
3085.227673	174.400000
3086.423434	138.000000
3087.622025	151.200000
3088.817422	142.600000
3090.014143	161.000000
3091.207671	101.600000
3092.404027	152.200000
3093.598696	138.400000
3094.790175	145.200000
3095.985986	153.000000
3097.177102	174.400000
3098.369542	154.400000
3099.558793	168.400000
3100.750871	133.200000
3101.941265	143.200000
3103.128473	129.200000
3104.317003	139.800000
3105.506856	144.000000
3106.693524	172.000000
3107.880013	135.000000
3109.066323	147.600000
3110.253954	119.000000
3111.438403	159.800000
3112.621173	130.600000
3113.806765	159.800000
3114.990678	143.800000
3116.172911	158.800000
3117.354967	158.400000
3118.536844	135.000000
3119.718543	135.000000
3120.898565	130.200000
3122.076910	136.000000
3123.258075	137.800000
3124.436065	126.400000
3125.613878	154.800000
3126.791514	131.600000
3127.967475	148.600000
3129.143260	133.200000
3130.320365	169.600000
3131.495797	130.800000
3132.669555	160.200000
3133.841640	112.000000
3135.015046	143.400000
3136.188277	148.200000
3137.359836	141.400000
3138.532715	121.000000
3139.702427	190.200000
3140.873460	134.400000
3142.042822	181.200000
3143.210515	130.600000
3144.381023	159.000000
3145.546872	152.600000
3146.717031	149.600000
3147.882532	144.200000
3149.047860	146.200000
3150.213014	139.800000
3151.377995	148.200000
3152.544295	156.200000
3153.705942	170.000000
3154.868910	135.200000
3156.031705	167.400000
3157.194326	149.400000
3158.355283	132.000000
3159.516068	124.000000
3160.676680	160.800000
3161.835628	120.400000
3162.994405	148.800000
3164.153009	109.200000
3165.311442	135.800000
3166.469703	119.800000
3167.626303	172.400000
3168.781241	132.400000
3169.937498	147.600000
3171.092094	147.800000
3172.246520	152.400000
3173.399285	135.200000
3174.551881	156.200000
3175.704307	122.200000
3176.856562	147.400000
3178.008648	126.400000
3179.157587	175.600000
3180.309333	155.800000
3181.459422	149.000000
3182.607853	110.600000
3183.756116	145.000000
3184.904210	127.800000
3186.052135	160.400000
3187.198404	116.400000
3188.344505	153.000000
3189.488952	117.600000
3190.633230	143.200000
3191.777341	117.000000
3192.922770	127.000000
3194.065060	135.800000
3195.207182	175.600000
3196.349138	131.400000
3197.490926	171.400000
3198.632547	109.600000
3199.771033	158.200000
3200.910836	112.200000
3202.051956	157.200000
3203.189943	147.000000
3204.326279	152.000000
3205.462451	135.200000
3206.599939	143.600000
3207.735779	114.600000
3208.872936	137.400000
3210.005480	138.000000
3211.142305	148.800000
3212.274520	120.600000
3213.408051	140.200000
3214.541417	136.400000
3215.671657	144.200000
3216.804694	124.000000
3217.934605	160.800000
3219.065832	123.000000
3220.193934	158.400000
3221.324834	100.000000
3222.454089	156.600000
3223.581701	101.600000
3224.706190	127.400000
3225.834955	144.800000
3226.960598	147.400000
3228.086078	158.800000
3229.209917	154.000000
3230.336551	120.400000
3231.458587	152.000000
3232.581939	148.200000
3233.705128	176.800000
3234.828156	151.600000
3235.949544	144.000000
3237.070771	155.600000
3238.190359	184.400000
3239.309786	132.000000
3240.427576	170.200000
3241.548157	147.000000
3242.665625	185.000000
3243.782932	171.600000
3244.900079	183.000000
3246.015589	160.000000
3247.132415	163.400000
3248.246130	155.200000
3249.362636	161.600000
3250.477506	126.600000
3251.589268	155.600000
3252.700871	159.800000
3253.813789	157.400000
3254.926547	133.800000
3256.036199	165.800000
3257.147166	133.800000
3258.257974	162.200000
3259.367150	118.400000
3260.474695	146.000000
3261.583555	124.400000
3262.692256	141.000000
3263.797855	125.200000
3264.904769	139.600000
3266.010053	123.800000
3267.116651	143.200000
3268.220149	116.200000
3269.324961	133.800000
3270.429616	126.600000
3271.531173	111.200000
3272.632573	119.400000
3273.735287	115.800000
3274.837845	120.800000
3275.937306	151.000000
3277.039551	122.600000
3278.138700	128.600000
3279.236224	133.800000
3280.333594	130.200000
3281.433745	139.600000
3282.530804	129.000000
3283.627707	147.000000
3284.724455	146.000000
3285.816644	133.400000
3286.913083	128.400000
3288.007899	74.400000
3289.102560	140.600000
3290.195600	122.800000
3291.288486	118.600000
3292.379751	92.600000
3293.472329	130.200000
3294.563287	126.600000
3295.652625	156.400000
3296.741810	100.000000
3297.832307	127.000000
3298.919721	89.200000
3300.006981	130.200000
3301.095554	117.600000
3302.183974	144.800000
3303.267848	115.200000
3304.355963	147.400000
3305.440996	111.000000
3306.524414	121.400000
3307.609144	107.600000
3308.692258	153.000000
3309.776684	101.600000
3310.858033	122.800000
3311.940693	117.600000
3313.021738	121.000000
3314.102633	101.600000
3315.181915	124.000000
3316.261046	110.800000
3317.341489	128.400000
3318.418857	125.600000
3319.497537	157.200000
3320.574605	137.800000
3321.651523	123.400000
3322.726831	146.000000
3323.801989	128.400000
3324.878458	125.000000
3325.951857	114.600000
3327.025106	105.800000
3328.099667	147.200000
3329.172619	99.400000
3330.243962	142.800000
3331.316616	132.200000
3332.386203	126.600000
3333.457101	95.800000
3334.526393	138.200000
3335.596994	115.800000
3336.665989	133.600000
3337.733379	118.000000
3338.799163	145.400000
3339.869173	81.000000
3340.936120	134.200000
3342.000005	96.800000
3343.066657	158.200000
3344.131706	118.600000
3345.195151	136.400000
3346.258450	110.800000
3347.321602	122.400000
3348.384608	117.600000
3349.447468	110.000000
3350.508725	91.400000
3351.566926	122.000000
3352.629348	118.000000
3353.688714	125.600000
3354.747934	115.800000
3355.808463	139.400000
3356.864484	80.200000
3357.923268	143.000000
3358.977545	93.200000
3360.034586	147.200000
3361.090028	117.800000
3362.146780	128.600000
3363.201933	103.400000
3364.255489	151.600000
3365.307448	130.200000
3366.362170	136.200000
3367.413842	96.800000
3368.465370	126.200000
3369.518208	97.800000
3370.567998	111.200000
3371.619097	86.800000
3372.667149	125.000000
3373.717962	126.200000
3374.765729	144.600000
3375.813354	128.800000
3376.860837	132.400000
3377.906727	113.000000
3378.953925	123.600000
3379.998080	101.400000
3381.044995	125.400000
3382.090317	127.800000
3383.132598	139.600000
3384.174738	107.200000
3385.218187	147.600000
3386.261494	105.800000
3387.303211	138.000000
3388.344788	128.000000
3389.386223	132.200000
3390.426070	127.600000
3391.464328	129.400000
3392.503894	119.200000
3393.543320	150.600000
3394.581158	111.000000
3395.617409	143.800000
3396.653520	118.200000
3397.690939	141.600000
3398.725325	129.800000
3399.761019	139.200000
3400.796573	112.000000
3401.829095	105.400000
3402.864371	102.600000
3403.896617	145.000000
3404.928723	103.000000
3405.959247	129.600000
3406.991077	121.000000
3408.022769	130.400000
3409.051433	98.200000
3410.079960	148.600000
3411.109793	109.200000
3412.139489	147.800000
3413.166159	105.600000
3414.194135	124.400000
3415.219087	115.400000
3416.246790	160.800000
3417.271468	103.200000
3418.297453	146.800000
3419.321859	114.400000
3420.346128	140.400000
3421.368818	108.400000
3422.391372	137.200000
3423.415232	117.600000
3424.436072	123.800000
3425.456776	87.800000
3426.478786	113.200000
3427.497778	84.400000
3428.516635	114.000000
3429.536798	119.600000
3430.553944	114.800000
