528.748901	-4.666667
528.823547	-39.666667
528.898132	-43.666667
528.972717	8.333333
529.047241	-6.666667
529.121826	-13.000000
529.196350	8.666667
529.270935	-3.666667
529.345398	3.000000
529.419922	7.000000
529.494446	-14.333333
529.568909	-4.000000
529.643433	-23.666667
529.717834	-32.000000
529.792297	5.000000
529.866699	-42.333333
529.941162	-5.000000
530.015503	-34.666667
530.089905	3.666667
530.164307	-16.000000
530.238647	6.000000
530.313049	9.666667
530.387329	10.333333
530.461670	-23.666667
530.535950	-14.000000
530.610291	24.000000
530.684631	-1.333333
530.758850	-14.333333
530.833130	18.666667
530.907349	-7.333333
530.981628	27.000000
531.055786	3.333333
531.130066	-14.333333
531.204224	-17.333333
531.278381	-5.666667
531.352600	-12.000000
531.426697	-2.000000
531.500916	33.666667
531.575012	2.000000
531.649109	26.000000
531.723206	21.000000
531.797302	108.666667
531.871338	321.000000
531.945435	1022.333333
532.019470	2575.333333
532.093506	3216.666667
532.167542	1616.666667
532.241516	204.000000
532.315552	9.333333
532.389465	5.333333
532.463501	-21.666667
532.537415	-4.333333
532.611389	-21.666667
532.685364	-10.333333
532.759216	-20.000000
532.833191	-16.000000
532.907043	22.000000
532.980957	-28.666667
533.054749	-21.000000
533.128662	-3.000000
533.202454	-12.333333
533.276306	-21.000000
533.350159	-19.666667
533.423889	10.333333
533.497681	-24.666667
533.571411	-27.000000
533.645203	0.333333
533.718933	-10.000000
533.792725	0.000000
533.866394	-13.666667
533.940125	3.666667
534.013855	9.000000
534.087524	-28.000000
534.161255	-21.333333
534.234802	0.666667
534.308472	-3.000000
534.382080	-0.666667
534.455688	5.333333
534.529358	-26.666667
534.602905	-7.666667
534.676514	9.333333
534.750061	-10.000000
534.823608	33.333333
534.897095	15.000000
534.970642	-31.000000
535.044128	-1.000000
535.117676	-25.333333
535.191162	1.666667
535.264587	24.333333
535.338135	6.333333
535.411438	-4.000000
535.484924	2.333333
535.558289	-2.000000
535.631775	26.000000
535.705139	27.333333
535.778564	30.000000
535.851868	25.333333
535.925171	70.000000
535.998596	153.000000
536.071899	126.333333
536.145203	181.333333
536.218506	228.666667
536.291748	235.000000
536.364990	245.666667
536.438293	275.333333
536.511597	264.000000
536.584778	246.000000
536.657959	241.333333
536.731140	270.666667
536.804382	259.666667
536.877563	223.000000
536.950684	234.666667
537.023804	250.000000
537.096985	250.333333
537.170166	260.000000
537.243286	252.333333
537.316345	260.000000
537.389404	261.000000
537.462524	235.666667
537.535583	229.666667
537.608582	266.000000
537.681580	243.333333
537.754639	301.000000
537.827637	272.000000
537.900635	244.333333
537.973633	261.333333
538.046570	245.000000
538.119507	234.000000
538.192444	244.000000
538.265442	235.666667
538.338257	279.666667
538.411194	226.666667
538.484131	246.000000
538.556946	272.333333
538.629822	274.000000
538.702637	263.666667
538.775452	257.666667
538.848267	263.333333
538.921143	254.000000
538.993896	295.333333
539.066650	295.000000
539.139465	266.666667
539.212158	264.000000
539.284973	252.666667
539.357605	296.333333
539.430359	297.666667
539.503052	274.000000
539.575745	252.000000
539.648437	275.333333
539.721008	249.333333
539.793701	260.333333
539.866333	235.666667
539.938965	273.333333
540.011536	235.000000
540.084167	274.000000
540.156738	267.000000
540.229248	273.000000
540.301880	264.000000
540.374329	284.333333
540.446899	269.666667
540.519348	226.000000
540.591919	260.000000
540.664368	301.333333
540.736877	288.333333
540.809326	296.333333
540.881775	278.000000
540.954224	306.666667
541.026611	312.666667
541.098999	300.333333
541.171387	347.333333
541.243774	373.333333
541.316101	409.666667
541.388428	360.000000
541.460815	352.000000
541.533081	353.000000
541.605469	297.666667
541.677734	284.000000
541.750000	286.666667
541.822266	307.000000
541.894531	322.333333
541.966736	297.666667
542.039001	299.666667
542.111206	311.000000
542.183411	325.333333
542.255615	330.666667
542.327759	314.666667
542.399963	272.666667
542.472046	293.000000
542.544250	322.666667
542.616333	287.333333
542.688416	280.000000
542.760559	287.000000
542.832581	275.666667
542.904663	290.333333
542.976746	299.000000
543.048767	325.666667
543.120789	296.333333
543.192810	324.000000
543.264771	323.666667
543.336792	306.666667
543.408752	287.666667
543.480652	304.666667
543.552673	312.000000
543.624573	333.000000
543.696533	293.666667
543.768372	294.666667
543.840332	288.666667
543.912170	308.666667
543.984009	312.333333
544.055908	279.333333
544.127686	333.000000
544.199524	272.333333
544.271362	298.000000
544.343201	294.000000
544.414917	290.000000
544.486694	350.000000
544.558411	301.000000
544.630188	311.666667
544.701904	309.000000
544.773682	329.333333
544.845398	319.666667
544.916992	332.000000
544.988708	318.000000
545.060364	316.666667
545.132019	274.333333
545.203674	336.333333
545.275269	324.000000
545.346863	276.333333
545.418457	329.333333
545.490051	272.000000
545.561584	292.666667
545.633118	317.666667
545.704651	294.000000
545.776184	293.666667
545.847656	303.666667
545.919189	328.000000
545.990723	316.000000
546.062134	277.666667
546.133667	296.000000
546.205078	271.333333
546.276489	305.333333
546.347900	258.666667
546.419312	285.000000
546.490784	282.000000
546.562134	255.000000
546.633423	257.333333
546.704773	296.666667
546.776123	230.000000
546.847412	234.333333
546.918762	237.666667
546.990051	241.333333
547.061279	223.666667
547.132568	234.000000
547.203796	244.666667
547.275085	203.666667
547.346313	203.333333
547.417480	174.333333
547.488647	229.666667
547.559875	212.666667
547.631042	175.666667
547.702271	194.333333
547.773376	191.000000
547.844482	188.666667
547.915649	197.000000
547.986694	182.000000
548.057800	173.000000
548.128845	203.333333
548.199890	190.666667
548.270935	180.333333
548.342041	175.333333
548.413025	224.666667
548.484070	193.333333
548.555054	192.333333
548.625977	195.666667
548.697021	224.666667
548.767883	187.666667
548.838867	211.666667
548.909790	191.000000
548.980713	179.333333
549.051636	167.000000
549.122498	180.333333
549.193420	166.333333
549.264160	181.666667
549.335083	204.000000
549.405823	188.666667
549.476746	197.666667
549.547546	186.000000
549.618286	180.000000
549.689087	186.000000
549.759827	193.666667
549.830566	172.333333
549.901245	181.000000
549.972046	193.666667
550.042725	184.666667
550.113464	180.000000
550.184143	174.666667
550.254761	179.666667
550.325439	170.333333
550.396057	211.000000
550.466675	192.666667
550.537292	177.333333
550.607910	194.333333
550.678406	187.000000
550.749084	154.666667
550.819641	179.666667
550.890137	179.333333
550.960693	150.666667
551.031189	179.666667
551.101685	181.000000
551.172119	145.666667
551.242615	155.333333
551.313110	176.000000
551.383545	146.666667
551.453979	148.000000
551.524353	179.666667
551.594788	154.000000
551.665161	178.000000
551.735596	147.333333
551.805908	178.000000
551.876282	157.333333
551.946594	178.666667
552.016907	204.666667
552.087280	145.333333
552.157532	155.000000
552.227783	148.000000
552.298035	139.000000
552.368347	175.000000
552.438538	174.000000
552.508789	150.333333
552.579041	153.000000
552.649170	174.666667
552.719360	168.000000
552.789551	150.666667
552.859741	164.666667
552.929810	108.666667
553.000000	156.333333
553.070068	158.666667
553.140198	139.000000
553.210266	151.666667
553.280334	174.000000
553.350403	137.000000
553.420410	155.000000
553.490479	129.666667
553.560486	185.666667
553.630493	163.000000
553.700439	165.333333
553.770447	175.666667
553.840454	141.333333
553.910339	177.666667
553.980286	153.666667
554.050232	197.666667
554.120178	165.000000
554.190002	140.333333
554.259888	168.000000
554.329773	130.666667
554.399597	151.666667
554.469482	179.666667
554.539307	188.000000
554.609070	183.666667
554.678894	175.333333
554.748657	157.000000
554.818420	146.333333
554.888184	155.000000
554.957886	149.666667
555.027649	200.666667
555.097412	177.000000
555.167053	151.666667
555.236755	199.333333
555.306458	189.000000
555.376099	202.000000
555.445679	175.333333
555.515381	169.666667
555.584900	173.333333
555.654602	167.666667
555.724182	180.333333
555.793701	160.000000
555.863281	194.000000
555.932800	164.333333
556.002380	206.666667
556.071838	185.666667
556.141357	172.333333
556.210815	129.333333
556.280334	163.333333
556.349854	151.666667
556.419250	180.000000
556.488770	158.333333
556.558105	160.666667
556.627563	179.666667
556.696899	180.333333
556.766296	163.000000
556.835632	167.000000
556.905029	137.333333
556.974365	167.666667
557.043640	182.333333
557.112976	157.000000
557.182251	173.333333
557.251526	160.333333
557.320801	148.333333
557.390076	182.000000
557.459351	141.000000
557.528503	155.666667
557.597778	164.666667
557.666931	152.333333
557.736145	175.666667
557.805237	183.333333
557.874451	104.333333
557.943542	169.666667
558.012695	156.666667
558.081848	162.000000
558.150940	167.333333
558.220093	161.000000
558.289124	137.333333
558.358154	142.333333
558.427185	166.666667
558.496216	175.000000
558.565247	189.666667
558.634277	158.000000
558.703247	159.333333
558.772217	141.000000
558.841187	169.666667
558.910095	142.333333
558.979065	194.333333
559.047974	142.333333
559.116882	171.000000
559.185730	138.333333
559.254639	168.333333
559.323486	111.000000
559.392334	131.666667
559.461243	153.666667
559.529968	178.333333
559.598816	184.666667
559.667542	150.000000
559.736389	148.666667
559.805115	180.333333
559.873901	160.666667
559.942627	147.333333
560.011353	162.666667
560.080078	149.000000
560.148743	157.000000
560.217407	178.666667
560.286011	152.333333
560.354736	188.000000
560.423340	172.666667
560.491943	194.333333
560.560669	200.333333
560.629150	173.666667
560.697754	189.000000
560.766357	183.000000
560.834900	181.000000
560.903381	171.666667
560.971924	165.666667
561.040527	169.666667
561.108948	188.666667
561.177490	201.333333
561.245911	196.000000
561.314392	162.666667
561.382751	190.333333
561.451233	176.333333
561.519653	207.333333
561.588074	194.666667
561.656494	194.666667
561.724792	186.333333
561.793213	221.000000
561.861511	204.666667
561.929871	193.000000
561.998169	211.666667
562.066467	204.666667
562.134705	232.000000
562.202942	215.666667
562.271240	215.000000
562.339478	226.333333
562.407715	224.333333
562.475952	231.666667
562.544189	201.000000
562.612305	209.333333
562.680481	202.666667
562.748657	234.666667
562.816772	223.666667
562.884949	240.666667
562.953003	196.000000
563.021179	226.333333
563.089233	268.666667
563.157288	212.666667
563.225342	242.000000
563.293457	231.333333
563.361389	214.333333
563.429443	223.000000
563.497437	229.000000
563.565430	242.333333
563.633484	196.000000
563.701355	221.000000
563.769348	231.333333
563.837219	228.666667
563.905212	221.000000
563.973083	233.000000
564.040955	252.333333
564.108887	204.666667
564.176697	215.333333
564.244568	228.000000
564.312378	198.666667
564.380188	260.333333
564.447998	185.666667
564.515808	239.666667
564.583557	220.333333
564.651306	265.666667
564.719116	216.666667
564.786804	228.333333
564.854553	208.666667
564.922180	224.000000
564.989990	232.000000
565.057617	234.333333
565.125305	180.666667
565.192932	195.000000
565.260559	238.000000
565.328186	208.333333
565.395752	218.333333
565.463379	215.333333
565.530884	185.333333
565.598511	202.666667
565.666016	228.666667
565.733582	180.000000
565.801147	217.666667
565.868591	189.333333
565.936157	200.666667
566.003601	194.000000
566.071106	233.000000
566.138428	218.333333
566.205933	176.000000
566.273315	191.000000
566.340759	190.000000
566.408203	219.000000
566.475464	188.000000
566.542908	196.666667
566.610229	215.000000
566.677551	194.000000
566.744873	160.000000
566.812195	202.000000
566.879517	200.333333
566.946777	163.000000
567.014099	184.666667
567.081238	179.333333
567.148560	199.000000
567.215698	198.333333
567.282959	228.000000
567.350098	145.000000
567.417358	195.666667
567.484436	193.333333
567.551575	198.000000
567.618774	224.666667
567.685852	148.333333
567.752991	169.666667
567.820068	214.666667
567.887146	164.666667
567.954224	165.333333
568.021301	159.666667
568.088318	198.333333
568.155273	166.333333
568.222351	187.666667
568.289307	199.333333
568.356323	170.000000
568.423218	182.000000
568.490173	205.666667
568.557068	198.666667
568.624023	179.000000
568.690979	195.333333
568.757812	204.333333
568.824707	167.000000
568.891541	185.666667
568.958435	207.000000
569.025208	176.666667
569.092102	187.333333
569.158875	199.333333
569.225708	200.000000
569.292480	210.333333
569.359253	163.333333
569.426025	193.333333
569.492737	206.000000
569.559448	190.000000
569.626099	174.666667
569.692871	161.666667
569.759583	187.333333
569.826172	157.333333
569.892822	185.333333
569.959473	162.000000
570.026062	183.000000
570.092651	199.333333
570.159241	184.000000
570.225830	203.333333
570.292419	193.666667
570.358887	184.666667
570.425476	177.666667
570.492004	179.333333
570.558533	187.333333
570.625000	168.666667
570.691406	170.333333
570.757935	186.666667
570.824341	207.000000
570.890808	203.000000
570.957275	170.666667
571.023621	187.000000
571.090027	169.666667
571.156372	206.000000
571.222778	191.666667
571.289062	205.666667
571.355408	208.000000
571.421753	218.333333
571.488037	218.666667
571.554382	223.666667
571.620605	233.000000
571.686890	221.333333
571.753052	237.333333
571.819336	235.666667
571.885498	264.000000
571.951721	271.333333
572.017883	263.666667
572.084106	240.666667
572.150269	268.000000
572.216431	260.333333
572.282593	281.333333
572.348633	235.000000
572.414734	264.333333
572.480774	287.666667
572.546936	263.666667
572.612976	273.000000
572.678955	313.666667
572.745056	285.666667
572.811035	290.333333
572.877075	273.000000
572.942993	264.000000
573.009033	299.333333
573.074890	301.666667
573.140869	273.666667
573.206726	253.333333
573.272705	297.666667
573.338684	280.333333
573.404480	225.000000
573.470337	256.333333
573.536194	255.000000
573.602051	259.000000
573.667908	239.666667
573.733704	241.000000
573.799500	201.333333
573.865295	191.666667
573.931091	209.333333
573.996765	202.333333
574.062500	247.666667
574.128235	225.666667
574.193970	207.000000
574.259644	209.000000
574.325317	165.000000
574.390930	198.666667
574.456604	192.666667
574.522278	197.666667
574.587891	194.666667
574.653503	199.666667
574.719055	201.666667
574.784668	210.333333
574.850220	218.000000
574.915771	190.333333
574.981323	185.000000
575.046814	182.333333
575.112366	186.333333
575.177856	185.000000
575.243347	184.000000
575.308716	237.000000
575.374207	171.333333
575.439636	208.000000
575.505066	188.333333
575.570496	188.000000
575.635864	181.666667
575.701233	206.333333
575.766602	163.666667
575.831970	170.666667
575.897217	186.666667
575.962646	181.666667
576.027832	201.000000
576.093201	171.333333
576.158447	187.000000
576.223755	221.333333
576.289001	216.666667
576.354126	165.666667
576.419434	219.000000
576.484558	138.666667
576.549744	195.666667
576.614990	181.666667
576.680115	159.333333
576.745239	151.000000
576.810364	173.333333
576.875488	165.000000
576.940552	209.000000
577.005676	175.666667
577.070740	199.333333
577.135803	205.666667
577.200806	206.666667
577.265869	194.666667
577.330872	196.000000
577.395874	154.333333
577.460876	179.333333
577.525818	152.333333
577.590698	209.666667
577.655640	202.666667
577.720581	166.333333
577.785522	161.000000
577.850403	220.666667
577.915283	199.000000
577.980103	194.333333
578.044983	174.333333
578.109802	159.666667
578.174622	196.333333
578.239441	181.333333
578.304199	172.666667
578.369019	193.666667
578.433777	226.666667
578.498535	206.000000
578.563232	189.666667
578.627930	174.000000
578.692627	203.000000
578.757324	196.666667
578.821960	222.000000
578.886658	187.666667
578.951355	215.333333
579.015930	202.333333
579.080566	204.333333
579.145142	218.333333
579.209717	259.666667
579.274292	204.333333
579.338867	219.000000
579.403381	221.666667
579.467957	211.333333
579.532471	203.000000
579.596924	215.000000
579.661438	245.333333
579.725891	210.000000
579.790344	209.000000
579.854736	229.666667
579.919189	217.666667
579.983521	282.333333
580.047974	273.000000
580.112366	270.000000
580.176697	246.000000
580.241089	253.000000
580.305359	292.333333
580.369690	307.666667
580.434021	284.000000
580.498352	278.333333
580.562622	316.666667
580.626831	279.000000
580.691101	248.333333
580.755310	273.000000
580.819519	270.333333
580.883728	227.333333
580.947876	245.000000
581.012085	259.000000
581.076233	301.000000
581.140442	242.666667
581.204529	243.000000
581.268616	266.666667
581.332703	242.666667
581.396851	273.666667
581.460815	208.333333
581.524902	210.000000
581.588989	206.000000
581.653015	200.333333
581.717041	256.000000
581.781006	246.000000
581.844971	215.333333
581.908936	219.666667
581.972900	231.333333
582.036804	232.000000
582.100769	203.000000
582.164612	218.000000
582.228516	201.000000
582.292419	184.666667
582.356262	159.666667
582.420166	199.666667
582.483948	199.333333
582.547791	201.333333
582.611572	185.000000
582.675415	169.333333
582.739075	187.666667
582.802917	174.333333
582.866638	180.666667
582.930359	195.000000
582.994141	202.000000
583.057739	177.000000
583.121460	160.333333
583.185059	175.000000
583.248779	174.000000
583.312439	172.000000
583.376038	188.333333
583.439697	181.000000
583.503235	175.000000
583.566833	185.000000
583.630371	156.000000
583.693970	159.333333
583.757446	130.000000
583.820984	207.000000
583.884460	155.000000
583.947937	158.000000
584.011475	179.000000
584.074951	197.666667
584.138367	170.000000
584.201782	177.000000
584.265259	190.333333
584.328552	155.666667
584.391968	198.666667
584.455383	186.666667
584.518677	201.000000
584.582092	199.333333
584.645386	170.666667
584.708679	200.000000
584.771973	176.333333
584.835266	159.333333
584.898560	174.000000
584.961792	173.666667
585.025085	186.000000
585.088196	200.666667
585.151489	165.333333
585.214600	187.333333
585.277832	157.333333
585.340942	157.000000
585.404175	173.000000
585.467224	183.666667
585.530334	155.666667
585.593506	161.666667
585.656555	160.333333
585.719666	198.666667
585.782715	166.666667
585.845764	165.333333
585.908752	193.666667
585.971802	151.666667
586.034790	164.333333
586.097778	201.333333
586.160767	180.000000
586.223633	173.000000
586.286621	183.000000
586.349487	138.333333
586.412476	150.333333
586.475342	183.666667
586.538208	168.000000
586.601074	165.666667
586.663940	130.333333
586.726807	169.333333
586.789551	163.333333
586.852417	171.333333
586.915161	192.333333
586.977966	179.000000
587.040710	143.666667
587.103455	190.666667
587.166260	159.333333
587.228882	157.333333
587.291626	186.666667
587.354248	127.333333
587.416992	145.333333
587.479614	131.333333
587.542236	181.333333
587.604858	155.666667
587.667480	146.000000
587.730042	150.666667
587.792664	155.000000
587.855286	154.333333
587.917786	154.000000
587.980347	195.666667
588.042786	168.333333
588.105347	161.000000
588.167786	147.333333
588.230286	160.666667
588.292786	162.000000
588.355164	160.000000
588.417664	180.666667
588.480042	154.000000
588.542480	155.333333
588.604797	179.333333
588.667175	168.333333
588.729553	199.666667
588.791870	133.666667
588.854187	164.333333
588.916504	125.000000
588.978821	150.666667
589.041077	183.000000
589.103394	169.000000
589.165527	177.000000
589.227844	160.666667
589.289978	167.000000
589.352234	215.666667
589.414429	197.000000
589.476562	171.333333
589.538818	177.333333
589.600891	108.666667
589.663025	146.666667
589.725098	163.000000
589.787292	149.000000
589.849365	175.000000
589.911377	156.333333
589.973450	154.333333
590.035461	168.000000
590.097534	158.666667
590.159485	174.666667
590.221497	166.333333
590.283447	166.333333
590.345459	173.333333
590.407410	182.333333
590.469299	146.333333
590.531250	178.000000
590.593140	111.333333
590.655090	154.333333
590.716858	144.333333
590.778748	170.000000
590.840576	162.000000
590.902405	149.333333
590.964294	194.666667
591.026001	166.333333
591.087830	190.666667
591.149536	176.000000
591.211365	180.666667
591.273071	188.333333
591.334778	156.333333
591.396545	168.666667
591.458191	160.666667
591.519836	107.333333
591.581482	160.000000
591.643127	186.000000
591.704773	153.000000
591.766418	199.666667
591.828003	153.000000
591.889587	183.666667
591.951111	140.666667
592.012695	143.000000
592.074280	182.000000
592.135803	163.000000
592.197266	180.000000
592.258728	174.666667
592.320251	187.000000
592.381714	156.666667
592.443115	186.333333
592.504578	130.333333
592.566040	162.666667
592.627380	147.333333
592.688782	186.000000
592.750122	167.000000
592.811523	188.666667
592.872864	176.666667
592.934143	155.666667
592.995483	187.000000
593.056763	154.000000
593.118042	210.000000
593.179321	167.333333
593.240601	153.000000
593.301819	168.000000
593.363037	168.333333
593.424255	162.666667
593.485413	177.333333
593.546570	161.500000
593.607788	145.666667
593.668884	172.333333
593.730042	188.333333
593.791138	157.333333
593.852234	205.666667
593.913330	129.000000
593.974426	154.000000
594.035461	186.000000
594.096436	165.333333
594.157471	157.666667
594.218506	173.000000
594.279480	125.666667
594.340454	154.000000
594.401489	193.666667
594.462341	167.333333
594.523315	128.666667
594.584167	132.666667
594.645142	180.333333
594.706055	149.333333
594.766846	156.000000
594.827759	166.333333
594.888550	152.666667
594.949402	168.000000
595.010132	185.333333
595.071045	163.333333
595.131836	191.333333
595.192505	168.333333
595.253296	170.333333
595.314026	181.000000
595.374756	140.000000
595.435425	124.666667
595.496155	167.333333
595.556763	166.666667
595.617493	168.000000
595.678040	191.333333
595.738708	159.666667
595.799316	162.000000
595.859924	192.333333
595.920471	134.666667
595.981018	154.666667
596.041626	161.666667
596.102112	174.333333
596.162659	133.000000
596.223145	140.333333
596.283630	164.333333
596.344116	154.666667
596.404541	173.666667
596.465027	152.333333
596.525391	169.333333
596.585815	174.666667
596.646179	166.666667
596.706665	174.000000
596.766968	168.666667
596.827332	180.000000
596.887695	173.000000
596.947937	180.333333
597.008301	151.000000
597.068542	155.333333
597.128845	172.333333
597.189087	156.666667
597.249390	194.000000
597.309570	155.000000
597.369751	165.666667
597.429993	180.666667
597.490112	186.000000
597.550293	190.333333
597.610474	170.333333
597.670593	132.666667
597.730774	171.000000
597.790771	154.333333
597.850952	142.333333
597.910950	156.666667
597.971069	154.666667
598.031067	219.000000
598.091064	141.000000
598.151123	130.333333
598.211121	166.666667
598.271057	150.000000
598.331055	142.666667
598.390991	165.333333
598.450928	189.000000
598.510864	170.666667
598.570740	153.666667
598.630615	173.666667
598.690491	179.333333
598.750366	139.666667
598.810242	161.333333
598.870056	157.666667
598.929871	178.666667
598.989624	172.333333
599.049438	164.333333
599.109192	142.333333
599.168945	174.666667
599.228638	186.000000
599.288391	159.333333
599.348083	193.000000
599.407776	178.666667
599.467468	178.000000
599.527100	196.000000
599.586731	164.666667
599.646362	132.000000
599.705994	172.333333
599.765503	172.666667
599.825134	161.666667
599.884766	182.000000
599.944275	161.000000
600.003845	165.000000
600.063293	162.333333
600.122864	138.000000
600.182312	186.000000
600.241821	167.333333
600.301147	152.666667
600.360657	189.666667
600.420044	158.000000
600.479492	204.000000
600.538879	146.666667
600.598267	168.000000
600.657654	206.000000
600.716919	163.000000
600.776306	179.666667
600.835571	172.000000
600.894958	185.666667
600.954224	147.000000
601.013489	161.333333
601.072754	167.666667
601.131958	172.000000
601.191223	183.333333
601.250366	140.000000
601.309570	181.000000
601.368774	170.000000
601.427917	170.000000
601.487061	146.666667
601.546204	166.666667
601.605347	183.666667
601.664368	197.333333
601.723511	174.333333
601.782532	166.333333
601.841614	176.000000
601.900635	171.000000
601.959656	133.000000
602.018677	162.666667
602.077698	152.666667
602.136658	158.333333
602.195618	190.333333
602.254517	173.000000
602.313477	198.333333
602.372375	182.333333
602.431335	122.000000
602.490173	177.000000
602.549011	160.000000
602.607910	178.000000
602.666748	150.333333
602.725525	181.666667
602.784302	184.000000
602.843079	160.333333
602.901855	164.000000
602.960632	145.666667
603.019409	135.333333
603.078125	138.333333
603.136780	140.333333
603.195496	167.666667
603.254150	150.333333
603.312866	158.333333
603.371521	178.000000
603.430115	167.666667
603.488770	176.000000
603.547363	192.666667
603.605957	181.000000
603.664490	143.000000
603.723083	173.333333
603.781616	163.000000
603.840149	199.333333
603.898621	177.000000
603.957153	147.000000
604.015625	129.333333
604.074036	146.333333
604.132507	178.333333
604.190918	210.000000
604.249390	160.000000
604.307739	184.666667
604.366150	138.666667
604.424500	158.333333
604.482849	178.000000
604.541260	149.666667
604.599548	177.666667
604.657776	178.666667
604.716064	180.333333
604.774414	186.000000
604.832642	136.333333
604.890869	161.666667
604.949158	157.333333
605.007263	153.000000
605.065552	182.333333
605.123657	148.666667
605.181885	138.666667
605.239929	149.666667
605.298157	149.000000
605.356201	159.666667
605.414307	160.333333
605.472351	161.666667
605.530518	170.000000
605.588562	177.333333
605.646606	146.333333
605.704651	162.666667
605.762573	167.666667
605.820618	145.333333
605.878540	143.000000
605.936584	179.666667
605.994507	151.833333
606.052368	124.000000
606.110352	155.333333
606.168213	157.666667
606.226074	121.666667
606.283936	148.333333
606.341797	137.666667
606.399658	130.333333
606.457520	138.666667
606.515259	161.666667
606.572998	177.333333
606.630859	176.000000
606.688538	111.000000
606.746338	149.000000
606.804016	178.000000
606.861755	160.000000
606.919434	140.333333
606.977112	155.000000
607.034790	161.333333
607.092407	142.666667
607.150085	144.666667
607.207642	163.000000
607.265320	190.000000
607.322815	186.000000
607.380432	183.333333
607.437988	175.000000
607.495544	180.666667
607.553040	182.000000
607.610535	179.000000
607.668030	165.000000
607.725464	176.000000
607.782898	142.333333
607.840332	180.666667
607.897766	160.333333
607.955200	148.333333
608.012634	141.333333
608.070007	147.000000
608.127319	151.333333
608.184753	143.666667
608.242004	180.000000
608.299377	150.333333
608.356628	182.666667
608.413940	162.666667
608.471252	152.000000
608.528442	177.666667
608.585693	179.000000
608.642883	176.666667
608.700134	164.000000
608.757263	173.000000
608.814453	151.000000
608.871582	215.666667
608.928711	146.666667
608.985840	151.000000
609.042969	164.333333
609.100098	159.333333
609.157104	145.333333
609.214233	178.333333
609.271240	161.000000
609.328308	138.333333
609.385254	155.333333
609.442322	175.333333
609.499329	167.333333
609.556274	153.333333
609.613220	158.000000
609.670105	127.666667
609.727112	171.333333
609.783936	168.666667
609.840820	136.666667
609.897705	155.000000
609.954590	192.666667
610.011475	157.666667
610.068176	165.333333
610.125061	171.333333
610.181763	170.000000
610.238647	149.666667
610.295288	144.333333
610.352112	178.333333
610.408813	162.666667
610.465576	167.666667
610.522278	184.000000
610.578918	168.000000
610.635620	168.000000
610.692261	192.000000
610.748901	165.333333
610.805481	186.333333
610.862122	152.333333
610.918762	174.000000
610.975281	168.333333
611.031799	147.000000
611.088318	156.666667
611.144897	157.333333
611.201355	140.333333
611.257874	181.333333
611.314331	150.000000
611.370789	193.000000
611.427185	128.666667
611.483704	134.666667
611.540100	188.000000
611.596497	166.000000
611.652893	146.666667
611.709167	197.666667
611.765564	136.000000
611.821899	155.666667
611.878235	169.333333
611.934509	163.000000
611.990784	149.666667
612.047058	150.666667
612.103271	156.000000
612.159546	112.333333
612.215759	161.666667
612.271973	145.666667
612.328186	165.666667
612.384338	146.666667
612.440430	150.333333
612.496643	141.000000
612.552734	154.333333
612.608887	166.333333
612.664917	169.666667
612.721008	136.333333
612.777100	159.333333
612.833069	142.333333
612.889160	150.333333
612.945190	168.000000
613.001160	151.000000
613.057129	152.666667
613.113037	136.666667
613.169067	156.000000
613.224976	179.000000
613.280945	187.000000
613.336792	150.666667
613.392639	137.666667
613.448547	158.000000
613.504395	143.333333
613.560303	177.000000
613.616028	183.333333
613.671875	148.333333
613.727661	140.333333
613.783447	178.000000
613.839172	169.666667
613.894897	168.333333
613.950623	154.333333
614.006348	162.000000
614.062073	159.666667
614.117676	153.666667
614.173401	143.666667
614.229004	146.333333
614.284668	172.000000
614.340332	193.000000
614.395874	136.666667
614.451477	144.000000
614.507019	140.666667
614.562622	133.000000
614.618042	180.333333
614.673584	192.000000
614.729065	187.666667
614.784546	195.666667
614.840027	161.666667
614.895508	146.000000
614.950989	157.000000
615.006348	155.000000
615.061768	181.666667
615.117126	155.000000
615.172546	150.666667
615.227844	138.000000
615.283203	112.333333
615.338562	175.000000
615.393799	139.333333
615.449219	159.666667
615.504456	166.666667
615.559753	160.333333
615.614868	148.666667
615.670166	152.333333
615.725403	163.333333
615.780579	129.333333
615.835754	168.666667
615.890869	183.000000
615.946045	143.000000
616.001160	183.666667
616.056274	163.333333
616.111328	159.333333
616.166504	176.333333
616.221497	137.000000
616.276611	141.333333
616.331665	133.666667
616.386597	160.000000
616.441650	184.000000
616.496582	182.333333
616.551575	181.333333
616.606506	184.333333
616.661438	146.333333
616.716431	130.666667
616.771301	135.333333
616.826233	156.000000
616.881042	182.000000
616.935913	138.000000
616.990723	151.000000
617.045593	200.000000
617.100342	183.333333
617.155212	154.666667
617.209900	155.333333
617.264709	175.333333
617.319458	141.333333
617.374146	171.000000
617.428955	163.333333
617.483582	127.666667
617.538269	168.333333
617.592896	150.666667
617.647583	185.000000
617.702209	190.333333
617.756836	138.333333
617.811462	195.333333
617.866028	151.666667
617.920593	185.000000
617.975098	171.333333
618.029663	146.000000
618.084229	154.333333
618.138672	156.333333
618.193176	159.333333
618.247620	176.333333
618.302124	212.333333
618.356506	136.666667
618.410950	142.333333
618.465332	155.666667
618.519714	169.000000
618.574036	168.000000
618.628418	154.333333
618.682800	145.333333
618.737061	161.000000
618.791443	151.666667
618.845703	168.333333
618.899963	192.333333
618.954224	178.000000
619.008484	175.333333
619.062744	213.666667
619.116943	177.000000
619.171143	172.333333
619.225281	192.666667
619.279480	185.666667
619.333557	165.333333
619.387756	155.000000
619.441833	214.333333
619.495911	183.666667
619.549927	215.666667
619.604065	175.666667
619.658142	181.666667
619.712158	186.000000
619.766174	162.000000
619.820129	223.000000
619.874146	170.000000
619.928101	194.666667
619.982056	191.000000
620.036011	174.666667
620.089905	223.000000
620.143860	208.000000
620.197693	168.666667
620.251587	209.666667
620.305359	176.000000
620.359253	210.666667
620.413025	186.000000
620.466858	178.333333
620.520630	194.666667
620.574402	213.333333
620.628174	138.333333
620.681885	177.333333
620.735657	179.000000
620.789307	161.000000
620.843018	148.333333
620.896667	176.000000
620.950378	196.000000
621.004028	181.000000
621.057617	187.666667
621.111206	187.000000
621.164795	136.333333
621.218445	180.333333
621.271912	216.000000
621.325500	166.666667
621.379028	185.000000
621.432556	174.333333
621.486084	165.666667
621.539490	181.666667
621.592957	168.666667
621.646423	122.666667
621.699890	207.666667
621.753235	173.000000
621.806641	171.666667
621.859985	167.000000
621.913391	141.333333
621.966736	151.000000
622.020020	139.333333
622.073364	146.666667
622.126648	156.666667
622.179932	183.000000
622.233215	171.333333
622.286438	146.000000
622.339722	173.666667
622.392883	157.666667
622.446167	188.000000
622.499268	103.333333
622.552429	157.000000
622.605591	154.000000
622.658691	169.333333
622.711853	141.000000
622.764954	120.000000
622.818054	180.666667
622.871094	171.000000
622.924133	143.333333
622.977173	183.333333
623.030212	136.333333
623.083191	160.666667
623.136169	162.333333
623.189148	155.333333
623.242126	117.000000
623.295105	130.666667
623.347961	106.000000
623.400940	151.666667
623.453735	130.333333
623.506653	145.666667
623.559448	176.666667
623.612366	133.666667
623.665222	165.333333
623.717957	119.666667
623.770813	145.666667
623.823547	143.666667
623.876282	155.000000
623.928955	172.333333
623.981750	166.333333
624.034424	159.666667
624.087097	153.000000
624.139771	148.333333
624.192505	120.333333
624.245117	115.666667
624.297668	134.000000
624.350342	140.000000
624.402893	129.333333
624.455505	133.333333
624.508057	146.333333
624.560608	126.333333
624.613159	164.000000
624.665649	164.000000
624.718140	120.000000
624.770630	115.666667
624.823120	146.666667
624.875488	129.333333
624.927917	124.333333
624.980347	98.666667
625.032776	135.666667
625.085083	144.333333
625.137512	141.666667
625.189819	146.333333
625.242187	122.333333
625.294495	179.000000
625.346741	156.333333
625.398987	123.000000
625.451294	173.333333
625.503540	146.000000
625.555786	116.666667
625.607971	130.333333
625.660217	153.333333
625.712341	152.000000
625.764587	147.000000
625.816650	134.000000
625.868774	146.000000
625.920898	160.000000
625.972961	169.000000
626.025085	145.666667
626.077148	169.666667
626.129211	129.000000
626.181213	165.333333
626.233276	153.000000
626.285217	151.333333
626.337219	156.333333
626.389160	124.333333
626.441101	127.666667
626.493103	147.000000
626.544983	136.333333
626.596863	161.333333
626.648743	110.000000
626.700623	122.666667
626.752441	158.000000
626.804321	140.333333
626.856140	131.666667
626.907959	152.333333
626.959717	138.333333
627.011475	123.666667
627.063232	168.000000
627.114929	150.000000
627.166687	152.000000
627.218323	134.666667
627.270020	123.000000
627.321716	134.000000
627.373413	172.333333
627.425049	177.333333
627.476624	160.666667
627.528259	161.666667
627.579773	134.000000
627.631348	180.333333
627.682922	149.000000
627.734497	152.666667
627.786011	170.000000
627.837463	126.666667
627.888977	144.333333
627.940430	184.666667
627.991882	137.333333
628.043274	175.333333
628.094788	139.000000
628.146118	121.666667
628.197510	143.333333
628.248840	163.333333
628.300232	119.333333
628.351624	136.333333
628.402893	147.333333
628.454224	101.000000
628.505493	100.000000
628.556763	157.333333
628.607971	135.666667
628.659241	136.333333
628.710449	133.666667
628.761658	138.000000
628.812866	149.666667
628.863953	135.666667
628.915161	145.333333
628.966248	142.666667
629.017395	137.333333
629.068542	131.000000
629.119568	151.666667
629.170654	131.333333
629.221680	170.000000
629.272766	146.000000
629.323730	139.666667
629.374756	156.000000
629.425720	111.333333
629.476685	161.333333
629.527649	162.333333
629.578552	131.333333
629.629578	129.333333
629.680420	152.333333
629.731323	129.666667
629.782166	178.666667
629.833008	130.666667
629.883789	154.666667
629.934692	133.000000
629.985535	147.000000
630.036255	105.666667
630.087097	170.666667
630.137817	155.333333
630.188538	125.333333
630.239197	157.333333
630.289978	130.333333
630.340576	116.666667
630.391296	154.666667
630.441956	132.666667
630.492554	122.333333
630.543213	141.666667
630.593811	146.000000
630.644409	148.000000
630.694885	123.000000
630.745483	111.000000
630.796021	151.000000
630.846558	160.666667
630.897095	141.000000
630.947571	118.666667
630.997986	134.000000
631.048401	156.000000
631.098877	116.666667
631.149292	166.666667
631.199707	114.000000
631.250122	137.333333
631.300415	150.666667
631.350769	147.666667
631.401123	174.666667
631.451416	131.666667
631.501770	157.666667
631.552063	128.666667
631.602295	107.333333
631.652527	136.000000
631.702759	135.666667
631.752991	113.333333
631.803223	121.666667
631.853394	130.000000
631.903564	122.666667
631.953674	142.666667
632.003845	158.333333
632.053894	144.666667
632.104004	123.666667
632.154114	88.666667
632.204163	168.333333
632.254211	141.000000
632.304199	120.333333
632.354309	131.000000
632.404236	139.666667
632.454285	123.333333
632.504211	119.000000
632.554138	140.000000
632.604065	141.666667
632.653992	141.000000
632.703857	120.000000
632.753723	156.666667
632.803650	101.333333
632.853455	149.666667
632.903320	138.666667
632.953064	117.333333
633.002930	137.000000
633.052734	124.666667
633.102417	133.333333
633.152222	143.666667
633.201904	124.666667
633.251648	171.333333
633.301331	165.333333
633.351013	135.666667
633.400635	126.666667
633.450317	124.333333
633.499939	138.333333
633.549561	107.333333
633.599182	116.333333
633.648743	102.666667
633.698303	110.000000
633.747864	118.333333
633.797363	134.333333
633.846802	107.333333
633.896362	124.000000
633.945862	117.333333
633.995300	127.666667
634.044739	123.000000
634.094116	141.000000
634.143555	168.333333
634.192932	109.000000
634.242310	149.666667
634.291748	87.000000
634.341003	133.666667
634.390381	125.333333
634.439636	143.333333
634.488953	115.000000
634.538208	130.666667
634.587463	141.666667
634.636658	127.666667
634.685974	116.333333
634.735107	178.000000
634.784302	167.000000
634.833496	123.666667
634.882629	106.666667
634.931824	98.333333
634.980896	107.333333
635.030029	154.000000
635.079102	127.333333
635.128174	129.333333
635.177246	130.666667
635.226196	142.333333
635.275269	139.000000
635.324219	96.333333
635.373291	147.666667
635.422180	119.000000
635.471130	159.333333
635.520081	138.000000
635.569031	123.000000
635.617920	129.000000
635.666809	131.333333
635.715698	119.000000
635.764526	140.666667
635.813354	140.000000
635.862122	107.666667
635.910950	121.666667
635.959717	109.666667
636.008484	97.666667
636.057251	111.333333
636.105957	106.333333
636.154724	98.666667
636.203430	121.666667
636.252075	155.666667
636.300720	114.666667
636.349365	137.333333
636.398010	134.666667
636.446594	137.000000
636.495178	119.000000
636.543823	116.666667
636.592407	127.333333
636.640869	95.000000
636.689453	108.666667
636.737915	109.666667
636.786438	115.666667
636.834839	77.333333
636.883362	123.000000
636.931824	145.000000
636.980164	118.000000
637.028687	124.666667
637.077026	117.000000
637.125427	88.666667
637.173706	129.000000
637.222107	124.666667
637.270447	102.666667
637.318665	109.666667
637.366943	109.000000
637.415283	148.000000
637.463501	114.666667
637.511719	150.000000
637.559937	120.666667
637.608215	110.333333
637.656372	112.000000
637.704468	133.000000
637.752686	87.666667
637.800842	123.333333
637.848938	117.000000
637.897034	122.333333
637.945129	135.666667
637.993225	88.333333
638.041260	85.000000
638.089233	125.333333
638.137329	101.000000
638.185303	129.000000
638.233276	96.666667
638.281250	105.333333
638.329163	127.666667
638.377075	73.000000
638.425049	118.000000
638.472961	105.000000
638.520813	140.666667
638.568604	130.666667
638.616455	123.666667
638.664307	135.333333
638.712097	100.333333
638.759949	152.000000
638.807678	118.333333
638.855469	103.666667
638.903198	101.666667
638.950867	137.666667
638.998657	92.000000
639.046265	115.666667
639.094055	114.333333
639.141663	122.666667
639.189270	133.000000
639.236877	154.333333
639.284485	95.666667
639.332153	96.666667
639.379639	153.666667
639.427185	113.333333
639.474731	129.000000
639.522278	141.000000
639.569763	132.000000
639.617249	123.666667
639.664734	120.333333
639.712158	91.000000
639.759583	110.000000
639.807007	111.333333
639.854431	84.666667
639.901855	76.333333
639.949219	102.000000
639.996521	120.333333
640.043884	112.000000
640.091187	111.666667
640.138489	92.333333
640.185730	108.333333
640.232971	69.000000
640.280212	115.000000
640.327454	136.666667
640.374695	108.000000
640.421814	128.333333
640.469055	88.666667
640.516235	129.333333
640.563354	103.666667
640.610474	99.000000
640.657593	144.333333
640.704712	132.333333
640.751770	111.333333
640.798828	113.333333
640.845825	126.666667
640.892822	108.666667
640.939819	118.666667
640.986877	121.666667
641.033813	98.666667
641.080750	102.666667
641.127686	121.333333
641.174622	144.333333
641.221558	120.000000
641.268372	108.333333
641.315247	148.333333
641.362183	120.000000
641.408997	98.666667
641.455750	106.333333
641.502502	126.333333
641.549316	121.666667
641.596069	112.333333
641.642883	150.000000
641.689514	110.666667
641.736328	85.666667
641.782959	100.666667
641.829651	96.000000
641.876343	122.666667
641.922913	113.000000
641.969604	109.666667
642.016174	105.333333
642.062805	119.666667
642.109314	129.000000
642.155945	84.666667
642.202515	87.333333
642.249023	149.666667
642.295410	130.000000
642.341980	104.333333
642.388428	125.666667
642.434875	108.000000
642.481262	122.333333
642.527771	120.666667
642.574097	94.000000
642.620483	130.333333
642.666870	136.666667
642.713257	80.666667
642.759583	107.666667
642.805908	141.000000
642.852173	139.000000
642.898437	122.666667
642.944641	130.000000
642.990967	99.333333
643.037170	119.000000
643.083374	95.666667
643.129578	88.333333
643.175720	134.333333
643.221924	106.000000
643.268005	136.333333
643.314209	104.333333
643.360352	116.000000
643.406372	124.333333
643.452393	87.000000
643.498474	100.333333
643.544556	96.666667
643.590515	130.333333
643.636536	124.333333
643.682556	137.000000
643.728516	105.666667
643.774414	127.666667
643.820374	144.000000
643.866333	111.333333
643.912170	134.666667
643.958069	121.333333
644.003906	174.000000
644.049805	93.333333
644.095581	96.666667
644.141418	137.333333
644.187256	150.333333
644.232971	103.333333
644.278687	113.666667
644.324463	132.333333
644.370239	109.666667
644.415894	100.333333
644.461670	108.333333
644.507324	106.000000
644.552917	98.000000
644.598511	111.000000
644.644226	92.333333
644.689819	99.333333
644.735413	113.000000
644.781006	93.000000
644.826416	138.666667
644.872009	140.666667
644.917542	92.666667
644.963074	131.000000
645.008545	141.000000
645.054016	102.333333
645.099426	67.000000
645.144897	125.666667
645.190308	76.000000
645.235657	104.333333
645.281006	71.333333
645.326416	125.000000
645.371704	129.333333
645.416992	93.000000
645.462341	87.000000
645.507690	122.666667
645.552856	90.666667
645.598206	106.333333
645.643433	96.000000
645.688599	112.333333
645.733826	101.666667
645.778992	107.000000
645.824219	87.000000
645.869324	120.666667
645.914490	78.000000
645.959595	130.000000
646.004700	156.666667
646.049744	116.666667
646.094788	127.000000
646.139893	139.666667
646.184875	100.666667
646.229919	97.666667
646.274902	140.000000
646.319885	98.000000
646.364807	107.333333
646.409729	105.333333
646.454712	128.333333
646.499573	113.000000
646.544434	128.666667
646.589355	105.666667
646.634216	95.666667
646.679016	98.000000
646.723877	121.666667
646.768616	90.666667
646.813416	153.000000
646.858154	113.333333
646.902954	131.333333
646.947693	128.000000
646.992371	117.666667
647.036987	87.000000
647.081787	75.333333
647.126465	97.333333
647.171021	74.333333
647.215698	100.333333
647.260315	80.666667
647.304871	109.666667
647.349426	125.333333
647.393982	84.333333
647.438538	130.000000
647.483093	93.333333
647.527588	104.333333
647.571960	94.333333
647.616516	94.333333
647.660950	110.333333
647.705383	85.666667
647.749878	88.666667
647.794189	71.333333
647.838623	106.666667
647.882874	95.000000
647.927246	132.666667
647.971558	99.333333
648.015930	106.000000
648.060242	113.000000
648.104492	96.000000
648.148682	115.666667
648.192993	112.666667
648.237183	98.333333
648.281372	104.333333
648.325623	144.666667
648.369751	119.333333
648.413940	132.666667
648.458008	118.333333
648.502197	110.333333
648.546265	101.333333
648.590332	110.000000
648.634399	122.333333
648.678406	89.000000
648.722473	126.000000
648.766418	123.333333
648.810486	102.000000
648.854492	114.000000
648.898376	87.666667
648.942261	85.666667
648.986206	100.666667
649.030151	106.000000
649.074036	101.666667
649.117920	121.333333
649.161804	93.333333
649.205627	140.000000
649.249390	143.666667
649.293213	125.000000
649.337036	118.666667
649.380798	92.000000
649.424500	127.333333
649.468201	96.000000
649.511963	67.666667
649.555603	128.000000
649.599304	103.000000
649.643005	84.666667
649.686584	128.333333
649.730286	117.333333
649.773865	92.666667
649.817444	89.000000
649.860962	112.000000
649.904541	77.333333
649.948120	137.666667
649.991577	94.666667
650.035034	111.666667
650.078552	93.000000
650.122070	100.333333
650.165466	106.000000
650.208923	108.000000
650.252258	108.000000
650.295715	87.000000
650.339050	114.666667
650.382446	71.333333
650.425781	133.000000
650.469116	85.333333
650.512390	94.333333
650.555664	88.000000
650.598999	98.666667
650.642212	108.000000
650.685425	114.000000
650.728699	88.333333
650.771851	92.333333
650.815002	112.333333
650.858215	105.000000
650.901306	106.333333
