528.748901	20.333333
528.823547	-13.333333
528.898132	-14.666667
528.972717	-13.666667
529.047241	-12.333333
529.121826	8.000000
529.196350	-6.333333
529.270935	9.000000
529.345398	-5.666667
529.419922	-5.333333
529.494446	-8.333333
529.568909	8.666667
529.643433	1.000000
529.717834	-16.333333
529.792297	-13.000000
529.866699	-28.000000
529.941162	-14.000000
530.015503	-31.333333
530.089905	-22.333333
530.164307	-10.000000
530.238647	-10.000000
530.313049	-4.333333
530.387329	-7.333333
530.461670	15.333333
530.535950	6.000000
530.610291	10.666667
530.684631	-17.000000
530.758850	-16.666667
530.833130	-2.000000
530.907349	5.333333
530.981628	19.666667
531.055786	35.000000
531.130066	4.000000
531.204224	-5.000000
531.278381	-5.000000
531.352600	10.000000
531.426697	12.333333
531.500916	-9.000000
531.575012	1.666667
531.649109	45.666667
531.723206	21.000000
531.797302	104.000000
531.871338	282.000000
531.945435	985.333333
532.019470	2331.333333
532.093506	2926.000000
532.167542	1778.333333
532.241516	278.666667
532.315552	32.333333
532.389465	25.333333
532.463501	-28.000000
532.537415	1.666667
532.611389	7.666667
532.685364	8.333333
532.759216	-18.000000
532.833191	-13.333333
532.907043	29.333333
532.980957	0.666667
533.054749	-32.666667
533.128662	5.333333
533.202454	-19.666667
533.276306	-12.666667
533.350159	14.000000
533.423889	1.666667
533.497681	-30.333333
533.571411	-25.666667
533.645203	-15.333333
533.718933	-0.666667
533.792725	-2.333333
533.866394	4.000000
533.940125	11.000000
534.013855	-16.333333
534.087524	-50.000000
534.161255	2.666667
534.234802	-9.000000
534.308472	-4.333333
534.382080	9.666667
534.455688	21.666667
534.529358	-13.000000
534.602905	13.333333
534.676514	-4.000000
534.750061	12.000000
534.823608	13.000000
534.897095	4.000000
534.970642	-32.000000
535.044128	0.666667
535.117676	-9.666667
535.191162	9.666667
535.264587	-22.333333
535.338135	28.333333
535.411438	-22.000000
535.484924	16.666667
535.558289	7.000000
535.631775	38.666667
535.705139	6.666667
535.778564	20.333333
535.851868	22.666667
535.925171	83.666667
535.998596	127.000000
536.071899	131.333333
536.145203	195.333333
536.218506	204.333333
536.291748	201.666667
536.364990	233.666667
536.438293	241.000000
536.511597	264.000000
536.584778	231.333333
536.657959	249.666667
536.731140	229.666667
536.804382	269.666667
536.877563	195.666667
536.950684	266.000000
537.023804	222.333333
537.096985	228.333333
537.170166	234.000000
537.243286	234.000000
537.316345	240.666667
537.389404	256.000000
537.462524	186.666667
537.535583	219.000000
537.608582	259.333333
537.681580	260.666667
537.754639	231.000000
537.827637	228.666667
537.900635	204.333333
537.973633	257.000000
538.046570	232.666667
538.119507	239.666667
538.192444	224.333333
538.265442	227.333333
538.338257	255.666667
538.411194	230.333333
538.484131	215.333333
538.556946	236.333333
538.629822	215.333333
538.702637	256.000000
538.775452	224.666667
538.848267	221.666667
538.921143	206.333333
538.993896	248.666667
539.066650	262.000000
539.139465	250.333333
539.212158	213.333333
539.284973	242.000000
539.357605	278.000000
539.430359	260.666667
539.503052	232.333333
539.575745	228.666667
539.648437	242.666667
539.721008	232.666667
539.793701	217.333333
539.866333	223.333333
539.938965	251.333333
540.011536	250.000000
540.084167	236.000000
540.156738	241.333333
540.229248	234.333333
540.301880	257.333333
540.374329	273.666667
540.446899	223.666667
540.519348	210.333333
540.591919	254.000000
540.664368	259.666667
540.736877	263.333333
540.809326	281.333333
540.881775	290.666667
540.954224	287.666667
541.026611	325.333333
541.098999	247.000000
541.171387	308.000000
541.243774	296.666667
541.316101	397.666667
541.388428	363.333333
541.460815	342.666667
541.533081	332.000000
541.605469	322.000000
541.677734	251.333333
541.750000	265.333333
541.822266	311.666667
541.894531	304.666667
541.966736	257.000000
542.039001	240.000000
542.111206	259.666667
542.183411	301.666667
542.255615	272.000000
542.327759	275.666667
542.399963	277.333333
542.472046	277.666667
542.544250	281.000000
542.616333	272.000000
542.688416	257.000000
542.760559	285.666667
542.832581	278.666667
542.904663	290.000000
542.976746	266.000000
543.048767	316.000000
543.120789	270.333333
543.192810	248.000000
543.264771	272.000000
543.336792	310.666667
543.408752	273.666667
543.480652	298.000000
543.552673	277.666667
543.624573	295.666667
543.696533	258.333333
543.768372	272.000000
543.840332	268.666667
543.912170	298.000000
543.984009	238.333333
544.055908	276.333333
544.127686	263.333333
544.199524	298.000000
544.271362	276.000000
544.343201	300.000000
544.414917	242.000000
544.486694	301.000000
544.558411	290.333333
544.630188	290.666667
544.701904	270.333333
544.773682	290.666667
544.845398	301.333333
544.916992	278.333333
544.988708	295.666667
545.060364	254.666667
545.132019	275.000000
545.203674	328.666667
545.275269	271.000000
545.346863	267.000000
545.418457	303.666667
545.490051	281.000000
545.561584	257.666667
545.633118	278.333333
545.704651	278.666667
545.776184	266.333333
545.847656	261.666667
545.919189	318.000000
545.990723	260.666667
546.062134	263.666667
546.133667	276.333333
546.205078	300.666667
546.276489	278.000000
546.347900	251.000000
546.419312	258.666667
546.490784	256.000000
546.562134	226.333333
546.633423	210.000000
546.704773	242.000000
546.776123	221.666667
546.847412	214.333333
546.918762	186.000000
546.990051	181.000000
547.061279	200.666667
547.132568	179.333333
547.203796	216.666667
547.275085	175.666667
547.346313	194.000000
547.417480	146.000000
547.488647	204.666667
547.559875	174.333333
547.631042	175.333333
547.702271	186.333333
547.773376	201.333333
547.844482	168.333333
547.915649	190.000000
547.986694	160.666667
548.057800	181.333333
548.128845	202.666667
548.199890	170.000000
548.270935	156.666667
548.342041	142.000000
548.413025	187.000000
548.484070	154.666667
548.555054	176.666667
548.625977	193.666667
548.697021	144.666667
548.767883	168.333333
548.838867	169.666667
548.909790	172.666667
548.980713	130.666667
549.051636	155.000000
549.122498	145.666667
549.193420	168.666667
549.264160	162.333333
549.335083	174.333333
549.405823	143.000000
549.476746	197.000000
549.547546	150.000000
549.618286	179.000000
549.689087	168.000000
549.759827	196.666667
549.830566	152.000000
549.901245	122.666667
549.972046	146.333333
550.042725	142.000000
550.113464	144.666667
550.184143	154.000000
550.254761	130.000000
550.325439	140.333333
550.396057	184.666667
550.466675	139.333333
550.537292	153.666667
550.607910	163.333333
550.678406	161.666667
550.749084	148.000000
550.819641	138.000000
550.890137	136.000000
550.960693	93.000000
551.031189	130.000000
551.101685	149.666667
551.172119	130.000000
551.242615	138.333333
551.313110	142.666667
551.383545	95.666667
551.453979	120.666667
551.524353	146.333333
551.594788	139.333333
551.665161	157.333333
551.735596	141.666667
551.805908	124.666667
551.876282	139.000000
551.946594	118.666667
552.016907	134.000000
552.087280	112.000000
552.157532	142.666667
552.227783	101.666667
552.298035	163.666667
552.368347	138.666667
552.438538	168.333333
552.508789	133.666667
552.579041	121.333333
552.649170	128.333333
552.719360	149.666667
552.789551	103.666667
552.859741	123.000000
552.929810	140.333333
553.000000	161.666667
553.070068	141.000000
553.140198	121.666667
553.210266	120.000000
553.280334	114.000000
553.350403	104.000000
553.420410	105.666667
553.490479	125.000000
553.560486	143.333333
553.630493	153.666667
553.700439	130.666667
553.770447	122.333333
553.840454	106.333333
553.910339	115.333333
553.980286	136.666667
554.050232	146.000000
554.120178	111.333333
554.190002	140.000000
554.259888	153.333333
554.329773	115.000000
554.399597	150.666667
554.469482	164.000000
554.539307	150.000000
554.609070	137.333333
554.678894	172.000000
554.748657	125.666667
554.818420	145.666667
554.888184	95.000000
554.957886	140.333333
555.027649	149.000000
555.097412	142.666667
555.167053	121.333333
555.236755	178.333333
555.306458	161.666667
555.376099	144.666667
555.445679	158.000000
555.515381	143.000000
555.584900	140.333333
555.654602	150.000000
555.724182	172.666667
555.793701	136.000000
555.863281	135.666667
555.932800	142.000000
556.002380	168.000000
556.071838	140.333333
556.141357	123.333333
556.210815	114.666667
556.280334	123.666667
556.349854	175.666667
556.419250	134.333333
556.488770	142.000000
556.558105	146.666667
556.627563	164.333333
556.696899	146.333333
556.766296	142.666667
556.835632	131.000000
556.905029	132.666667
556.974365	129.000000
557.043640	156.666667
557.112976	126.333333
557.182251	120.000000
557.251526	156.333333
557.320801	148.333333
557.390076	115.000000
557.459351	124.666667
557.528503	93.333333
557.597778	148.666667
557.666931	86.000000
557.736145	153.333333
557.805237	142.000000
557.874451	115.666667
557.943542	131.000000
558.012695	141.666667
558.081848	121.666667
558.150940	139.333333
558.220093	133.000000
558.289124	138.666667
558.358154	127.333333
558.427185	131.666667
558.496216	156.333333
558.565247	169.666667
558.634277	137.000000
558.703247	142.333333
558.772217	116.333333
558.841187	162.000000
558.910095	119.666667
558.979065	163.666667
559.047974	112.333333
559.116882	133.000000
559.185730	102.666667
559.254639	167.333333
559.323486	89.333333
559.392334	147.666667
559.461243	126.333333
559.529968	147.000000
559.598816	148.666667
559.667542	134.333333
559.736389	120.000000
559.805115	141.666667
559.873901	108.666667
559.942627	150.000000
560.011353	140.333333
560.080078	116.333333
560.148743	138.666667
560.217407	136.666667
560.286011	134.666667
560.354736	141.000000
560.423340	134.666667
560.491943	146.000000
560.560669	163.000000
560.629150	150.666667
560.697754	175.000000
560.766357	179.666667
560.834900	157.666667
560.903381	167.666667
560.971924	154.333333
561.040527	153.000000
561.108948	133.000000
561.177490	192.666667
561.245911	156.333333
561.314392	154.333333
561.382751	153.666667
561.451233	173.333333
561.519653	177.333333
561.588074	159.666667
561.656494	156.000000
561.724792	189.666667
561.793213	211.666667
561.861511	165.666667
561.929871	143.333333
561.998169	172.000000
562.066467	164.000000
562.134705	218.000000
562.202942	164.333333
562.271240	188.000000
562.339478	156.333333
562.407715	214.000000
562.475952	168.666667
562.544189	176.000000
562.612305	180.666667
562.680481	159.000000
562.748657	176.000000
562.816772	188.666667
562.884949	213.666667
562.953003	187.000000
563.021179	177.000000
563.089233	203.333333
563.157288	190.666667
563.225342	217.666667
563.293457	194.666667
563.361389	165.000000
563.429443	177.666667
563.497437	197.666667
563.565430	191.000000
563.633484	213.333333
563.701355	169.000000
563.769348	207.333333
563.837219	198.333333
563.905212	209.666667
563.973083	216.666667
564.040955	205.000000
564.108887	221.333333
564.176697	189.666667
564.244568	199.333333
564.312378	184.000000
564.380188	217.333333
564.447998	198.333333
564.515808	191.000000
564.583557	213.666667
564.651306	215.666667
564.719116	209.333333
564.786804	205.333333
564.854553	217.000000
564.922180	180.666667
564.989990	216.333333
565.057617	179.333333
565.125305	125.666667
565.192932	179.333333
565.260559	191.666667
565.328186	114.333333
565.395752	184.000000
565.463379	158.666667
565.530884	150.000000
565.598511	203.000000
565.666016	197.000000
565.733582	165.666667
565.801147	188.666667
565.868591	149.000000
565.936157	159.000000
566.003601	159.666667
566.071106	165.666667
566.138428	177.333333
566.205933	157.000000
566.273315	156.333333
566.340759	168.000000
566.408203	183.333333
566.475464	159.666667
566.542908	139.666667
566.610229	153.666667
566.677551	145.000000
566.744873	165.666667
566.812195	127.333333
566.879517	132.000000
566.946777	135.000000
567.014099	186.333333
567.081238	163.000000
567.148560	157.666667
567.215698	177.666667
567.282959	167.666667
567.350098	126.000000
567.417358	166.666667
567.484436	165.666667
567.551575	144.000000
567.618774	179.666667
567.685852	109.333333
567.752991	142.000000
567.820068	161.333333
567.887146	124.333333
567.954224	157.333333
568.021301	161.666667
568.088318	185.666667
568.155273	140.666667
568.222351	174.666667
568.289307	145.666667
568.356323	137.666667
568.423218	143.333333
568.490173	193.000000
568.557068	152.333333
568.624023	152.000000
568.690979	167.333333
568.757812	156.000000
568.824707	129.000000
568.891541	149.000000
568.958435	153.333333
569.025208	144.000000
569.092102	159.666667
569.158875	182.333333
569.225708	159.333333
569.292480	172.333333
569.359253	139.666667
569.426025	165.333333
569.492737	127.000000
569.559448	171.333333
569.626099	152.666667
569.692871	179.000000
569.759583	136.666667
569.826172	157.000000
569.892822	188.000000
569.959473	140.000000
570.026062	166.000000
570.092651	180.000000
570.159241	111.666667
570.225830	163.000000
570.292419	137.666667
570.358887	133.000000
570.425476	167.333333
570.492004	117.000000
570.558533	136.666667
570.625000	135.000000
570.691406	130.000000
570.757935	168.000000
570.824341	160.666667
570.890808	186.000000
570.957275	161.333333
571.023621	177.000000
571.090027	158.000000
571.156372	180.666667
571.222778	146.000000
571.289062	205.666667
571.355408	141.000000
571.421753	182.666667
571.488037	159.666667
571.554382	182.000000
571.620605	211.000000
571.686890	183.666667
571.753052	168.333333
571.819336	213.333333
571.885498	183.666667
571.951721	226.666667
572.017883	225.666667
572.084106	223.666667
572.150269	199.666667
572.216431	255.333333
572.282593	231.000000
572.348633	202.666667
572.414734	253.333333
572.480774	277.000000
572.546936	228.666667
572.612976	268.666667
572.678955	235.666667
572.745056	257.000000
572.811035	231.666667
572.877075	250.666667
572.942993	242.666667
573.009033	247.666667
573.074890	233.000000
573.140869	265.333333
573.206726	243.666667
573.272705	241.666667
573.338684	220.000000
573.404480	228.333333
573.470337	219.666667
573.536194	248.666667
573.602051	231.000000
573.667908	199.000000
573.733704	167.333333
573.799500	217.666667
573.865295	150.666667
573.931091	204.000000
573.996765	160.000000
574.062500	198.666667
574.128235	162.000000
574.193970	186.333333
574.259644	181.666667
574.325317	165.666667
574.390930	162.333333
574.456604	179.333333
574.522278	153.666667
574.587891	164.000000
574.653503	170.000000
574.719055	188.666667
574.784668	161.333333
574.850220	160.666667
574.915771	146.666667
574.981323	145.333333
575.046814	128.000000
575.112366	144.000000
575.177856	126.000000
575.243347	164.000000
575.308716	130.333333
575.374207	172.666667
575.439636	174.333333
575.505066	149.333333
575.570496	161.333333
575.635864	148.333333
575.701233	128.333333
575.766602	193.666667
575.831970	134.000000
575.897217	156.333333
575.962646	164.666667
576.027832	186.333333
576.093201	139.333333
576.158447	154.333333
576.223755	147.333333
576.289001	177.333333
576.354126	124.666667
576.419434	152.000000
576.484558	134.666667
576.549744	155.333333
576.614990	139.333333
576.680115	170.000000
576.745239	176.333333
576.810364	166.666667
576.875488	145.000000
576.940552	139.666667
577.005676	148.000000
577.070740	149.333333
577.135803	141.666667
577.200806	158.333333
577.265869	150.333333
577.330872	167.333333
577.395874	107.000000
577.460876	153.000000
577.525818	122.333333
577.590698	163.666667
577.655640	115.666667
577.720581	126.000000
577.785522	117.000000
577.850403	184.000000
577.915283	123.333333
577.980103	160.000000
578.044983	120.666667
578.109802	140.666667
578.174622	147.000000
578.239441	162.000000
578.304199	149.666667
578.369019	160.000000
578.433777	164.000000
578.498535	173.666667
578.563232	143.333333
578.627930	155.666667
578.692627	160.333333
578.757324	173.666667
578.821960	148.000000
578.886658	172.666667
578.951355	143.000000
579.015930	198.000000
579.080566	178.000000
579.145142	192.333333
579.209717	178.000000
579.274292	178.333333
579.338867	174.000000
579.403381	176.333333
579.467957	135.333333
579.532471	194.000000
579.596924	164.333333
579.661438	165.333333
579.725891	195.666667
579.790344	170.333333
579.854736	169.333333
579.919189	209.333333
579.983521	244.000000
580.047974	212.333333
580.112366	210.000000
580.176697	250.333333
580.241089	194.333333
580.305359	256.333333
580.369690	220.000000
580.434021	212.000000
580.498352	222.666667
580.562622	247.333333
580.626831	265.333333
580.691101	231.000000
580.755310	222.333333
580.819519	233.000000
580.883728	197.000000
580.947876	223.333333
581.012085	191.333333
581.076233	226.666667
581.140442	192.333333
581.204529	205.333333
581.268616	231.333333
581.332703	183.000000
581.396851	223.666667
581.460815	187.666667
581.524902	192.666667
581.588989	209.666667
581.653015	186.666667
581.717041	200.333333
581.781006	189.000000
581.844971	181.000000
581.908936	149.000000
581.972900	194.000000
582.036804	160.000000
582.100769	157.666667
582.164612	189.666667
582.228516	171.000000
582.292419	159.333333
582.356262	135.000000
582.420166	153.666667
582.483948	161.000000
582.547791	177.000000
582.611572	169.333333
582.675415	144.000000
582.739075	150.000000
582.802917	157.000000
582.866638	163.000000
582.930359	153.666667
582.994141	182.666667
583.057739	127.000000
583.121460	133.666667
583.185059	138.666667
583.248779	153.666667
583.312439	112.000000
583.376038	153.666667
583.439697	151.000000
583.503235	155.333333
583.566833	151.666667
583.630371	137.000000
583.693970	106.333333
583.757446	148.000000
583.820984	152.000000
583.884460	173.666667
583.947937	130.000000
584.011475	159.666667
584.074951	154.333333
584.138367	141.000000
584.201782	145.666667
584.265259	131.666667
584.328552	123.000000
584.391968	153.666667
584.455383	153.333333
584.518677	160.000000
584.582092	133.333333
584.645386	132.000000
584.708679	171.000000
584.771973	128.333333
584.835266	134.000000
584.898560	185.333333
584.961792	114.000000
585.025085	160.666667
585.088196	129.666667
585.151489	155.000000
585.214600	125.000000
585.277832	139.333333
585.340942	122.666667
585.404175	117.666667
585.467224	145.333333
585.530334	136.333333
585.593506	124.000000
585.656555	161.333333
585.719666	111.333333
585.782715	159.333333
585.845764	135.666667
585.908752	177.666667
585.971802	151.000000
586.034790	123.333333
586.097778	154.333333
586.160767	132.333333
586.223633	122.666667
586.286621	143.666667
586.349487	99.000000
586.412476	164.000000
586.475342	117.666667
586.538208	129.666667
586.601074	107.666667
586.663940	149.666667
586.726807	136.333333
586.789551	114.666667
586.852417	116.666667
586.915161	151.666667
586.977966	143.000000
587.040710	133.333333
587.103455	133.000000
587.166260	138.666667
587.228882	130.333333
587.291626	135.000000
587.354248	83.000000
587.416992	138.333333
587.479614	144.666667
587.542236	146.666667
587.604858	132.000000
587.667480	144.000000
587.730042	114.666667
587.792664	147.333333
587.855286	126.000000
587.917786	146.666667
587.980347	130.333333
588.042786	127.333333
588.105347	117.333333
588.167786	116.333333
588.230286	125.000000
588.292786	134.000000
588.355164	117.000000
588.417664	162.000000
588.480042	103.333333
588.542480	160.333333
588.604797	151.666667
588.667175	135.333333
588.729553	148.333333
588.791870	130.000000
588.854187	124.333333
588.916504	131.666667
588.978821	130.333333
589.041077	168.666667
589.103394	105.333333
589.165527	135.333333
589.227844	124.666667
589.289978	132.666667
589.352234	118.333333
589.414429	136.000000
589.476562	151.333333
589.538818	122.666667
589.600891	121.666667
589.663025	120.000000
589.725098	105.333333
589.787292	119.000000
589.849365	133.333333
589.911377	118.666667
589.973450	137.000000
590.035461	158.666667
590.097534	118.000000
590.159485	145.000000
590.221497	132.333333
590.283447	155.333333
590.345459	139.000000
590.407410	151.666667
590.469299	100.333333
590.531250	135.666667
590.593140	129.333333
590.655090	118.000000
590.716858	97.000000
590.778748	132.666667
590.840576	128.666667
590.902405	113.666667
590.964294	129.000000
591.026001	152.000000
591.087830	106.666667
591.149536	143.333333
591.211365	119.333333
591.273071	148.666667
591.334778	116.666667
591.396545	125.333333
591.458191	122.000000
591.519836	112.000000
591.581482	122.333333
591.643127	116.000000
591.704773	148.666667
591.766418	126.666667
591.828003	131.000000
591.889587	123.333333
591.951111	109.000000
592.012695	125.666667
592.074280	126.000000
592.135803	128.000000
592.197266	104.000000
592.258728	121.333333
592.320251	105.000000
592.381714	148.666667
592.443115	148.333333
592.504578	107.666667
592.566040	126.000000
592.627380	153.333333
592.688782	131.333333
592.750122	126.666667
592.811523	143.333333
592.872864	136.000000
592.934143	114.333333
592.995483	140.000000
593.056763	112.000000
593.118042	172.333333
593.179321	114.333333
593.240601	126.000000
593.301819	137.666667
593.363037	131.333333
593.424255	135.333333
593.485413	129.666667
593.546570	121.833333
593.607788	114.000000
593.668884	115.666667
593.730042	145.333333
593.791138	123.666667
593.852234	136.666667
593.913330	127.333333
593.974426	116.333333
594.035461	133.666667
594.096436	132.000000
594.157471	124.666667
594.218506	124.000000
594.279480	117.666667
594.340454	142.000000
594.401489	126.666667
594.462341	124.000000
594.523315	127.000000
594.584167	123.333333
594.645142	123.333333
594.706055	130.333333
594.766846	126.666667
594.827759	122.666667
594.888550	86.333333
594.949402	100.666667
595.010132	117.333333
595.071045	112.333333
595.131836	125.000000
595.192505	150.333333
595.253296	112.000000
595.314026	176.000000
595.374756	107.000000
595.435425	126.000000
595.496155	119.666667
595.556763	117.000000
595.617493	128.333333
595.678040	154.666667
595.738708	108.666667
595.799316	131.666667
595.859924	167.000000
595.920471	148.000000
595.981018	106.000000
596.041626	138.000000
596.102112	108.666667
596.162659	111.333333
596.223145	116.000000
596.283630	124.000000
596.344116	134.666667
596.404541	136.000000
596.465027	143.666667
596.525391	146.333333
596.585815	133.666667
596.646179	136.333333
596.706665	95.333333
596.766968	119.333333
596.827332	155.000000
596.887695	122.000000
596.947937	152.333333
597.008301	111.000000
597.068542	117.666667
597.128845	154.000000
597.189087	133.000000
597.249390	162.000000
597.309570	129.000000
597.369751	166.333333
597.429993	138.666667
597.490112	130.000000
597.550293	116.000000
597.610474	129.333333
597.670593	124.666667
597.730774	142.666667
597.790771	107.666667
597.850952	147.666667
597.910950	129.000000
597.971069	156.000000
598.031067	151.666667
598.091064	147.000000
598.151123	82.666667
598.211121	151.333333
598.271057	130.333333
598.331055	106.000000
598.390991	129.666667
598.450928	133.000000
598.510864	115.333333
598.570740	106.333333
598.630615	139.000000
598.690491	136.666667
598.750366	97.333333
598.810242	145.000000
598.870056	103.666667
598.929871	141.333333
598.989624	134.666667
599.049438	148.666667
599.109192	123.666667
599.168945	145.666667
599.228638	131.000000
599.288391	107.666667
599.348083	106.666667
599.407776	133.333333
599.467468	162.000000
599.527100	167.000000
599.586731	118.666667
599.646362	110.000000
599.705994	125.666667
599.765503	135.333333
599.825134	118.000000
599.884766	162.666667
599.944275	133.333333
600.003845	164.000000
600.063293	130.333333
600.122864	127.333333
600.182312	138.333333
600.241821	129.333333
600.301147	109.666667
600.360657	128.333333
600.420044	123.000000
600.479492	153.000000
600.538879	115.666667
600.598267	139.333333
600.657654	163.666667
600.716919	130.333333
600.776306	97.000000
600.835571	138.333333
600.894958	113.333333
600.954224	120.666667
601.013489	118.000000
601.072754	138.000000
601.131958	148.666667
601.191223	149.666667
601.250366	117.333333
601.309570	138.000000
601.368774	125.666667
601.427917	108.666667
601.487061	93.000000
601.546204	141.000000
601.605347	121.666667
601.664368	151.333333
601.723511	131.000000
601.782532	129.333333
601.841614	119.333333
601.900635	127.000000
601.959656	101.333333
602.018677	132.000000
602.077698	109.666667
602.136658	126.666667
602.195618	139.000000
602.254517	145.666667
602.313477	129.000000
602.372375	150.666667
602.431335	86.000000
602.490173	121.000000
602.549011	96.666667
602.607910	128.666667
602.666748	140.000000
602.725525	151.333333
602.784302	138.333333
602.843079	127.333333
602.901855	144.333333
602.960632	108.333333
603.019409	102.000000
603.078125	147.000000
603.136780	140.666667
603.195496	146.666667
603.254150	101.333333
603.312866	132.000000
603.371521	156.666667
603.430115	133.333333
603.488770	128.333333
603.547363	173.333333
603.605957	133.000000
603.664490	121.000000
603.723083	128.333333
603.781616	124.666667
603.840149	140.666667
603.898621	130.000000
603.957153	102.333333
604.015625	122.000000
604.074036	135.000000
604.132507	144.666667
604.190918	161.666667
604.249390	132.666667
604.307739	132.666667
604.366150	104.666667
604.424500	118.333333
604.482849	140.000000
604.541260	139.000000
604.599548	150.666667
604.657776	137.333333
604.716064	148.000000
604.774414	119.666667
604.832642	110.666667
604.890869	125.666667
604.949158	110.666667
605.007263	105.666667
605.065552	152.333333
605.123657	107.666667
605.181885	70.333333
605.239929	105.666667
605.298157	126.000000
605.356201	102.333333
605.414307	155.000000
605.472351	99.000000
605.530518	134.333333
605.588562	118.666667
605.646606	129.000000
605.704651	129.000000
605.762573	174.000000
605.820618	110.333333
605.878540	138.333333
605.936584	123.333333
605.994507	127.166667
606.052368	131.000000
606.110352	108.666667
606.168213	124.333333
606.226074	131.000000
606.283936	125.666667
606.341797	136.666667
606.399658	87.666667
606.457520	149.333333
606.515259	152.666667
606.572998	117.666667
606.630859	149.333333
606.688538	108.666667
606.746338	125.666667
606.804016	118.000000
606.861755	99.000000
606.919434	111.333333
606.977112	94.000000
607.034790	118.000000
607.092407	126.666667
607.150085	120.666667
607.207642	83.333333
607.265320	136.000000
607.322815	142.000000
607.380432	144.666667
607.437988	118.666667
607.495544	128.000000
607.553040	108.333333
607.610535	129.000000
607.668030	108.000000
607.725464	167.666667
607.782898	87.333333
607.840332	144.666667
607.897766	156.666667
607.955200	144.000000
608.012634	99.333333
608.070007	134.666667
608.127319	117.666667
608.184753	114.333333
608.242004	138.000000
608.299377	139.000000
608.356628	135.333333
608.413940	142.666667
608.471252	103.333333
608.528442	118.666667
608.585693	146.666667
608.642883	136.000000
608.700134	112.000000
608.757263	132.666667
608.814453	115.666667
608.871582	167.000000
608.928711	118.000000
608.985840	147.333333
609.042969	121.000000
609.100098	130.666667
609.157104	96.333333
609.214233	136.000000
609.271240	107.333333
609.328308	100.666667
609.385254	141.666667
609.442322	147.000000
609.499329	107.333333
609.556274	138.666667
609.613220	103.000000
609.670105	135.333333
609.727112	109.000000
609.783936	154.000000
609.840820	100.000000
609.897705	126.666667
609.954590	150.666667
610.011475	132.000000
610.068176	113.000000
610.125061	143.666667
610.181763	106.000000
610.238647	143.666667
610.295288	142.666667
610.352112	138.666667
610.408813	127.666667
610.465576	113.666667
610.522278	144.666667
610.578918	149.000000
610.635620	112.333333
610.692261	154.333333
610.748901	106.000000
610.805481	136.333333
610.862122	137.333333
610.918762	118.000000
610.975281	105.666667
611.031799	126.333333
611.088318	149.333333
611.144897	132.333333
611.201355	104.666667
611.257874	129.333333
611.314331	130.333333
611.370789	147.000000
611.427185	125.333333
611.483704	114.000000
611.540100	118.333333
611.596497	146.000000
611.652893	126.666667
611.709167	165.666667
611.765564	92.666667
611.821899	136.000000
611.878235	104.666667
611.934509	155.000000
611.990784	123.666667
612.047058	160.666667
612.103271	79.000000
612.159546	97.333333
612.215759	115.333333
612.271973	109.666667
612.328186	128.000000
612.384338	124.000000
612.440430	126.333333
612.496643	150.000000
612.552734	108.666667
612.608887	103.000000
612.664917	124.000000
612.721008	100.333333
612.777100	110.666667
612.833069	113.333333
612.889160	94.000000
612.945190	138.666667
613.001160	130.666667
613.057129	106.000000
613.113037	111.666667
613.169067	93.000000
613.224976	123.666667
613.280945	132.666667
613.336792	100.666667
613.392639	117.000000
613.448547	86.000000
613.504395	145.333333
613.560303	144.000000
613.616028	143.333333
613.671875	122.666667
613.727661	106.000000
613.783447	112.000000
613.839172	93.333333
613.894897	138.000000
613.950623	103.666667
614.006348	127.000000
614.062073	121.333333
614.117676	94.333333
614.173401	141.333333
614.229004	100.666667
614.284668	136.000000
614.340332	139.666667
614.395874	107.666667
614.451477	111.000000
614.507019	121.666667
614.562622	123.666667
614.618042	132.000000
614.673584	133.333333
614.729065	176.666667
614.784546	143.666667
614.840027	152.666667
614.895508	118.000000
614.950989	125.333333
615.006348	129.333333
615.061768	138.000000
615.117126	133.333333
615.172546	143.666667
615.227844	135.000000
615.283203	108.666667
615.338562	104.000000
615.393799	120.333333
615.449219	128.666667
615.504456	102.333333
615.559753	108.333333
615.614868	134.333333
615.670166	79.666667
615.725403	115.333333
615.780579	91.333333
615.835754	121.000000
615.890869	117.000000
615.946045	97.000000
616.001160	115.000000
616.056274	152.000000
616.111328	112.000000
616.166504	143.000000
616.221497	96.666667
616.276611	111.333333
616.331665	104.000000
616.386597	147.000000
616.441650	119.666667
616.496582	124.000000
616.551575	129.666667
616.606506	150.666667
616.661438	116.000000
616.716431	105.666667
616.771301	117.333333
616.826233	117.666667
616.881042	130.000000
616.935913	115.000000
616.990723	91.000000
617.045593	126.000000
617.100342	107.000000
617.155212	107.666667
617.209900	117.333333
617.264709	158.333333
617.319458	107.666667
617.374146	122.666667
617.428955	116.666667
617.483582	133.333333
617.538269	112.333333
617.592896	96.333333
617.647583	99.000000
617.702209	138.000000
617.756836	117.333333
617.811462	148.333333
617.866028	128.000000
617.920593	149.333333
617.975098	114.000000
618.029663	154.333333
618.084229	114.333333
618.138672	105.666667
618.193176	128.000000
618.247620	134.000000
618.302124	144.666667
618.356506	122.000000
618.410950	90.666667
618.465332	124.666667
618.519714	138.000000
618.574036	146.000000
618.628418	139.000000
618.682800	128.333333
618.737061	146.333333
618.791443	124.333333
618.845703	144.333333
618.899963	148.333333
618.954224	147.000000
619.008484	134.000000
619.062744	134.000000
619.116943	118.000000
619.171143	105.666667
619.225281	129.666667
619.279480	148.333333
619.333557	108.333333
619.387756	87.666667
619.441833	156.333333
619.495911	167.666667
619.549927	172.000000
619.604065	109.333333
619.658142	148.000000
619.712158	122.000000
619.766174	117.333333
619.820129	124.333333
619.874146	145.000000
619.928101	131.000000
619.982056	162.666667
620.036011	106.666667
620.089905	154.666667
620.143860	162.666667
620.197693	148.333333
620.251587	150.333333
620.305359	121.000000
620.359253	114.333333
620.413025	178.333333
620.466858	127.000000
620.520630	149.333333
620.574402	159.333333
620.628174	115.333333
620.681885	128.666667
620.735657	165.000000
620.789307	111.000000
620.843018	137.000000
620.896667	122.000000
620.950378	170.666667
621.004028	118.333333
621.057617	165.000000
621.111206	137.666667
621.164795	126.333333
621.218445	131.666667
621.271912	145.666667
621.325500	119.333333
621.379028	185.000000
621.432556	105.000000
621.486084	175.000000
621.539490	131.333333
621.592957	142.666667
621.646423	108.666667
621.699890	163.000000
621.753235	139.666667
621.806641	137.000000
621.859985	144.000000
621.913391	105.666667
621.966736	113.000000
622.020020	128.333333
622.073364	125.666667
622.126648	122.333333
622.179932	126.666667
622.233215	147.000000
622.286438	93.000000
622.339722	148.666667
622.392883	119.333333
622.446167	168.000000
622.499268	77.666667
622.552429	120.666667
622.605591	73.333333
622.658691	128.333333
622.711853	107.000000
622.764954	104.333333
622.818054	142.333333
622.871094	165.000000
622.924133	117.000000
622.977173	160.333333
623.030212	145.666667
623.083191	104.000000
623.136169	114.000000
623.189148	99.000000
623.242126	66.000000
623.295105	100.000000
623.347961	87.666667
623.400940	94.666667
623.453735	75.333333
623.506653	129.333333
623.559448	83.000000
623.612366	129.000000
623.665222	89.666667
623.717957	106.000000
623.770813	78.666667
623.823547	129.333333
623.876282	74.333333
623.928955	111.000000
623.981750	113.333333
624.034424	113.333333
624.087097	114.666667
624.139771	105.333333
624.192505	84.666667
624.245117	119.666667
624.297668	78.333333
624.350342	98.000000
624.402893	112.000000
624.455505	132.000000
624.508057	99.333333
624.560608	110.000000
624.613159	76.000000
624.665649	120.333333
624.718140	69.666667
624.770630	131.000000
624.823120	112.333333
624.875488	137.666667
624.927917	119.000000
624.980347	84.333333
625.032776	142.333333
625.085083	137.666667
625.137512	103.333333
625.189819	142.333333
625.242187	76.333333
625.294495	132.000000
625.346741	115.333333
625.398987	119.000000
625.451294	114.333333
625.503540	145.333333
625.555786	92.333333
625.607971	92.333333
625.660217	80.666667
625.712341	114.000000
625.764587	112.666667
625.816650	126.333333
625.868774	100.333333
625.920898	110.333333
625.972961	96.666667
626.025085	109.333333
626.077148	129.333333
626.129211	112.666667
626.181213	115.333333
626.233276	112.666667
626.285217	99.666667
626.337219	126.666667
626.389160	52.666667
626.441101	114.666667
626.493103	91.000000
626.544983	94.000000
626.596863	114.333333
626.648743	98.000000
626.700623	102.666667
626.752441	116.000000
626.804321	88.666667
626.856140	111.666667
626.907959	116.333333
626.959717	117.666667
627.011475	99.666667
627.063232	110.333333
627.114929	115.666667
627.166687	118.333333
627.218323	106.333333
627.270020	102.666667
627.321716	75.333333
627.373413	118.666667
627.425049	123.666667
627.476624	123.333333
627.528259	125.333333
627.579773	103.000000
627.631348	97.000000
627.682922	110.000000
627.734497	118.333333
627.786011	126.333333
627.837463	96.000000
627.888977	113.666667
627.940430	114.000000
627.991882	134.333333
628.043274	135.666667
628.094788	119.666667
628.146118	76.000000
628.197510	93.333333
628.248840	93.333333
628.300232	94.666667
628.351624	101.333333
628.402893	129.666667
628.454224	60.333333
628.505493	97.666667
628.556763	93.000000
628.607971	72.666667
628.659241	118.000000
628.710449	120.666667
628.761658	94.333333
628.812866	132.000000
628.863953	136.000000
628.915161	100.666667
628.966248	113.333333
629.017395	114.666667
629.068542	100.333333
629.119568	114.333333
629.170654	115.333333
629.221680	121.666667
629.272766	123.666667
629.323730	105.000000
629.374756	83.000000
629.425720	83.333333
629.476685	129.333333
629.527649	114.333333
629.578552	94.333333
629.629578	100.333333
629.680420	127.333333
629.731323	105.666667
629.782166	99.666667
629.833008	118.333333
629.883789	125.000000
629.934692	120.666667
629.985535	113.333333
630.036255	97.666667
630.087097	87.333333
630.137817	99.333333
630.188538	101.666667
630.239197	121.000000
630.289978	59.333333
630.340576	107.333333
630.391296	111.333333
630.441956	99.000000
630.492554	92.000000
630.543213	129.000000
630.593811	85.000000
630.644409	96.666667
630.694885	94.333333
630.745483	96.333333
630.796021	106.333333
630.846558	104.000000
630.897095	90.000000
630.947571	105.000000
630.997986	92.666667
631.048401	99.666667
631.098877	92.333333
631.149292	114.000000
631.199707	75.333333
631.250122	151.333333
631.300415	106.666667
631.350769	80.333333
631.401123	131.333333
631.451416	102.333333
631.501770	115.666667
631.552063	137.000000
631.602295	87.333333
631.652527	85.000000
631.702759	84.666667
631.752991	66.666667
631.803223	99.333333
631.853394	83.333333
631.903564	81.000000
631.953674	116.333333
632.003845	118.333333
632.053894	110.666667
632.104004	64.000000
632.154114	91.000000
632.204163	117.333333
632.254211	118.666667
632.304199	91.666667
632.354309	119.000000
632.404236	107.333333
632.454285	91.666667
632.504211	110.000000
632.554138	112.333333
632.604065	116.000000
632.653992	137.000000
632.703857	93.666667
632.753723	114.666667
632.803650	67.666667
632.853455	126.666667
632.903320	63.000000
632.953064	74.666667
633.002930	80.333333
633.052734	109.000000
633.102417	99.000000
633.152222	104.333333
633.201904	101.666667
633.251648	128.666667
633.301331	103.333333
633.351013	96.666667
633.400635	78.666667
633.450317	94.333333
633.499939	74.666667
633.549561	101.333333
633.599182	65.000000
633.648743	70.333333
633.698303	59.000000
633.747864	95.666667
633.797363	94.000000
633.846802	86.666667
633.896362	114.000000
633.945862	79.000000
633.995300	103.666667
634.044739	95.666667
634.094116	99.666667
634.143555	77.333333
634.192932	81.000000
634.242310	103.333333
634.291748	86.666667
634.341003	100.333333
634.390381	86.333333
634.439636	76.333333
634.488953	82.000000
634.538208	87.000000
634.587463	98.666667
634.636658	92.000000
634.685974	67.333333
634.735107	101.666667
634.784302	111.000000
634.833496	76.000000
634.882629	74.333333
634.931824	97.666667
634.980896	67.000000
635.030029	118.333333
635.079102	65.000000
635.128174	85.000000
635.177246	108.000000
635.226196	101.000000
635.275269	74.666667
635.324219	102.333333
635.373291	95.333333
635.422180	86.666667
635.471130	99.666667
635.520081	128.333333
635.569031	107.000000
635.617920	114.000000
635.666809	53.666667
635.715698	95.333333
635.764526	89.666667
635.813354	93.666667
635.862122	38.333333
635.910950	88.666667
635.959717	81.666667
636.008484	74.666667
636.057251	48.333333
636.105957	88.000000
636.154724	69.333333
636.203430	112.000000
636.252075	108.333333
636.300720	84.666667
636.349365	58.333333
636.398010	113.000000
636.446594	81.000000
636.495178	95.333333
636.543823	84.000000
636.592407	75.000000
636.640869	62.333333
636.689453	71.666667
636.737915	81.333333
636.786438	100.333333
636.834839	49.000000
636.883362	87.333333
636.931824	95.666667
636.980164	118.333333
637.028687	82.333333
637.077026	79.000000
637.125427	69.666667
637.173706	92.000000
637.222107	78.666667
637.270447	85.666667
637.318665	115.000000
637.366943	122.000000
637.415283	89.666667
637.463501	96.666667
637.511719	115.666667
637.559937	95.000000
637.608215	93.000000
637.656372	80.666667
637.704468	81.000000
637.752686	59.000000
637.800842	64.333333
637.848938	84.000000
637.897034	78.000000
637.945129	106.666667
637.993225	61.333333
638.041260	54.666667
638.089233	75.000000
638.137329	78.666667
638.185303	80.666667
638.233276	88.333333
638.281250	57.000000
638.329163	116.000000
638.377075	86.333333
638.425049	99.333333
638.472961	50.666667
638.520813	72.333333
638.568604	63.000000
638.616455	98.666667
638.664307	87.666667
638.712097	89.666667
638.759949	100.666667
638.807678	96.000000
638.855469	76.333333
638.903198	67.000000
638.950867	100.333333
638.998657	79.666667
639.046265	70.000000
639.094055	86.666667
639.141663	77.666667
639.189270	113.333333
639.236877	102.666667
639.284485	62.666667
639.332153	61.000000
639.379639	121.333333
639.427185	64.666667
639.474731	102.333333
639.522278	74.666667
639.569763	76.000000
639.617249	84.333333
639.664734	110.000000
639.712158	79.333333
639.759583	92.000000
639.807007	46.000000
639.854431	79.000000
639.901855	47.333333
639.949219	89.666667
639.996521	87.666667
640.043884	70.666667
640.091187	61.000000
640.138489	71.000000
640.185730	46.666667
640.232971	64.666667
640.280212	51.333333
640.327454	99.000000
640.374695	72.333333
640.421814	84.666667
640.469055	30.000000
640.516235	106.666667
640.563354	48.666667
640.610474	66.000000
640.657593	90.666667
640.704712	80.000000
640.751770	46.666667
640.798828	70.333333
640.845825	90.666667
640.892822	78.333333
640.939819	78.666667
640.986877	89.666667
641.033813	50.000000
641.080750	90.666667
641.127686	86.000000
641.174622	108.666667
641.221558	80.666667
641.268372	73.000000
641.315247	83.666667
641.362183	101.666667
641.408997	63.000000
641.455750	74.000000
641.502502	117.000000
641.549316	102.333333
641.596069	89.333333
641.642883	102.000000
641.689514	54.666667
641.736328	62.666667
641.782959	66.666667
641.829651	85.666667
641.876343	93.333333
641.922913	92.333333
641.969604	75.666667
642.016174	49.000000
642.062805	101.000000
642.109314	95.333333
642.155945	37.666667
642.202515	79.333333
642.249023	94.666667
642.295410	73.666667
642.341980	83.666667
642.388428	115.666667
642.434875	72.000000
642.481262	79.000000
642.527771	83.333333
642.574097	51.333333
642.620483	82.666667
642.666870	105.000000
642.713257	39.000000
642.759583	71.333333
642.805908	69.333333
642.852173	104.333333
642.898437	90.000000
642.944641	104.333333
642.990967	78.666667
643.037170	51.000000
643.083374	34.000000
643.129578	89.000000
643.175720	60.000000
643.221924	96.333333
643.268005	100.000000
643.314209	36.666667
643.360352	43.666667
643.406372	120.333333
643.452393	75.666667
643.498474	64.666667
643.544556	98.333333
643.590515	98.000000
643.636536	71.000000
643.682556	92.333333
643.728516	83.666667
643.774414	81.333333
643.820374	100.333333
643.866333	112.000000
643.912170	108.000000
643.958069	59.000000
644.003906	115.666667
644.049805	55.000000
644.095581	75.000000
644.141418	93.000000
644.187256	91.666667
644.232971	71.666667
644.278687	79.000000
644.324463	78.666667
644.370239	82.000000
644.415894	98.333333
644.461670	96.333333
644.507324	78.333333
644.552917	25.333333
644.598511	83.000000
644.644226	71.000000
644.689819	73.333333
644.735413	91.666667
644.781006	53.666667
644.826416	64.000000
644.872009	91.666667
644.917542	62.666667
644.963074	109.333333
645.008545	61.666667
645.054016	77.000000
645.099426	55.333333
645.144897	72.666667
645.190308	46.666667
645.235657	88.000000
645.281006	46.666667
645.326416	92.333333
645.371704	83.666667
645.416992	75.333333
645.462341	57.666667
645.507690	87.000000
645.552856	59.666667
645.598206	50.000000
645.643433	38.666667
645.688599	120.000000
645.733826	54.000000
645.778992	74.666667
645.824219	78.000000
645.869324	90.000000
645.914490	40.333333
645.959595	70.666667
646.004700	92.000000
646.049744	57.000000
646.094788	77.333333
646.139893	89.666667
646.184875	71.666667
646.229919	87.333333
646.274902	76.666667
646.319885	70.333333
646.364807	83.666667
646.409729	73.333333
646.454712	72.000000
646.499573	90.666667
646.544434	82.333333
646.589355	89.666667
646.634216	54.333333
646.679016	81.666667
646.723877	66.000000
646.768616	54.666667
646.813416	98.000000
646.858154	90.666667
646.902954	59.000000
646.947693	92.666667
646.992371	52.000000
647.036987	89.333333
647.081787	45.333333
647.126465	54.333333
647.171021	98.000000
647.215698	94.000000
647.260315	58.333333
647.304871	106.666667
647.349426	73.666667
647.393982	62.000000
647.438538	60.333333
647.483093	75.666667
647.527588	47.000000
647.571960	56.333333
647.616516	89.000000
647.660950	66.666667
647.705383	71.000000
647.749878	63.000000
647.794189	39.000000
647.838623	68.666667
647.882874	63.000000
647.927246	106.000000
647.971558	36.666667
648.015930	76.333333
648.060242	54.000000
648.104492	89.666667
648.148682	78.000000
648.192993	88.000000
648.237183	58.000000
648.281372	50.666667
648.325623	65.000000
648.369751	75.000000
648.413940	83.666667
648.458008	81.333333
648.502197	62.333333
648.546265	29.333333
648.590332	64.666667
648.634399	58.333333
648.678406	56.000000
648.722473	94.666667
648.766418	75.666667
648.810486	62.333333
648.854492	74.666667
648.898376	59.000000
648.942261	86.000000
648.986206	72.000000
649.030151	72.666667
649.074036	101.666667
649.117920	83.000000
649.161804	82.666667
649.205627	93.000000
649.249390	74.000000
649.293213	81.666667
649.337036	117.666667
649.380798	67.000000
649.424500	92.333333
649.468201	64.666667
649.511963	37.666667
649.555603	70.666667
649.599304	54.666667
649.643005	62.000000
649.686584	88.000000
649.730286	72.666667
649.773865	57.000000
649.817444	83.333333
649.860962	92.000000
649.904541	37.000000
649.948120	76.000000
649.991577	54.333333
650.035034	64.333333
650.078552	63.000000
650.122070	50.666667
650.165466	72.000000
650.208923	62.333333
650.252258	63.666667
650.295715	99.333333
650.339050	59.000000
650.382446	52.000000
650.425781	54.333333
650.469116	82.000000
650.512390	62.333333
650.555664	42.666667
650.598999	76.333333
650.642212	74.000000
650.685425	42.666667
650.728699	62.333333
650.771851	50.000000
650.815002	81.333333
650.858215	72.666667
650.901306	86.666667
