528.748901	8.494505
528.823547	9.047619
528.898132	7.936730
528.972717	5.639694
529.047241	2.634366
529.121826	-0.601399
529.196350	-3.589744
529.270935	-0.529138
529.345398	-1.983683
529.419922	-5.060606
529.494446	-5.279720
529.568909	-2.426573
529.643433	-4.839161
529.717834	-2.370629
529.792297	1.235431
529.866699	4.328671
529.941162	3.480186
530.015503	-0.324009
530.089905	0.228438
530.164307	-2.659674
530.238647	-5.799534
530.313049	-6.463869
530.387329	-12.235431
530.461670	-12.829837
530.535950	-14.918415
530.610291	-12.622378
530.684631	-9.263403
530.758850	-5.671329
530.833130	-3.000000
530.907349	-0.433566
530.981628	0.337995
531.055786	1.251748
531.130066	4.344988
531.204224	0.717949
531.278381	1.013986
531.352600	2.135198
531.426697	-14.715618
531.500916	-62.608392
531.575012	-128.256410
531.649109	-91.130536
531.723206	213.060606
531.797302	653.557110
531.871338	1015.442890
531.945435	1259.228438
532.019470	1385.617716
532.093506	1388.396270
532.167542	1280.682984
532.241516	1052.312354
532.315552	723.599068
532.389465	322.011655
532.463501	-43.990676
532.537415	-205.827506
532.611389	-123.729604
532.685364	-18.834499
532.759216	-1.020979
532.833191	-1.400932
532.907043	-2.372960
532.980957	-7.650350
533.054749	-8.319347
533.128662	-8.349650
533.202454	-7.529138
533.276306	-8.386946
533.350159	-6.060606
533.423889	-1.034965
533.497681	1.361305
533.571411	3.692308
533.645203	8.275058
533.718933	5.475524
533.792725	3.972028
533.866394	6.111888
533.940125	3.519814
534.013855	2.368298
534.087524	-1.827506
534.161255	-4.312354
534.234802	-1.526807
534.308472	-3.678322
534.382080	-7.407925
534.455688	-9.424242
534.529358	-6.125874
534.602905	-8.951049
534.676514	-7.668998
534.750061	-4.424242
534.823608	-4.606061
534.897095	-2.212121
534.970642	-0.550117
535.044128	-0.643357
535.117676	8.951049
535.191162	2.326340
535.264587	1.016317
535.338135	2.710956
535.411438	7.193473
535.484924	1.454545
535.558289	-0.566434
535.631775	4.867133
535.705139	15.515152
535.778564	32.303030
535.851868	57.321678
535.925171	85.109557
535.998596	115.039627
536.071899	140.988345
536.145203	178.871795
536.218506	205.277389
536.291748	226.431235
536.364990	234.736597
536.438293	244.125874
536.511597	245.531469
536.584778	245.076923
536.657959	243.025641
536.731140	238.874126
536.804382	233.995338
536.877563	223.883450
536.950684	223.424242
537.023804	226.195804
537.096985	218.703963
537.170166	220.722611
537.243286	219.407925
537.316345	220.163170
537.389404	219.731935
537.462524	222.006993
537.535583	224.223776
537.608582	224.536131
537.681580	223.606061
537.754639	218.414918
537.827637	220.424242
537.900635	216.370629
537.973633	214.125874
538.046570	217.673660
538.119507	214.405594
538.192444	218.657343
538.265442	225.379953
538.338257	232.773893
538.411194	237.426573
538.484131	239.972028
538.556946	236.125874
538.629822	234.834499
538.702637	234.913753
538.775452	231.508159
538.848267	229.505828
538.921143	230.573427
538.993896	230.529138
539.066650	240.585082
539.139465	246.018648
539.212158	250.384615
539.284973	256.885781
539.357605	258.624709
539.430359	253.193473
539.503052	248.540793
539.575745	242.881119
539.648437	237.477855
539.721008	231.265734
539.793701	226.363636
539.866333	222.941725
539.938965	227.822844
540.011536	235.538462
540.084167	244.158508
540.156738	250.214452
540.229248	248.167832
540.301880	245.487179
540.374329	243.913753
540.446899	245.575758
540.519348	252.750583
540.591919	252.848485
540.664368	250.263403
540.736877	251.249417
540.809326	253.361305
540.881775	263.620047
540.954224	274.139860
541.026611	282.137529
541.098999	292.447552
541.171387	304.741259
541.243774	319.906760
541.316101	325.979021
541.388428	331.216783
541.460815	323.962704
541.533081	316.822844
541.605469	304.340326
541.677734	289.375291
541.750000	281.384615
541.822266	273.920746
541.894531	273.198135
541.966736	274.086247
542.039001	275.449883
542.111206	276.736597
542.183411	274.594406
542.255615	275.759907
542.327759	273.766900
542.399963	281.449883
542.472046	280.368298
542.544250	279.734266
542.616333	276.477855
542.688416	272.501166
542.760559	276.578089
542.832581	278.324009
542.904663	278.454545
542.976746	276.745921
543.048767	275.655012
543.120789	274.508159
543.192810	270.853147
543.264771	274.027972
543.336792	270.454545
543.408752	272.839161
543.480652	263.664336
543.552673	260.748252
543.624573	262.979021
543.696533	265.473193
543.768372	270.237762
543.840332	268.641026
543.912170	268.358974
543.984009	269.312354
544.055908	270.053613
544.127686	271.664336
544.199524	267.498834
544.271362	265.689977
544.343201	258.634033
544.414917	262.773893
544.486694	269.543124
544.558411	273.780886
544.630188	279.265734
544.701904	278.272727
544.773682	279.841492
544.845398	281.934732
544.916992	287.331002
544.988708	288.317016
545.060364	287.072261
545.132019	288.107226
545.203674	281.580420
545.275269	287.869464
545.346863	287.163170
545.418457	281.815851
545.490051	275.174825
545.561584	268.627040
545.633118	267.911422
545.704651	271.827506
545.776184	279.044289
545.847656	276.703963
545.919189	280.899767
545.990723	279.699301
546.062134	273.494172
546.133667	276.475524
546.205078	269.372960
546.276489	258.272727
546.347900	253.603730
546.419312	244.888112
546.490784	241.990676
546.562134	235.585082
546.633423	225.137529
546.704773	212.473193
546.776123	209.575758
546.847412	202.615385
546.918762	199.508159
546.990051	198.426573
547.061279	193.724942
547.132568	190.102564
547.203796	196.808858
547.275085	190.573427
547.346313	190.076923
547.417480	188.228438
547.488647	181.291375
547.559875	179.340326
547.631042	176.841492
547.702271	173.491841
547.773376	172.303030
547.844482	173.053613
547.915649	169.706294
547.986694	168.223776
548.057800	169.988345
548.128845	163.277389
548.199890	161.368298
548.270935	161.951049
548.342041	162.489510
548.413025	164.167832
548.484070	161.454545
548.555054	162.864802
548.625977	159.160839
548.697021	160.221445
548.767883	158.582751
548.838867	155.151515
548.909790	155.041958
548.980713	154.813520
549.051636	155.888112
549.122498	154.363636
549.193420	155.074592
549.264160	153.421911
549.335083	153.303030
549.405823	156.641026
549.476746	154.312354
549.547546	153.888112
549.618286	153.689977
549.689087	153.906760
549.759827	155.186480
549.830566	157.757576
549.901245	157.319347
549.972046	143.871795
550.042725	143.009324
550.113464	138.011655
550.184143	137.617716
550.254761	137.596737
550.325439	139.512821
550.396057	142.223776
550.466675	143.696970
550.537292	146.986014
550.607910	146.559441
550.678406	139.335664
550.749084	138.857809
550.819641	130.251748
550.890137	131.685315
550.960693	126.121212
551.031189	127.272727
551.101685	128.328671
551.172119	128.363636
551.242615	130.531469
551.313110	131.848485
551.383545	134.836830
551.453979	132.983683
551.524353	128.480186
551.594788	133.027972
551.665161	132.188811
551.735596	131.130536
551.805908	133.659674
551.876282	132.862471
551.946594	128.988345
552.016907	121.848485
552.087280	123.342657
552.157532	124.512821
552.227783	128.687646
552.298035	128.454545
552.368347	126.382284
552.438538	128.848485
552.508789	128.904429
552.579041	124.638695
552.649170	119.869464
552.719360	114.857809
552.789551	109.226107
552.859741	108.181818
552.929810	114.538462
553.000000	115.557110
553.070068	115.643357
553.140198	111.668998
553.210266	111.745921
553.280334	117.111888
553.350403	115.839161
553.420410	113.051282
553.490479	112.510490
553.560486	118.491841
553.630493	121.720280
553.700439	134.601399
553.770447	143.668998
553.840454	143.820513
553.910339	140.233100
553.980286	137.703963
554.050232	129.554779
554.120178	125.081585
554.190002	116.675991
554.259888	114.233100
554.329773	116.825175
554.399597	120.111888
554.469482	126.361305
554.539307	136.158508
554.609070	137.624709
554.678894	139.993007
554.748657	147.689977
554.818420	142.675991
554.888184	136.804196
554.957886	136.023310
555.027649	134.018648
555.097412	139.734266
555.167053	148.146853
555.236755	148.603730
555.306458	150.990676
555.376099	146.981352
555.445679	142.596737
555.515381	141.634033
555.584900	143.510490
555.654602	134.955711
555.724182	132.375291
555.793701	126.543124
555.863281	128.130536
555.932800	131.146853
556.002380	129.125874
556.071838	128.312354
556.141357	128.337995
556.210815	123.342657
556.280334	127.069930
556.349854	130.734266
556.419250	134.452214
556.488770	134.463869
556.558105	132.018648
556.627563	128.296037
556.696899	130.790210
556.766296	126.757576
556.835632	122.254079
556.905029	121.790210
556.974365	119.480186
557.043640	116.843823
557.112976	123.331002
557.182251	121.785548
557.251526	124.937063
557.320801	122.030303
557.390076	116.974359
557.459351	117.657343
557.528503	115.827506
557.597778	113.864802
557.666931	114.347319
557.736145	111.713287
557.805237	112.016317
557.874451	115.664336
557.943542	118.400932
558.012695	119.617716
558.081848	125.801865
558.150940	127.703963
558.220093	134.060606
558.289124	138.020979
558.358154	140.592075
558.427185	141.195804
558.496216	142.428904
558.565247	137.582751
558.634277	133.013986
558.703247	130.151515
558.772217	127.622378
558.841187	121.361305
558.910095	121.617716
558.979065	122.473193
559.047974	118.235431
559.116882	114.214452
559.185730	118.909091
559.254639	119.358974
559.323486	122.310023
559.392334	118.613054
559.461243	121.004662
559.529968	123.279720
559.598816	126.967366
559.667542	125.834499
559.736389	127.086247
559.805115	125.659674
559.873901	121.433566
559.942627	127.223776
560.011353	133.270396
560.080078	140.967366
560.148743	142.857809
560.217407	145.358974
560.286011	146.804196
560.354736	147.559441
560.423340	145.097902
560.491943	142.482517
560.560669	136.118881
560.629150	133.193473
560.697754	130.212121
560.766357	129.216783
560.834900	133.298368
560.903381	134.650350
560.971924	135.813520
561.040527	140.806527
561.108948	136.335664
561.177490	141.006993
561.245911	143.069930
561.314392	143.079254
561.382751	140.773893
561.451233	141.261072
561.519653	143.046620
561.588074	143.351981
561.656494	144.025641
561.724792	144.904429
561.793213	148.890443
561.861511	151.000000
561.929871	149.818182
561.998169	155.058275
562.066467	161.580420
562.134705	162.342657
562.202942	165.006993
562.271240	171.503497
562.339478	170.212121
562.407715	169.463869
562.475952	166.531469
562.544189	169.424242
562.612305	172.822844
562.680481	174.027972
562.748657	176.934732
562.816772	177.890443
562.884949	184.069930
562.953003	189.067599
563.021179	194.433566
563.089233	191.757576
563.157288	188.545455
563.225342	191.186480
563.293457	189.398601
563.361389	187.342657
563.429443	188.993007
563.497437	186.279720
563.565430	187.200466
563.633484	186.048951
563.701355	190.265734
563.769348	199.531469
563.837219	203.342657
563.905212	197.757576
563.973083	201.671329
564.040955	204.932401
564.108887	200.967366
564.176697	195.720280
564.244568	192.801865
564.312378	191.333333
564.380188	187.734266
564.447998	185.592075
564.515808	189.778555
564.583557	189.118881
564.651306	188.191142
564.719116	185.899767
564.786804	185.603730
564.854553	180.447552
564.922180	176.053613
564.989990	167.398601
565.057617	164.002331
565.125305	160.053613
565.192932	152.941725
565.260559	151.249417
565.328186	154.100233
565.395752	155.850816
565.463379	166.694639
565.530884	166.606061
565.598511	160.132867
565.666016	160.650350
565.733582	161.799534
565.801147	156.645688
565.868591	153.016317
565.936157	150.944056
566.003601	149.447552
566.071106	147.473193
566.138428	152.780886
566.205933	158.461538
566.273315	159.720280
566.340759	155.813520
566.408203	148.965035
566.475464	150.727273
566.542908	146.645688
566.610229	140.923077
566.677551	133.557110
566.744873	129.811189
566.812195	128.391608
566.879517	130.270396
566.946777	136.046620
567.014099	141.093240
567.081238	145.041958
567.148560	153.498834
567.215698	149.962704
567.282959	158.806527
567.350098	160.766900
567.417358	156.874126
567.484436	152.065268
567.551575	148.219114
567.618774	143.515152
567.685852	137.946387
567.752991	135.435897
567.820068	129.587413
567.887146	130.867133
567.954224	137.655012
568.021301	136.655012
568.088318	141.086247
568.155273	141.226107
568.222351	143.627040
568.289307	144.699301
568.356323	144.927739
568.423218	141.876457
568.490173	138.198135
568.557068	140.752914
568.624023	141.125874
568.690979	148.664336
568.757812	148.557110
568.824707	145.440559
568.891541	140.431235
568.958435	142.055944
569.025208	143.517483
569.092102	148.468531
569.158875	152.524476
569.225708	158.843823
569.292480	157.177156
569.359253	157.904429
569.426025	161.123543
569.492737	156.899767
569.559448	149.925408
569.626099	144.526807
569.692871	140.034965
569.759583	138.927739
569.826172	139.165501
569.892822	141.689977
569.959473	141.270396
570.026062	140.496503
570.092651	139.822844
570.159241	137.044289
570.225830	138.363636
570.292419	136.426573
570.358887	133.897436
570.425476	133.424242
570.492004	134.832168
570.558533	137.268065
570.625000	139.331002
570.691406	139.689977
570.757935	140.242424
570.824341	139.118881
570.890808	140.312354
570.957275	142.841492
571.023621	149.610723
571.090027	150.932401
571.156372	144.114219
571.222778	144.484848
571.289062	146.587413
571.355408	157.580420
571.421753	160.888112
571.488037	159.181818
571.554382	158.818182
571.620605	161.400932
571.686890	166.673660
571.753052	175.414918
571.819336	179.407925
571.885498	178.678322
571.951721	175.067599
572.017883	179.305361
572.084106	183.799534
572.150269	194.032634
572.216431	195.664336
572.282593	196.538462
572.348633	207.839161
572.414734	217.116550
572.480774	222.174825
572.546936	232.023310
572.612976	239.104895
572.678955	244.449883
572.745056	242.601399
572.811035	241.848485
572.877075	237.335664
572.942993	232.123543
573.009033	230.645688
573.074890	224.717949
573.140869	224.731935
573.206726	217.212121
573.272705	216.995338
573.338684	222.526807
573.404480	217.494172
573.470337	213.431235
573.536194	200.515152
573.602051	193.724942
573.667908	184.400932
573.733704	178.365967
573.799500	173.764569
573.865295	165.783217
573.931091	163.617716
573.996765	161.755245
574.062500	164.888112
574.128235	166.937063
574.193970	166.685315
574.259644	165.703963
574.325317	159.776224
574.390930	161.675991
574.456604	161.268065
574.522278	163.461538
574.587891	163.139860
574.653503	163.993007
574.719055	159.629371
574.784668	158.573427
574.850220	150.067599
574.915771	145.783217
574.981323	140.855478
575.046814	136.818182
575.112366	138.214452
575.177856	140.312354
575.243347	143.121212
575.308716	148.958042
575.374207	151.009324
575.439636	155.048951
575.505066	151.393939
575.570496	152.181818
575.635864	145.666667
575.701233	143.496503
575.766602	140.848485
575.831970	142.123543
575.897217	141.652681
575.962646	143.657343
576.027832	143.692308
576.093201	144.221445
576.158447	139.678322
576.223755	143.186480
576.289001	141.636364
576.354126	142.745921
576.419434	140.100233
576.484558	138.251748
576.549744	139.149184
576.614990	136.715618
576.680115	133.132867
576.745239	136.953380
576.810364	135.083916
576.875488	135.265734
576.940552	134.571096
577.005676	142.086247
577.070740	145.806527
577.135803	148.932401
577.200806	144.214452
577.265869	142.074592
577.330872	140.953380
577.395874	136.393939
577.460876	131.326340
577.525818	131.198135
577.590698	128.860140
577.655640	129.396270
577.720581	129.568765
577.785522	132.680653
577.850403	130.368298
577.915283	131.463869
577.980103	131.200466
578.044983	131.790210
578.109802	135.142191
578.174622	136.629371
578.239441	137.832168
578.304199	141.116550
578.369019	141.310023
578.433777	140.396270
578.498535	136.592075
578.563232	136.002331
578.627930	130.277389
578.692627	133.671329
578.757324	140.090909
578.821960	139.554779
578.886658	145.452214
578.951355	146.048951
579.015930	152.713287
579.080566	154.153846
579.145142	149.466200
579.209717	149.927739
579.274292	152.580420
579.338867	157.153846
579.403381	154.892774
579.467957	158.125874
579.532471	163.571096
579.596924	161.680653
579.661438	166.979021
579.725891	170.039627
579.790344	175.365967
579.854736	178.839161
579.919189	178.123543
579.983521	185.237762
580.047974	191.778555
580.112366	200.841492
580.176697	202.349650
580.241089	208.783217
580.305359	214.270396
580.369690	215.128205
580.434021	217.554779
580.498352	218.515152
580.562622	219.039627
580.626831	220.240093
580.691101	214.272727
580.755310	215.510490
580.819519	214.480186
580.883728	212.547786
580.947876	207.205128
581.012085	199.850816
581.076233	193.230769
581.140442	189.470862
581.204529	183.666667
581.268616	179.944056
581.332703	176.079254
581.396851	174.202797
581.460815	176.333333
581.524902	182.862471
581.588989	178.780886
581.653015	177.424242
581.717041	175.517483
581.781006	169.202797
581.844971	168.682984
581.908936	164.916084
581.972900	161.011655
582.036804	156.438228
582.100769	151.557110
582.164612	151.165501
582.228516	149.480186
582.292419	150.773893
582.356262	145.037296
582.420166	142.130536
582.483948	140.645688
582.547791	139.710956
582.611572	136.202797
582.675415	137.543124
582.739075	140.673660
582.802917	142.610723
582.866638	140.132867
582.930359	141.109557
582.994141	138.909091
583.057739	140.051282
583.121460	139.055944
583.185059	139.587413
583.248779	139.561772
583.312439	143.794872
583.376038	141.930070
583.439697	139.694639
583.503235	141.494172
583.566833	140.233100
583.630371	135.867133
583.693970	131.114219
583.757446	129.153846
583.820984	125.722611
583.884460	130.860140
583.947937	132.379953
584.011475	132.696970
584.074951	137.442890
584.138367	133.368298
584.201782	132.841492
584.265259	135.564103
584.328552	132.613054
584.391968	133.156177
584.455383	134.482517
584.518677	137.979021
584.582092	135.307692
584.645386	134.149184
584.708679	132.752914
584.771973	133.046620
584.835266	132.566434
584.898560	127.312354
584.961792	129.356643
585.025085	125.659674
585.088196	124.179487
585.151489	127.876457
585.214600	131.920746
585.277832	126.529138
585.340942	123.328671
585.404175	119.011655
585.467224	122.452214
585.530334	120.233100
585.593506	119.589744
585.656555	117.529138
585.719666	118.251748
585.782715	118.025641
585.845764	116.055944
585.908752	116.536131
585.971802	115.606061
586.034790	111.941725
586.097778	117.477855
586.160767	118.195804
586.223633	122.986014
586.286621	122.489510
586.349487	127.489510
586.412476	129.242424
586.475342	125.146853
586.538208	119.843823
586.601074	116.811189
586.663940	116.247086
586.726807	115.727273
586.789551	117.202797
586.852417	119.391608
586.915161	122.438228
586.977966	126.470862
587.040710	130.783217
587.103455	133.692308
587.166260	129.662005
587.228882	124.009324
587.291626	118.209790
587.354248	118.107226
587.416992	112.822844
587.479614	110.657343
587.542236	108.137529
587.604858	104.503497
587.667480	112.713287
587.730042	117.703963
587.792664	120.410256
587.855286	121.487179
587.917786	116.433566
587.980347	118.631702
588.042786	121.543124
588.105347	121.170163
588.167786	119.860140
588.230286	122.356643
588.292786	123.731935
588.355164	122.853147
588.417664	128.193473
588.480042	125.958042
588.542480	125.620047
588.604797	125.025641
588.667175	115.160839
588.729553	111.125874
588.791870	111.834499
588.854187	108.666667
588.916504	114.417249
588.978821	114.603730
589.041077	117.044289
589.103394	122.559441
589.165527	125.202797
589.227844	129.324009
589.289978	134.310023
589.352234	132.687646
589.414429	125.347319
589.476562	118.769231
589.538818	116.729604
589.600891	115.587413
589.663025	117.060606
589.725098	112.041958
589.787292	111.328671
589.849365	117.675991
589.911377	116.379953
589.973450	122.226107
590.035461	121.939394
590.097534	126.018648
590.159485	123.606061
590.221497	126.312354
590.283447	124.344988
590.345459	124.000000
590.407410	120.540793
590.469299	119.093240
590.531250	117.130536
590.593140	117.305361
590.655090	116.221445
590.716858	116.603730
590.778748	116.349650
590.840576	121.410256
590.902405	122.242424
590.964294	133.419580
591.026001	128.990676
591.087830	128.314685
591.149536	128.249417
591.211365	128.909091
591.273071	125.377622
591.334778	121.470862
591.396545	120.305361
591.458191	119.121212
591.519836	119.729604
591.581482	122.335664
591.643127	121.086247
591.704773	121.428904
591.766418	115.916084
591.828003	116.090909
591.889587	113.289044
591.951111	114.680653
592.012695	114.638695
592.074280	112.848485
592.135803	120.060606
592.197266	122.755245
592.258728	122.337995
592.320251	120.757576
592.381714	114.149184
592.443115	109.825175
592.504578	108.051282
592.566040	108.305361
592.627380	106.853147
592.688782	115.557110
592.750122	113.536131
592.811523	115.333333
592.872864	123.139860
592.934143	120.426573
592.995483	117.177156
593.056763	115.983683
593.118042	115.780886
593.179321	114.518648
593.240601	113.393939
593.301819	113.863636
593.363037	114.757576
593.424255	118.910256
593.485413	117.002331
593.546570	123.779720
593.607788	120.589744
593.668884	118.066434
593.730042	119.995338
593.791138	120.110723
593.852234	120.566434
593.913330	121.115385
593.974426	120.706294
594.035461	120.051282
594.096436	119.962704
594.157471	122.536131
594.218506	122.477855
594.279480	118.372960
594.340454	112.613054
594.401489	110.983683
594.462341	108.757576
594.523315	107.757576
594.584167	110.445221
594.645142	112.452214
594.706055	116.592075
594.766846	114.724942
594.827759	114.951049
594.888550	118.020979
594.949402	113.468531
595.010132	115.321678
595.071045	113.048951
595.131836	106.258741
595.192505	103.799534
595.253296	104.850816
595.314026	106.062937
595.374756	110.529138
595.435425	115.032634
595.496155	113.787879
595.556763	117.069930
595.617493	126.857809
595.678040	129.172494
595.738708	131.764569
595.799316	126.039627
595.859924	121.018648
595.920471	116.123543
595.981018	112.454545
596.041626	110.540793
596.102112	111.235431
596.162659	108.927739
596.223145	109.592075
596.283630	114.799534
596.344116	124.435897
596.404541	122.696970
596.465027	118.925408
596.525391	124.575758
596.585815	121.004662
596.646179	118.717949
596.706665	117.857809
596.766968	112.568765
596.827332	110.540793
596.887695	108.265734
596.947937	110.916084
597.008301	113.244755
597.068542	115.613054
597.128845	113.284382
597.189087	115.282051
597.249390	124.550117
597.309570	124.559441
597.369751	127.745921
597.429993	127.284382
597.490112	126.002331
597.550293	126.673660
597.610474	124.081585
597.670593	123.629371
597.730774	118.741259
597.790771	119.529138
597.850952	114.913753
597.910950	115.505828
597.971069	120.202797
598.031067	122.344988
598.091064	122.128205
598.151123	119.594406
598.211121	119.969697
598.271057	117.890443
598.331055	112.685315
598.390991	111.529138
598.450928	109.272727
598.510864	108.261072
598.570740	104.372960
598.630615	103.671329
598.690491	106.944056
598.750366	110.193473
598.810242	109.550117
598.870056	110.867133
598.929871	113.044289
598.989624	114.606061
599.049438	115.065268
599.109192	118.641026
599.168945	120.944056
599.228638	122.097902
599.288391	126.920746
599.348083	124.722611
599.407776	125.568765
599.467468	124.118881
599.527100	119.708625
599.586731	121.118881
599.646362	118.368298
599.705994	121.801865
599.765503	121.209790
599.825134	121.044289
599.884766	121.207459
599.944275	122.398601
600.003845	122.967366
600.063293	121.550117
600.122864	119.659674
600.182312	118.137529
600.241821	119.009324
600.301147	124.337995
600.360657	127.484848
600.420044	135.811189
600.479492	134.645688
600.538879	134.407925
600.598267	131.235431
600.657654	127.969697
600.716919	124.678322
600.776306	123.039627
600.835571	112.188811
600.894958	114.962704
600.954224	112.184149
601.013489	115.454545
601.072754	121.452214
601.131958	123.580420
601.191223	123.233100
601.250366	121.193473
601.309570	117.447552
601.368774	120.501166
601.427917	118.403263
601.487061	118.121212
601.546204	117.920746
601.605347	124.743590
601.664368	120.778555
601.723511	124.163170
601.782532	124.177156
601.841614	119.627040
601.900635	116.920746
601.959656	112.629371
602.018677	111.799534
602.077698	123.515152
602.136658	120.419580
602.195618	123.132867
602.254517	123.326340
602.313477	121.829837
602.372375	116.582751
602.431335	116.878788
602.490173	113.657343
602.549011	115.256410
602.607910	118.156177
602.666748	121.454545
602.725525	119.396270
602.784302	128.114219
602.843079	122.412587
602.901855	118.261072
602.960632	115.958042
603.019409	112.508159
603.078125	106.571096
603.136780	105.347319
603.195496	104.580420
603.254150	112.433566
603.312866	118.237762
603.371521	124.072261
603.430115	125.282051
603.488770	132.065268
603.547363	130.892774
603.605957	133.773893
603.664490	133.668998
603.723083	127.421911
603.781616	120.079254
603.840149	113.839161
603.898621	114.489510
603.957153	112.151515
604.015625	116.657343
604.074036	117.258741
604.132507	120.687646
604.190918	121.932401
604.249390	121.923077
604.307739	123.550117
604.366150	119.037296
604.424500	116.811189
604.482849	116.580420
604.541260	116.282051
604.599548	115.337995
604.657776	110.172494
604.716064	112.881119
604.774414	112.773893
604.832642	115.286713
604.890869	110.715618
604.949158	107.892774
605.007263	103.172494
605.065552	97.261072
605.123657	100.123543
605.181885	104.069930
605.239929	106.981352
605.298157	107.694639
605.356201	111.487179
605.414307	113.272727
605.472351	117.643357
605.530518	117.909091
605.588562	117.473193
605.646606	120.730769
605.704651	121.881119
605.762573	118.926573
605.820618	119.799534
605.878540	120.213287
605.936584	121.121212
605.994507	119.749417
606.052368	121.631702
606.110352	111.756410
606.168213	109.386946
606.226074	110.637529
606.283936	108.916084
606.341797	114.329837
606.399658	115.391608
606.457520	112.240093
606.515259	112.862471
606.572998	114.512821
606.630859	114.722611
606.688538	112.864802
606.746338	113.449883
606.804016	106.491841
606.861755	107.379953
606.919434	105.713287
606.977112	100.251748
607.034790	104.144522
607.092407	105.491841
607.150085	111.918415
607.207642	117.340326
607.265320	120.459207
607.322815	121.440559
607.380432	119.116550
607.437988	117.757576
607.495544	117.421911
607.553040	112.790210
607.610535	113.344988
607.668030	110.230769
607.725464	113.636364
607.782898	115.780886
607.840332	117.955711
607.897766	118.431235
607.955200	119.820513
608.012634	119.244755
608.070007	115.135198
608.127319	111.853147
608.184753	112.804196
608.242004	112.701632
608.299377	124.172494
608.356628	123.927739
608.413940	125.876457
608.471252	123.405594
608.528442	121.065268
608.585693	123.046620
608.642883	122.806527
608.700134	123.769231
608.757263	118.578089
608.814453	113.431235
608.871582	110.053613
608.928711	112.132867
608.985840	120.445221
609.042969	118.123543
609.100098	115.729604
609.157104	118.771562
609.214233	120.142191
609.271240	122.254079
609.328308	122.391608
609.385254	125.095571
609.442322	117.797203
609.499329	120.484848
609.556274	117.764569
609.613220	116.335664
609.670105	115.734266
609.727112	112.440559
609.783936	110.652681
609.840820	115.501166
609.897705	111.037296
609.954590	109.934732
610.011475	109.074592
610.068176	111.351981
610.125061	111.962704
610.181763	117.428904
610.238647	118.501166
610.295288	118.368298
610.352112	122.086247
610.408813	129.142191
610.465576	130.895105
610.522278	138.888112
610.578918	135.610723
610.635620	133.237762
610.692261	131.389277
610.748901	126.913753
610.805481	118.496503
610.862122	112.156177
610.918762	110.167832
610.975281	106.797203
611.031799	101.827506
611.088318	104.433566
611.144897	104.741259
611.201355	112.242424
611.257874	111.013986
611.314331	114.198135
611.370789	119.104895
611.427185	119.902098
611.483704	118.393939
611.540100	119.132867
611.596497	118.503497
611.652893	118.897436
611.709167	112.116550
611.765564	114.722611
611.821899	115.815851
611.878235	115.354312
611.934509	110.142191
611.990784	107.675991
612.047058	108.111888
612.103271	103.867133
612.159546	101.757576
612.215759	100.468531
612.271973	101.652681
612.328186	107.165501
612.384338	108.769231
612.440430	113.067599
612.496643	110.986014
612.552734	108.967366
612.608887	100.680653
612.664917	98.967366
612.721008	104.027972
612.777100	98.689977
612.833069	103.268065
612.889160	102.228438
612.945190	104.251748
613.001160	108.219114
613.057129	109.515152
613.113037	110.547786
613.169067	108.123543
613.224976	109.986014
613.280945	106.300699
613.336792	116.358974
613.392639	119.233100
613.448547	115.666667
613.504395	115.193473
613.560303	111.160839
613.616028	113.965035
613.671875	112.319347
613.727661	114.701632
613.783447	116.291375
613.839172	115.552448
613.894897	116.391608
613.950623	116.072261
614.006348	120.769231
614.062073	120.407925
614.117676	119.724942
614.173401	117.324009
614.229004	119.771562
614.284668	121.403263
614.340332	118.361305
614.395874	116.682984
614.451477	115.627040
614.507019	117.501166
614.562622	119.731935
614.618042	118.347319
614.673584	120.717949
614.729065	125.240093
614.784546	122.916084
614.840027	125.370629
614.895508	125.993007
614.950989	125.438228
615.006348	122.876457
615.061768	120.967366
615.117126	120.846154
615.172546	121.389277
615.227844	121.300699
615.283203	119.275058
615.338562	117.643357
615.393799	114.447552
615.449219	114.198135
615.504456	116.867133
615.559753	110.897436
615.614868	110.468531
615.670166	103.361305
615.725403	99.102564
615.780579	94.498834
615.835754	96.048951
615.890869	103.804196
615.946045	109.023310
616.001160	113.249417
616.056274	117.575758
616.111328	126.193473
616.166504	131.109557
616.221497	131.244755
616.276611	131.687646
616.331665	129.650350
616.386597	130.237762
616.441650	128.384615
616.496582	130.554779
616.551575	126.477855
616.606506	121.972028
616.661438	117.575758
616.716431	110.822844
616.771301	105.456876
616.826233	102.344988
616.881042	100.270396
616.935913	101.780886
616.990723	106.431235
617.045593	108.589744
617.100342	109.773893
617.155212	113.745921
617.209900	112.104895
617.264709	112.475524
617.319458	111.235431
617.374146	109.855478
617.428955	110.564103
617.483582	113.396270
617.538269	111.095571
617.592896	113.146853
617.647583	114.804196
617.702209	115.738928
617.756836	115.773893
617.811462	120.995338
617.866028	121.729604
617.920593	115.300699
617.975098	117.317016
618.029663	120.983683
618.084229	128.785548
618.138672	126.860140
618.193176	125.317016
618.247620	125.983683
618.302124	124.319347
618.356506	119.319347
618.410950	114.904429
618.465332	117.484848
618.519714	115.503497
618.574036	107.778555
618.628418	111.067599
618.682800	113.433566
618.737061	114.573427
618.791443	112.620047
618.845703	119.505828
618.899963	122.634033
618.954224	126.412587
619.008484	126.321678
619.062744	129.864802
619.116943	136.678322
619.171143	137.468531
619.225281	136.680653
619.279480	145.671329
619.333557	147.874126
619.387756	141.293706
619.441833	139.407925
619.495911	136.545455
619.549927	132.687646
619.604065	129.759907
619.658142	125.515152
619.712158	128.668998
619.766174	126.920746
619.820129	124.552448
619.874146	125.277389
619.928101	130.016317
619.982056	131.370629
620.036011	126.407925
620.089905	122.988345
620.143860	125.279720
620.197693	122.279720
620.251587	125.011655
620.305359	128.051282
620.359253	130.629371
620.413025	124.158508
620.466858	125.272727
620.520630	121.002331
620.574402	118.212121
620.628174	118.860140
620.681885	119.258741
620.735657	120.638695
620.789307	132.179487
620.843018	135.468531
620.896667	139.888112
620.950378	141.067599
621.004028	140.006993
621.057617	135.018648
621.111206	136.452214
621.164795	126.547786
621.218445	121.102564
621.271912	120.748252
621.325500	122.692308
621.379028	117.601399
621.432556	124.974359
621.486084	123.983683
621.539490	124.979021
621.592957	127.986014
621.646423	127.263403
621.699890	126.881119
621.753235	127.093240
621.806641	119.312354
621.859985	118.503497
621.913391	119.503497
621.966736	119.011655
622.020020	110.419580
622.073364	114.111888
622.126648	112.296037
622.179932	122.146853
622.233215	121.951049
622.286438	122.158508
622.339722	123.030303
622.392883	117.440559
622.446167	109.703963
622.499268	106.997669
622.552429	107.020979
622.605591	106.025641
622.658691	100.540793
622.711853	105.592075
622.764954	106.769231
622.818054	112.212121
622.871094	112.717949
622.924133	115.731935
622.977173	113.307692
623.030212	107.384615
623.083191	104.321678
623.136169	102.058275
623.189148	97.272727
623.242126	92.729604
623.295105	88.995338
623.347961	93.522145
623.400940	95.615385
623.453735	97.205128
623.506653	99.111888
623.559448	102.258741
623.612366	101.657343
623.665222	101.305361
623.717957	106.941725
623.770813	106.293706
623.823547	107.160839
623.876282	109.769231
623.928955	108.715618
623.981750	111.689977
624.034424	102.892774
624.087097	95.596737
624.139771	87.724942
624.192505	86.820513
624.245117	81.484848
624.297668	81.734266
624.350342	83.398601
624.402893	88.706294
624.455505	98.582751
624.508057	101.237762
624.560608	101.608392
624.613159	102.079254
624.665649	99.020979
624.718140	96.186480
624.770630	91.962704
624.823120	94.696970
624.875488	96.771562
624.927917	100.086247
624.980347	93.668998
625.032776	95.974359
625.085083	95.452214
625.137512	95.205128
625.189819	97.734266
625.242187	101.347319
625.294495	102.766900
625.346741	96.384615
625.398987	95.030303
625.451294	95.743590
625.503540	98.494172
625.555786	97.972028
625.607971	92.675991
625.660217	94.011655
625.712341	101.755245
625.764587	108.018648
625.816650	116.319347
625.868774	122.149184
625.920898	122.125874
625.972961	119.405594
626.025085	119.214452
626.077148	116.361305
626.129211	113.293706
626.181213	110.317016
626.233276	105.641026
626.285217	99.009324
626.337219	99.750583
626.389160	94.794872
626.441101	93.538462
626.493103	93.186480
626.544983	92.363636
626.596863	94.198135
626.648743	98.207459
626.700623	99.874126
626.752441	98.508159
626.804321	103.009324
626.856140	101.974359
626.907959	101.002331
626.959717	104.298368
627.011475	105.983683
627.063232	104.251748
627.114929	103.268065
627.166687	102.188811
627.218323	99.550117
627.270020	98.615385
627.321716	95.890443
627.373413	88.034965
627.425049	92.452214
627.476624	92.170163
627.528259	96.137529
627.579773	105.116550
627.631348	108.489510
627.682922	109.284382
627.734497	113.382284
627.786011	118.699301
627.837463	119.771562
627.888977	119.139860
627.940430	114.340326
627.991882	110.682984
628.043274	107.132867
628.094788	101.018648
628.146118	102.783217
628.197510	102.592075
628.248840	96.363636
628.300232	97.519814
628.351624	102.398601
628.402893	101.454545
628.454224	102.531469
628.505493	99.622378
628.556763	100.829837
628.607971	99.608392
628.659241	97.519814
628.710449	100.277389
628.761658	102.319347
628.812866	102.526807
628.863953	104.000000
628.915161	102.857809
628.966248	106.417249
629.017395	107.006993
629.068542	110.620047
629.119568	111.009324
629.170654	110.123543
629.221680	106.953380
629.272766	107.680653
629.323730	106.550117
629.374756	98.468531
629.425720	93.641026
629.476685	87.969697
629.527649	80.321678
629.578552	83.571096
629.629578	87.410256
629.680420	93.142191
629.731323	96.955711
629.782166	99.505828
629.833008	104.888112
629.883789	109.470862
629.934692	110.009324
629.985535	107.293706
630.036255	103.214452
630.087097	98.696970
630.137817	93.487179
630.188538	95.370629
630.239197	93.668998
630.289978	93.410256
630.340576	91.065268
630.391296	93.296037
630.441956	91.993007
630.492554	90.400932
630.543213	92.496503
630.593811	94.599068
630.644409	91.736597
630.694885	92.433566
630.745483	93.836830
630.796021	98.419580
630.846558	93.589744
630.897095	96.827506
630.947571	95.797203
630.997986	96.734266
631.048401	98.097902
631.098877	100.214452
631.149292	107.328671
631.199707	106.216783
631.250122	105.573427
631.300415	108.939394
631.350769	112.240093
631.401123	112.678322
631.451416	111.717949
631.501770	109.529138
631.552063	100.974359
631.602295	97.918415
631.652527	93.736597
631.702759	86.937063
631.752991	87.517483
631.803223	82.305361
631.853394	82.552448
631.903564	79.000000
631.953674	78.965035
632.003845	84.701632
632.053894	89.787879
632.104004	85.624709
632.154114	88.524476
632.204163	90.869464
632.254211	88.477855
632.304199	88.557110
632.354309	90.668998
632.404236	91.414918
632.454285	91.682984
632.504211	87.785548
632.554138	83.636364
632.604065	86.142191
632.653992	85.946387
632.703857	81.034965
632.753723	75.634033
632.803650	72.801865
632.853455	71.641026
632.903320	71.156177
632.953064	71.135198
633.002930	76.438228
633.052734	84.086247
633.102417	91.282051
633.152222	91.850816
633.201904	100.160839
633.251648	103.249417
633.301331	98.666667
633.351013	94.144522
633.400635	94.993007
633.450317	90.414918
633.499939	84.013986
633.549561	78.850816
633.599182	75.745921
633.648743	75.186480
633.698303	74.361305
633.747864	75.331002
633.797363	77.440559
633.846802	75.454545
633.896362	76.944056
633.945862	81.291375
633.995300	84.393939
634.044739	83.946387
634.094116	85.869464
634.143555	87.410256
634.192932	85.405594
634.242310	84.834499
634.291748	82.251748
634.341003	82.629371
634.390381	80.587413
634.439636	75.909091
634.488953	76.582751
634.538208	81.254079
634.587463	86.088578
634.636658	85.498834
634.685974	87.764569
634.735107	86.086247
634.784302	85.146853
634.833496	82.177156
634.882629	77.778555
634.931824	74.058275
634.980896	76.820513
635.030029	76.899767
635.079102	81.587413
635.128174	87.729604
635.177246	86.452214
635.226196	86.009324
635.275269	86.648019
635.324219	84.904429
635.373291	86.794872
635.422180	83.424242
635.471130	82.997669
635.520081	85.610723
635.569031	95.566434
635.617920	93.659674
635.666809	92.601399
635.715698	90.748252
635.764526	85.627040
635.813354	84.659674
635.862122	82.951049
635.910950	77.592075
635.959717	69.526807
636.008484	67.023310
636.057251	69.256410
636.105957	74.603730
636.154724	76.393939
636.203430	78.111888
636.252075	88.006993
636.300720	95.172494
636.349365	103.095571
636.398010	104.004662
636.446594	100.939394
636.495178	88.361305
636.543823	82.834499
636.592407	77.566434
636.640869	73.046620
636.689453	68.512821
636.737915	65.296037
636.786438	68.170163
636.834839	73.675991
636.883362	71.146853
636.931824	72.834499
636.980164	69.673660
637.028687	64.184149
637.077026	63.132867
637.125427	67.731935
637.173706	67.806527
637.222107	71.615385
637.270447	76.256410
637.318665	82.337995
637.366943	83.270396
637.415283	83.170163
637.463501	77.930070
637.511719	77.543124
637.559937	71.382284
637.608215	64.046620
637.656372	62.342657
637.704468	64.913753
637.752686	65.510490
637.800842	65.930070
637.848938	71.053613
637.897034	73.778555
637.945129	70.317016
637.993225	72.351981
638.041260	70.519814
638.089233	74.967366
638.137329	65.608392
638.185303	61.932401
638.233276	62.391608
638.281250	65.508159
638.329163	60.212121
638.377075	59.710956
638.425049	65.044289
638.472961	63.090909
638.520813	67.568765
638.568604	74.804196
638.616455	78.692308
638.664307	83.034965
638.712097	72.878788
638.759949	73.167832
638.807678	75.808858
638.855469	75.853147
638.903198	74.391608
638.950867	72.916084
638.998657	80.303030
639.046265	81.410256
639.094055	84.410256
639.141663	89.461538
639.189270	86.547786
639.236877	84.382284
639.284485	82.240093
639.332153	84.953380
639.379639	81.174825
639.427185	80.279720
639.474731	78.916084
639.522278	75.135198
639.569763	78.006993
639.617249	79.400932
639.664734	71.004662
639.712158	72.296037
639.759583	71.347319
639.807007	74.951049
639.854431	75.160839
639.901855	78.307692
639.949219	73.438228
639.996521	73.344988
640.043884	69.461538
640.091187	66.403263
640.138489	62.706294
640.185730	65.153846
640.232971	58.867133
640.280212	62.648019
640.327454	68.559441
640.374695	72.177156
640.421814	72.904429
640.469055	79.951049
640.516235	78.074592
640.563354	77.307692
640.610474	73.755245
640.657593	72.191142
640.704712	67.930070
640.751770	73.622378
640.798828	71.237762
640.845825	75.820513
640.892822	74.841492
640.939819	80.382284
640.986877	80.673660
641.033813	83.083916
641.080750	81.545455
641.127686	83.258741
641.174622	82.428904
641.221558	78.484848
641.268372	73.512821
641.315247	72.645688
641.362183	68.538462
641.408997	73.109557
641.455750	74.606061
641.502502	75.027972
641.549316	73.249417
641.596069	72.076923
641.642883	71.081585
641.689514	73.156177
641.736328	73.275058
641.782959	68.491841
641.829651	65.079254
641.876343	69.610723
641.922913	75.027972
641.969604	78.930070
642.016174	76.685315
642.062805	69.053613
642.109314	68.627040
642.155945	66.934732
642.202515	64.174825
642.249023	66.407925
642.295410	69.181818
642.341980	68.948718
642.388428	73.172494
642.434875	80.995338
642.481262	76.132867
642.527771	71.631702
642.574097	63.263403
642.620483	62.790210
642.666870	61.550117
642.713257	65.496503
642.759583	70.862471
642.805908	74.771562
642.852173	79.279720
642.898437	81.832168
642.944641	85.608392
642.990967	82.792541
643.037170	80.771562
643.083374	77.755245
643.129578	65.510490
643.175720	65.354312
643.221924	61.344988
643.268005	63.878788
643.314209	64.214452
643.360352	63.421911
643.406372	65.529138
643.452393	65.179487
643.498474	69.617716
643.544556	71.475524
643.590515	76.020979
643.636536	71.720280
643.682556	70.650350
643.728516	72.442890
643.774414	73.503497
643.820374	69.934732
643.866333	65.606061
643.912170	65.589744
643.958069	68.911422
644.003906	69.596737
644.049805	71.298368
644.095581	71.335664
644.141418	72.885781
644.187256	76.097902
644.232971	80.247086
644.278687	78.666667
644.324463	76.249417
644.370239	69.135198
644.415894	61.538462
644.461670	59.729604
644.507324	61.459207
644.552917	59.013986
644.598511	55.386946
644.644226	57.743590
644.689819	59.072261
644.735413	62.678322
644.781006	65.289044
644.826416	68.687646
644.872009	67.792541
644.917542	70.473193
644.963074	69.130536
645.008545	66.135198
645.054016	61.004662
645.099426	60.219114
645.144897	58.044289
645.190308	56.976690
645.235657	55.778555
645.281006	55.696970
645.326416	60.002331
645.371704	62.463869
645.416992	62.433566
645.462341	71.517483
645.507690	73.512821
645.552856	67.825175
645.598206	62.174825
645.643433	68.312354
645.688599	66.310023
645.733826	63.547786
645.778992	63.452214
645.824219	63.242424
645.869324	67.650350
645.914490	70.801865
645.959595	70.871795
646.004700	75.904429
646.049744	77.948718
646.094788	70.463869
646.139893	69.358974
646.184875	68.312354
646.229919	62.067599
646.274902	62.510490
646.319885	64.400932
646.364807	64.871795
646.409729	64.983683
646.454712	67.389277
646.499573	63.734266
646.544434	63.298368
646.589355	67.566434
646.634216	65.713287
646.679016	69.911422
646.723877	69.368298
646.768616	73.079254
646.813416	81.440559
646.858154	86.773893
646.902954	83.074592
646.947693	80.668998
646.992371	80.617716
647.036987	75.006993
647.081787	70.627040
647.126465	71.011655
647.171021	68.298368
647.215698	67.319347
647.260315	67.314685
647.304871	69.053613
647.349426	69.135198
647.393982	71.480186
647.438538	66.890443
647.483093	66.480186
647.527588	64.687646
647.571960	59.020979
647.616516	56.137529
647.660950	55.750583
647.705383	56.967366
647.749878	57.599068
647.794189	59.645688
647.838623	60.701632
647.882874	59.426573
647.927246	62.515152
647.971558	63.517483
648.015930	66.188811
648.060242	66.480186
648.104492	65.550117
648.148682	67.300699
648.192993	68.193473
648.237183	75.151515
648.281372	77.948718
648.325623	76.011655
648.369751	74.902098
648.413940	69.976690
648.458008	64.109557
648.502197	64.932401
648.546265	65.785548
648.590332	62.291375
648.634399	61.995338
648.678406	59.895105
648.722473	64.319347
648.766418	70.403263
648.810486	68.247086
648.854492	69.920746
648.898376	74.072261
648.942261	68.918415
648.986206	66.808858
649.030151	69.867133
649.074036	70.428904
649.117920	72.641026
649.161804	75.554779
649.205627	76.179487
649.249390	80.843823
649.293213	74.018648
649.337036	74.039627
649.380798	78.331002
649.424500	71.972028
649.468201	63.181818
649.511963	63.244755
649.555603	65.748252
649.599304	64.303030
649.643005	70.440559
649.686584	70.447552
649.730286	70.454545
649.773865	67.097902
649.817444	62.384615
649.860962	63.627040
649.904541	61.072261
649.948120	57.447552
649.991577	59.235431
650.035034	64.503497
650.078552	63.916084
650.122070	62.009324
650.165466	61.703963
650.208923	59.177156
650.252258	60.440559
650.295715	60.536131
650.339050	59.794872
650.382446	59.146853
650.425781	59.682984
650.469116	57.906760
650.512390	60.634033
650.555664	55.480186
650.598999	52.547786
650.642212	54.610723
650.685425	56.355644
650.728699	59.502081
650.771851	64.157842
650.815002	70.430736
650.858215	78.428571
650.901306	88.259158
