528.748901	17.592491
528.823547	7.058608
528.898132	1.118049
528.972717	-1.110889
529.047241	-0.509907
529.121826	2.039294
529.196350	5.655012
529.270935	10.048951
529.345398	9.188811
529.419922	11.685315
529.494446	11.906760
529.568909	6.524476
529.643433	4.363636
529.717834	1.181818
529.792297	1.972028
529.866699	-4.501166
529.941162	-5.550117
530.015503	-11.221445
530.089905	-9.284382
530.164307	-12.202797
530.238647	-8.240093
530.313049	-6.592075
530.387329	-5.762238
530.461670	-3.125874
530.535950	-3.235431
530.610291	-0.601399
530.684631	1.573427
530.758850	3.776224
530.833130	8.291375
530.907349	6.780886
530.981628	10.032634
531.055786	7.769231
531.130066	10.951049
531.204224	4.664336
531.278381	3.934732
531.352600	-0.836830
531.426697	-11.365967
531.500916	-46.449883
531.575012	-160.776224
531.649109	-93.575758
531.723206	211.111888
531.797302	647.333333
531.871338	1015.557110
531.945435	1260.571096
532.019470	1398.340326
532.093506	1409.165501
532.167542	1308.212121
532.241516	1088.699301
532.315552	766.282051
532.389465	357.333333
532.463501	-48.013986
532.537415	-172.843823
532.611389	-109.960373
532.685364	-13.655012
532.759216	2.960373
532.833191	-3.396270
532.907043	-2.895105
532.980957	-6.757576
533.054749	-3.575758
533.128662	-2.324009
533.202454	-1.498834
533.276306	-7.319347
533.350159	-9.032634
533.423889	-7.083916
533.497681	-4.808858
533.571411	-1.412587
533.645203	3.060606
533.718933	-2.648019
533.792725	-6.207459
533.866394	-1.454545
533.940125	1.832168
534.013855	0.766900
534.087524	-2.011655
534.161255	-5.191142
534.234802	-2.060606
534.308472	-1.762238
534.382080	-0.818182
534.455688	2.745921
534.529358	9.736597
534.602905	5.825175
534.676514	6.027972
534.750061	7.815851
534.823608	6.081585
534.897095	4.853147
534.970642	7.060606
535.044128	9.934732
535.117676	13.454545
535.191162	8.920746
535.264587	7.843823
535.338135	9.470862
535.411438	16.368298
535.484924	14.314685
535.558289	13.074592
535.631775	15.748252
535.705139	27.142191
535.778564	39.885781
535.851868	62.233100
535.925171	83.251748
535.998596	104.263403
536.071899	124.279720
536.145203	160.937063
536.218506	188.759907
536.291748	213.778555
536.364990	229.710956
536.438293	239.634033
536.511597	244.554779
536.584778	249.890443
536.657959	245.974359
536.731140	247.293706
536.804382	238.097902
536.877563	234.517483
536.950684	232.272727
537.023804	235.631702
537.096985	232.815851
537.170166	233.862471
537.243286	232.219114
537.316345	225.990676
537.389404	223.878788
537.462524	224.403263
537.535583	221.620047
537.608582	224.860140
537.681580	225.543124
537.754639	230.606061
537.827637	227.130536
537.900635	224.191142
537.973633	224.321678
538.046570	231.897436
538.119507	230.258741
538.192444	230.498834
538.265442	231.808858
538.338257	230.163170
538.411194	231.638695
538.484131	232.055944
538.556946	230.881119
538.629822	229.223776
538.702637	223.240093
538.775452	218.174825
538.848267	215.589744
538.921143	222.897436
538.993896	218.762238
539.066650	225.804196
539.139465	226.911422
539.212158	228.368298
539.284973	233.960373
539.357605	236.000000
539.430359	237.510490
539.503052	235.815851
539.575745	234.419580
539.648437	228.331002
539.721008	226.039627
539.793701	225.615385
539.866333	222.251748
539.938965	229.100233
540.011536	231.540793
540.084167	237.424242
540.156738	243.990676
540.229248	243.214452
540.301880	243.519814
540.374329	240.792541
540.446899	243.153846
540.519348	242.498834
540.591919	244.503497
540.664368	249.862471
540.736877	254.079254
540.809326	259.314685
540.881775	267.060606
540.954224	283.557110
541.026611	293.034965
541.098999	299.965035
541.171387	317.724942
541.243774	329.125874
541.316101	332.853147
541.388428	334.731935
541.460815	328.951049
541.533081	322.689977
541.605469	309.235431
541.677734	293.445221
541.750000	281.473193
541.822266	276.370629
541.894531	271.419580
541.966736	269.895105
542.039001	275.263403
542.111206	276.151515
542.183411	277.897436
542.255615	276.398601
542.327759	273.016317
542.399963	281.093240
542.472046	283.501166
542.544250	281.853147
542.616333	275.170163
542.688416	273.247086
542.760559	274.638695
542.832581	270.158508
542.904663	266.403263
542.976746	271.405594
543.048767	274.286713
543.120789	269.564103
543.192810	273.193473
543.264771	285.079254
543.336792	280.261072
543.408752	281.184149
543.480652	275.251748
543.552673	281.976690
543.624573	282.398601
543.696533	279.149184
543.768372	281.918415
543.840332	279.552448
543.912170	275.307692
543.984009	274.475524
544.055908	275.946387
544.127686	280.871795
544.199524	276.571096
544.271362	277.310023
544.343201	276.282051
544.414917	281.037296
544.486694	282.675991
544.558411	284.550117
544.630188	287.620047
544.701904	281.102564
544.773682	281.303030
544.845398	284.976690
544.916992	289.130536
544.988708	291.405594
545.060364	288.442890
545.132019	283.237762
545.203674	278.314685
545.275269	272.198135
545.346863	268.305361
545.418457	262.843823
545.490051	256.111888
545.561584	257.972028
545.633118	257.713287
545.704651	264.284382
545.776184	269.321678
545.847656	267.072261
545.919189	274.939394
545.990723	278.319347
546.062134	275.519814
546.133667	277.034965
546.205078	274.955711
546.276489	269.375291
546.347900	264.724942
546.419312	266.930070
546.490784	256.508159
546.562134	244.846154
546.633423	230.860140
546.704773	220.748252
546.776123	216.932401
546.847412	204.983683
546.918762	198.703963
546.990051	200.526807
547.061279	194.053613
547.132568	191.515152
547.203796	191.853147
547.275085	189.456876
547.346313	180.972028
547.417480	175.174825
547.488647	172.911422
547.559875	173.592075
547.631042	169.743590
547.702271	165.944056
547.773376	169.340326
547.844482	173.153846
547.915649	170.198135
547.986694	167.608392
548.057800	168.848485
548.128845	165.097902
548.199890	164.414918
548.270935	167.454545
548.342041	171.918415
548.413025	172.629371
548.484070	168.841492
548.555054	171.629371
548.625977	171.368298
548.697021	170.953380
548.767883	164.221445
548.838867	159.568765
548.909790	161.158508
548.980713	157.841492
549.051636	159.990676
549.122498	164.529138
549.193420	164.708625
549.264160	162.051282
549.335083	157.389277
549.405823	163.664336
549.476746	159.820513
549.547546	156.419580
549.618286	152.160839
549.689087	153.438228
549.759827	152.181818
549.830566	150.426573
549.901245	150.895105
549.972046	146.184149
550.042725	139.657343
550.113464	135.400932
550.184143	136.100233
550.254761	138.482517
550.325439	138.881119
550.396057	146.160839
550.466675	146.969697
550.537292	155.939394
550.607910	159.862471
550.678406	156.379953
550.749084	154.396270
550.819641	145.531469
550.890137	140.906760
550.960693	132.216783
551.031189	130.044289
551.101685	122.850816
551.172119	124.967366
551.242615	124.184149
551.313110	122.545455
551.383545	131.484848
551.453979	133.657343
551.524353	133.165501
551.594788	136.037296
551.665161	140.955711
551.735596	142.139860
551.805908	142.076923
551.876282	139.209790
551.946594	137.013986
552.016907	130.072261
552.087280	125.829837
552.157532	127.631702
552.227783	127.034965
552.298035	123.566434
552.368347	123.354312
552.438538	124.247086
552.508789	129.291375
552.579041	125.170163
552.649170	124.892774
552.719360	124.386946
552.789551	127.703963
552.859741	123.843823
552.929810	126.030303
553.000000	122.000000
553.070068	123.582751
553.140198	119.825175
553.210266	123.361305
553.280334	122.573427
553.350403	123.897436
553.420410	119.312354
553.490479	121.682984
553.560486	125.687646
553.630493	124.780886
553.700439	125.867133
553.770447	126.177156
553.840454	122.916084
553.910339	129.342657
553.980286	128.121212
554.050232	128.939394
554.120178	126.398601
554.190002	127.128205
554.259888	125.128205
554.329773	129.888112
554.399597	131.361305
554.469482	131.221445
554.539307	137.503497
554.609070	135.107226
554.678894	136.191142
554.748657	142.226107
554.818420	139.037296
554.888184	137.655012
554.957886	132.827506
555.027649	134.631702
555.097412	140.326340
555.167053	147.186480
555.236755	150.668998
555.306458	149.107226
555.376099	149.282051
555.445679	141.925408
555.515381	143.552448
555.584900	140.244755
555.654602	136.790210
555.724182	133.265734
555.793701	127.909091
555.863281	131.533800
555.932800	131.715618
556.002380	132.883450
556.071838	134.226107
556.141357	133.967366
556.210815	135.547786
556.280334	134.449883
556.349854	137.216783
556.419250	139.088578
556.488770	141.188811
556.558105	137.615385
556.627563	136.941725
556.696899	133.484848
556.766296	127.048951
556.835632	124.750583
556.905029	124.137529
556.974365	125.804196
557.043640	126.575758
557.112976	123.435897
557.182251	122.930070
557.251526	124.298368
557.320801	121.603730
557.390076	121.090909
557.459351	123.284382
557.528503	118.552448
557.597778	113.293706
557.666931	113.363636
557.736145	118.160839
557.805237	121.750583
557.874451	125.766900
557.943542	121.240093
558.012695	124.030303
558.081848	122.932401
558.150940	126.678322
558.220093	134.340326
558.289124	137.368298
558.358154	136.589744
558.427185	132.009324
558.496216	136.860140
558.565247	143.862471
558.634277	142.638695
558.703247	140.263403
558.772217	137.874126
558.841187	134.083916
558.910095	131.934732
558.979065	127.993007
559.047974	120.806527
559.116882	116.347319
559.185730	116.627040
559.254639	113.804196
559.323486	119.634033
559.392334	120.058275
559.461243	119.440559
559.529968	116.708625
559.598816	121.349650
559.667542	122.902098
559.736389	123.426573
559.805115	116.948718
559.873901	118.603730
559.942627	123.128205
560.011353	127.261072
560.080078	129.785548
560.148743	129.652681
560.217407	130.787879
560.286011	130.769231
560.354736	125.939394
560.423340	130.242424
560.491943	130.272727
560.560669	129.923077
560.629150	130.748252
560.697754	135.186480
560.766357	136.139860
560.834900	136.449883
560.903381	141.776224
560.971924	145.372960
561.040527	150.333333
561.108948	150.617716
561.177490	152.869464
561.245911	156.258741
561.314392	158.055944
561.382751	160.566434
561.451233	159.188811
561.519653	156.151515
561.588074	155.177156
561.656494	155.841492
561.724792	159.815851
561.793213	160.030303
561.861511	159.662005
561.929871	161.503497
561.998169	165.531469
562.066467	166.349650
562.134705	171.317016
562.202942	173.102564
562.271240	170.235431
562.339478	165.750583
562.407715	166.184149
562.475952	164.969697
562.544189	164.550117
562.612305	164.969697
562.680481	163.146853
562.748657	168.869464
562.816772	169.951049
562.884949	174.738928
562.953003	182.659674
563.021179	188.498834
563.089233	184.344988
563.157288	185.620047
563.225342	189.407925
563.293457	191.568765
563.361389	192.156177
563.429443	193.125874
563.497437	191.538462
563.565430	197.104895
563.633484	191.491841
563.701355	194.146853
563.769348	193.797203
563.837219	192.627040
563.905212	187.310023
563.973083	189.365967
564.040955	195.167832
564.108887	194.480186
564.176697	188.344988
564.244568	185.780886
564.312378	188.734266
564.380188	188.498834
564.447998	186.904429
564.515808	191.533800
564.583557	190.342657
564.651306	192.268065
564.719116	197.976690
564.786804	198.825175
564.854553	193.603730
564.922180	187.906760
564.989990	174.305361
565.057617	169.188811
565.125305	168.030303
565.192932	162.396270
565.260559	163.349650
565.328186	165.659674
565.395752	163.899767
565.463379	171.794872
565.530884	179.487179
565.598511	175.610723
565.666016	172.382284
565.733582	172.974359
565.801147	172.118881
565.868591	171.694639
565.936157	166.144522
566.003601	159.198135
566.071106	154.799534
566.138428	152.787879
566.205933	145.552448
566.273315	147.808858
566.340759	143.792541
566.408203	135.578089
566.475464	134.655012
566.542908	134.808858
566.610229	135.284382
566.677551	134.787879
566.744873	135.331002
566.812195	139.431235
566.879517	147.461538
566.946777	156.046620
567.014099	156.074592
567.081238	159.456876
567.148560	159.305361
567.215698	156.622378
567.282959	158.219114
567.350098	157.361305
567.417358	147.846154
567.484436	147.757576
567.551575	146.163170
567.618774	144.263403
567.685852	141.622378
567.752991	141.263403
567.820068	136.179487
567.887146	135.892774
567.954224	140.086247
568.021301	143.419580
568.088318	146.559441
568.155273	148.815851
568.222351	149.268065
568.289307	152.811189
568.356323	151.601399
568.423218	146.209790
568.490173	142.512821
568.557068	139.163170
568.624023	134.526807
568.690979	133.109557
568.757812	130.580420
568.824707	129.368298
568.891541	125.731935
568.958435	132.268065
569.025208	139.030303
569.092102	143.925408
569.158875	150.703963
569.225708	153.326340
569.292480	153.855478
569.359253	152.547786
569.426025	150.659674
569.492737	149.181818
569.559448	143.002331
569.626099	139.095571
569.692871	135.358974
569.759583	139.876457
569.826172	139.839161
569.892822	143.055944
569.959473	143.967366
570.026062	141.652681
570.092651	142.582751
570.159241	142.034965
570.225830	138.825175
570.292419	137.468531
570.358887	130.715618
570.425476	128.883450
570.492004	126.407925
570.558533	131.701632
570.625000	132.627040
570.691406	136.675991
570.757935	137.580420
570.824341	144.298368
570.890808	150.946387
570.957275	148.303030
571.023621	147.508159
571.090027	144.634033
571.156372	141.906760
571.222778	143.752914
571.289062	147.321678
571.355408	151.289044
571.421753	157.331002
571.488037	161.703963
571.554382	169.480186
571.620605	177.962704
571.686890	181.284382
571.753052	180.892774
571.819336	181.594406
571.885498	183.104895
571.951721	187.358974
572.017883	186.764569
572.084106	187.207459
572.150269	191.734266
572.216431	196.550117
572.282593	200.620047
572.348633	207.724942
572.414734	217.606061
572.480774	222.766900
572.546936	231.368298
572.612976	238.167832
572.678955	244.139860
572.745056	244.650350
572.811035	238.480186
572.877075	233.470862
572.942993	235.666667
573.009033	236.414918
573.074890	235.547786
573.140869	231.384615
573.206726	234.379953
573.272705	228.480186
573.338684	224.680653
573.404480	220.181818
573.470337	214.524476
573.536194	199.240093
573.602051	190.354312
573.667908	183.594406
573.733704	181.867133
573.799500	181.324009
573.865295	177.692308
573.931091	177.773893
573.996765	177.892774
574.062500	167.745921
574.128235	160.648019
574.193970	156.820513
574.259644	153.354312
574.325317	143.372960
574.390930	144.244755
574.456604	142.270396
574.522278	145.286713
574.587891	150.706294
574.653503	159.953380
574.719055	165.589744
574.784668	165.941725
574.850220	160.892774
574.915771	155.379953
574.981323	149.552448
575.046814	143.000000
575.112366	137.666667
575.177856	134.741259
575.243347	129.179487
575.308716	133.909091
575.374207	133.258741
575.439636	137.261072
575.505066	139.498834
575.570496	141.916084
575.635864	143.277389
575.701233	143.153846
575.766602	143.685315
575.831970	144.293706
575.897217	142.650350
575.962646	145.426573
576.027832	139.445221
576.093201	141.494172
576.158447	137.468531
576.223755	136.748252
576.289001	137.573427
576.354126	135.000000
576.419434	131.797203
576.484558	130.930070
576.549744	132.137529
576.614990	135.475524
576.680115	134.445221
576.745239	138.235431
576.810364	135.948718
576.875488	140.396270
576.940552	140.759907
577.005676	144.034965
577.070740	146.818182
577.135803	142.086247
577.200806	134.310023
577.265869	134.981352
577.330872	137.016317
577.395874	136.242424
577.460876	130.890443
577.525818	125.564103
577.590698	122.955711
577.655640	127.216783
577.720581	129.230769
577.785522	136.284382
577.850403	138.470862
577.915283	143.853147
577.980103	144.405594
578.044983	153.331002
578.109802	156.787879
578.174622	161.279720
578.239441	160.002331
578.304199	160.433566
578.369019	156.762238
578.433777	156.960373
578.498535	151.074592
578.563232	150.097902
578.627930	142.582751
578.692627	142.142191
578.757324	140.314685
578.821960	142.550117
578.886658	145.163170
578.951355	156.195804
579.015930	159.636364
579.080566	168.892774
579.145142	172.277389
579.209717	175.209790
579.274292	171.580420
579.338867	173.249417
579.403381	166.806527
579.467957	165.948718
579.532471	161.657343
579.596924	157.953380
579.661438	159.902098
579.725891	167.932401
579.790344	170.228438
579.854736	181.174825
579.919189	184.174825
579.983521	190.727273
580.047974	194.191142
580.112366	204.976690
580.176697	211.125874
580.241089	213.703963
580.305359	214.069930
580.369690	221.240093
580.434021	225.104895
580.498352	225.447552
580.562622	223.018648
580.626831	226.755245
580.691101	218.286713
580.755310	219.188811
580.819519	215.759907
580.883728	214.818182
580.947876	211.191142
581.012085	204.944056
581.076233	203.282051
581.140442	205.694639
581.204529	200.433566
581.268616	195.153846
581.332703	191.794872
581.396851	191.596737
581.460815	186.013986
581.524902	188.995338
581.588989	188.128205
581.653015	186.303030
581.717041	184.911422
581.781006	179.020979
581.844971	179.326340
581.908936	173.240093
581.972900	167.097902
582.036804	160.603730
582.100769	157.314685
582.164612	153.449883
582.228516	148.375291
582.292419	154.212121
582.356262	151.107226
582.420166	147.111888
582.483948	146.193473
582.547791	141.442890
582.611572	140.841492
582.675415	136.596737
582.739075	135.834499
582.802917	134.200466
582.866638	133.652681
582.930359	133.668998
582.994141	131.850816
583.057739	139.951049
583.121460	137.020979
583.185059	139.645688
583.248779	144.249417
583.312439	150.340326
583.376038	152.277389
583.439697	150.188811
583.503235	148.074592
583.566833	143.906760
583.630371	136.484848
583.693970	131.398601
583.757446	126.650350
583.820984	120.799534
583.884460	118.960373
583.947937	119.592075
584.011475	120.713287
584.074951	127.156177
584.138367	127.748252
584.201782	128.843823
584.265259	131.111888
584.328552	133.062937
584.391968	135.337995
584.455383	136.459207
584.518677	135.230769
584.582092	133.013986
584.645386	132.550117
584.708679	128.337995
584.771973	127.247086
584.835266	125.937063
584.898560	123.030303
584.961792	123.417249
585.025085	124.720280
585.088196	129.438228
585.151489	129.601399
585.214600	127.878788
585.277832	127.333333
585.340942	129.522145
585.404175	129.377622
585.467224	129.773893
585.530334	129.498834
585.593506	128.906760
585.656555	128.142191
585.719666	127.853147
585.782715	131.939394
585.845764	131.265734
585.908752	125.967366
585.971802	128.284382
586.034790	126.599068
586.097778	126.503497
586.160767	130.060606
586.223633	127.645688
586.286621	128.426573
586.349487	130.829837
586.412476	130.023310
586.475342	127.659674
586.538208	128.431235
586.601074	125.151515
586.663940	122.491841
586.726807	125.918415
586.789551	125.587413
586.852417	122.512821
586.915161	120.783217
586.977966	121.517483
587.040710	124.489510
587.103455	120.603730
587.166260	115.853147
587.228882	113.494172
587.291626	115.172494
587.354248	115.717949
587.416992	116.107226
587.479614	119.428904
587.542236	116.741259
587.604858	111.967366
587.667480	111.876457
587.730042	113.573427
587.792664	113.025641
587.855286	106.797203
587.917786	105.433566
587.980347	105.270396
588.042786	107.876457
588.105347	110.076923
588.167786	112.291375
588.230286	114.032634
588.292786	113.820513
588.355164	114.627040
588.417664	121.072261
588.480042	127.109557
588.542480	130.419580
588.604797	130.484848
588.667175	126.256410
588.729553	121.932401
588.791870	124.058275
588.854187	124.543124
588.916504	121.289044
588.978821	118.030303
589.041077	117.710956
589.103394	120.419580
589.165527	124.358974
589.227844	128.167832
589.289978	127.025641
589.352234	124.820513
589.414429	118.948718
589.476562	116.958042
589.538818	117.827506
589.600891	116.102564
589.663025	113.128205
589.725098	113.494172
589.787292	116.937063
589.849365	121.277389
589.911377	125.111888
589.973450	132.752914
590.035461	133.445221
590.097534	134.913753
590.159485	132.841492
590.221497	132.974359
590.283447	132.167832
590.345459	130.939394
590.407410	125.251748
590.469299	121.543124
590.531250	117.503497
590.593140	114.034965
590.655090	113.193473
590.716858	111.974359
590.778748	112.044289
590.840576	111.720280
590.902405	111.207459
590.964294	116.289044
591.026001	116.608392
591.087830	121.006993
591.149536	119.995338
591.211365	119.573427
591.273071	114.200466
591.334778	111.431235
591.396545	108.209790
591.458191	107.048951
591.519836	103.990676
591.581482	100.524476
591.643127	100.083916
591.704773	104.328671
591.766418	105.806527
591.828003	113.755245
591.889587	111.962704
591.951111	114.235431
592.012695	113.156177
592.074280	114.836830
592.135803	115.724942
592.197266	110.104895
592.258728	106.622378
592.320251	105.888112
592.381714	107.163170
592.443115	112.240093
592.504578	115.361305
592.566040	120.934732
592.627380	120.428904
592.688782	129.503497
592.750122	129.717949
592.811523	130.379953
592.872864	130.550117
592.934143	124.918415
592.995483	123.128205
593.056763	121.351981
593.118042	120.279720
593.179321	119.884615
593.240601	120.207459
593.301819	123.355478
593.363037	123.466200
593.424255	127.497669
593.485413	122.282051
593.546570	126.150350
593.607788	128.843823
593.668884	125.215618
593.730042	122.867133
593.791138	122.017483
593.852234	120.275058
593.913330	117.313520
593.974426	112.710956
594.035461	112.247086
594.096436	110.172494
594.157471	112.074592
594.218506	113.018648
594.279480	119.407925
594.340454	121.531469
594.401489	118.193473
594.462341	120.592075
594.523315	123.466200
594.584167	119.060606
594.645142	111.202797
594.706055	106.184149
594.766846	107.333333
594.827759	105.710956
594.888550	107.062937
594.949402	107.864802
595.010132	113.811189
595.071045	118.205128
595.131836	119.776224
595.192505	122.165501
595.253296	120.522145
595.314026	112.685315
595.374756	112.128205
595.435425	113.969697
595.496155	114.414918
595.556763	113.009324
595.617493	118.034965
595.678040	117.312354
595.738708	122.463869
595.799316	121.930070
595.859924	120.533800
595.920471	118.116550
595.981018	113.153846
596.041626	113.151515
596.102112	114.885781
596.162659	114.941725
596.223145	114.610723
596.283630	117.533800
596.344116	125.804196
596.404541	125.580420
596.465027	122.594406
596.525391	121.505828
596.585815	121.233100
596.646179	123.151515
596.706665	123.531469
596.766968	123.517483
596.827332	122.650350
596.887695	122.363636
596.947937	122.682984
597.008301	121.615385
597.068542	122.916084
597.128845	118.146853
597.189087	116.566434
597.249390	119.540793
597.309570	123.179487
597.369751	126.729604
597.429993	131.335664
597.490112	131.410256
597.550293	134.706294
597.610474	135.184149
597.670593	128.496503
597.730774	124.177156
597.790771	121.314685
597.850952	118.909091
597.910950	119.934732
597.971069	119.662005
598.031067	117.184149
598.091064	113.706294
598.151123	117.496503
598.211121	116.421911
598.271057	116.519814
598.331055	117.510490
598.390991	118.051282
598.450928	120.312354
598.510864	124.976690
598.570740	125.282051
598.630615	124.279720
598.690491	122.685315
598.750366	118.655012
598.810242	116.589744
598.870056	121.027972
598.929871	118.170163
598.989624	118.547786
599.049438	118.752914
599.109192	121.382284
599.168945	118.216783
599.228638	124.627040
599.288391	124.771562
599.348083	124.832168
599.407776	122.405594
599.467468	122.834499
599.527100	120.631702
599.586731	125.095571
599.646362	126.158508
599.705994	127.888112
599.765503	126.235431
599.825134	128.186480
599.884766	125.995338
599.944275	126.986014
600.003845	119.573427
600.063293	115.174825
600.122864	110.850816
600.182312	114.261072
600.241821	116.265734
600.301147	119.890443
600.360657	122.815851
600.420044	130.254079
600.479492	134.163170
600.538879	134.818182
600.598267	134.419580
600.657654	130.319347
600.716919	120.757576
600.776306	118.969697
600.835571	115.995338
600.894958	120.398601
600.954224	118.195804
601.013489	114.876457
601.072754	114.519814
601.131958	120.151515
601.191223	123.086247
601.250366	123.228438
601.309570	121.554779
601.368774	125.032634
601.427917	122.498834
601.487061	123.384615
601.546204	126.018648
601.605347	133.634033
601.664368	131.897436
601.723511	129.389277
601.782532	127.386946
601.841614	129.631702
601.900635	126.715618
601.959656	124.027972
602.018677	121.515152
602.077698	127.554779
602.136658	124.799534
602.195618	124.641026
602.254517	125.463869
602.313477	126.128205
602.372375	120.368298
602.431335	119.375291
602.490173	118.111888
602.549011	117.778555
602.607910	115.878788
602.666748	121.622378
602.725525	117.834499
602.784302	117.962704
602.843079	116.631702
602.901855	113.906760
602.960632	114.144522
603.019409	110.785548
603.078125	110.979021
603.136780	115.163170
603.195496	115.526807
603.254150	118.787879
603.312866	125.501166
603.371521	126.188811
603.430115	124.393939
603.488770	122.941725
603.547363	121.806527
603.605957	123.307692
603.664490	122.170163
603.723083	114.906760
603.781616	110.025641
603.840149	110.055944
603.898621	111.370629
603.957153	112.780886
604.015625	118.144522
604.074036	118.501166
604.132507	121.941725
604.190918	121.785548
604.249390	123.244755
604.307739	126.487179
604.366150	124.382284
604.424500	121.361305
604.482849	124.172494
604.541260	122.897436
604.599548	122.995338
604.657776	119.573427
604.716064	116.310023
604.774414	116.249417
604.832642	113.347319
604.890869	113.303030
604.949158	110.678322
605.007263	109.083916
605.065552	105.305361
605.123657	107.487179
605.181885	110.561772
605.239929	105.820513
605.298157	105.743590
605.356201	104.564103
605.414307	105.659674
605.472351	113.284382
605.530518	114.431235
605.588562	116.664336
605.646606	116.917249
605.704651	116.011655
605.762573	114.784382
605.820618	115.976690
605.878540	116.220280
605.936584	111.981352
605.994507	107.733100
606.052368	109.452214
606.110352	109.851981
606.168213	104.351981
606.226074	99.238928
606.283936	97.655012
606.341797	102.630536
606.399658	105.100233
606.457520	105.254079
606.515259	107.972028
606.572998	112.666667
606.630859	112.946387
606.688538	114.109557
606.746338	119.435897
606.804016	117.741259
606.861755	113.981352
606.919434	112.002331
606.977112	115.787879
607.034790	120.256410
607.092407	119.410256
607.150085	119.496503
607.207642	122.237762
607.265320	125.986014
607.322815	126.888112
607.380432	121.368298
607.437988	124.135198
607.495544	124.529138
607.553040	124.829837
607.610535	120.666667
607.668030	122.561772
607.725464	121.393939
607.782898	121.361305
607.840332	119.720280
607.897766	117.107226
607.955200	117.582751
608.012634	115.242424
608.070007	109.163170
608.127319	110.578089
608.184753	112.114219
608.242004	113.317016
608.299377	115.878788
608.356628	121.326340
608.413940	125.615385
608.471252	130.235431
608.528442	129.666667
608.585693	129.841492
608.642883	128.030303
608.700134	127.275058
608.757263	118.578089
608.814453	116.979021
608.871582	113.589744
608.928711	111.111888
608.985840	112.722611
609.042969	114.557110
609.100098	117.899767
609.157104	122.797203
609.214233	124.258741
609.271240	122.792541
609.328308	119.142191
609.385254	120.596737
609.442322	112.251748
609.499329	113.494172
609.556274	109.165501
609.613220	104.221445
609.670105	102.223776
609.727112	105.729604
609.783936	106.592075
609.840820	110.923077
609.897705	113.016317
609.954590	113.540793
610.011475	113.384615
610.068176	114.862471
610.125061	113.797203
610.181763	114.289044
610.238647	113.384615
610.295288	116.177156
610.352112	122.317016
610.408813	130.687646
610.465576	130.717949
610.522278	134.475524
610.578918	133.776224
610.635620	130.261072
610.692261	124.811189
610.748901	118.918415
610.805481	111.212121
610.862122	107.221445
610.918762	107.475524
610.975281	112.869464
611.031799	114.188811
611.088318	117.666667
611.144897	118.685315
611.201355	120.093240
611.257874	115.342657
611.314331	114.892774
611.370789	112.069930
611.427185	111.209790
611.483704	108.839161
611.540100	111.230769
611.596497	110.731935
611.652893	114.377622
611.709167	112.708625
611.765564	119.289044
611.821899	122.002331
611.878235	122.734266
611.934509	115.407925
611.990784	111.382284
612.047058	107.692308
612.103271	107.806527
612.159546	107.214452
612.215759	104.219114
612.271973	101.839161
612.328186	103.363636
612.384338	104.627040
612.440430	113.132867
612.496643	114.011655
612.552734	116.326340
612.608887	109.692308
612.664917	109.445221
612.721008	113.843823
612.777100	116.850816
612.833069	122.179487
612.889160	117.191142
612.945190	110.456876
613.001160	112.158508
613.057129	114.995338
613.113037	113.053613
613.169067	108.165501
613.224976	105.023310
613.280945	98.188811
613.336792	104.787879
613.392639	110.125874
613.448547	115.358974
613.504395	116.298368
613.560303	113.065268
613.616028	112.407925
613.671875	115.440559
613.727661	117.585082
613.783447	114.256410
613.839172	108.750583
613.894897	108.135198
613.950623	106.379953
614.006348	109.641026
614.062073	114.188811
614.117676	116.953380
614.173401	114.221445
614.229004	114.177156
614.284668	109.664336
614.340332	105.881119
614.395874	108.310023
614.451477	115.037296
614.507019	116.379953
614.562622	123.561772
614.618042	127.191142
614.673584	131.522145
614.729065	137.356643
614.784546	141.277389
614.840027	139.240093
614.895508	135.041958
614.950989	127.013986
615.006348	124.233100
615.061768	120.200466
615.117126	122.459207
615.172546	121.046620
615.227844	121.685315
615.283203	119.909091
615.338562	117.629371
615.393799	113.736597
615.449219	120.675991
615.504456	118.179487
615.559753	117.424242
615.614868	112.337995
615.670166	111.668998
615.725403	106.335664
615.780579	107.678322
615.835754	108.787879
615.890869	114.184149
615.946045	116.065268
616.001160	117.561772
616.056274	116.543124
616.111328	120.111888
616.166504	117.951049
616.221497	118.757576
616.276611	115.769231
616.331665	118.953380
616.386597	117.382284
616.441650	121.864802
616.496582	118.965035
616.551575	120.608392
616.606506	120.550117
616.661438	121.906760
616.716431	120.610723
616.771301	120.375291
616.826233	120.286713
616.881042	121.668998
616.935913	120.207459
616.990723	121.062937
617.045593	117.473193
617.100342	121.827506
617.155212	118.997669
617.209900	118.435897
617.264709	121.524476
617.319458	122.729604
617.374146	119.895105
617.428955	120.151515
617.483582	117.247086
617.538269	116.337995
617.592896	113.762238
617.647583	116.307692
617.702209	116.841492
617.756836	125.051282
617.811462	128.937063
617.866028	125.969697
617.920593	125.354312
617.975098	122.759907
618.029663	119.773893
618.084229	120.734266
618.138672	114.172494
618.193176	114.717949
618.247620	113.510490
618.302124	113.925408
618.356506	112.620047
618.410950	114.186480
618.465332	117.282051
618.519714	115.421911
618.574036	115.165501
618.628418	119.095571
618.682800	120.093240
618.737061	124.337995
618.791443	124.510490
618.845703	129.850816
618.899963	130.279720
618.954224	131.585082
619.008484	131.734266
619.062744	131.927739
619.116943	130.601399
619.171143	121.662005
619.225281	115.249417
619.279480	120.785548
619.333557	118.088578
619.387756	119.976690
619.441833	121.974359
619.495911	120.300699
619.549927	123.650350
619.604065	130.379953
619.658142	130.498834
619.712158	132.524476
619.766174	127.771562
619.820129	124.888112
619.874146	129.118881
619.928101	135.132867
619.982056	135.256410
620.036011	139.792541
620.089905	134.184149
620.143860	130.442890
620.197693	130.200466
620.251587	128.848485
620.305359	131.668998
620.359253	133.240093
620.413025	129.237762
620.466858	134.251748
620.520630	134.519814
620.574402	137.797203
620.628174	139.328671
620.681885	143.934732
620.735657	138.717949
620.789307	139.433566
620.843018	135.349650
620.896667	135.030303
620.950378	140.421911
621.004028	139.855478
621.057617	139.745921
621.111206	140.426573
621.164795	133.617716
621.218445	134.484848
621.271912	131.023310
621.325500	135.039627
621.379028	129.200466
621.432556	129.044289
621.486084	129.636364
621.539490	129.927739
621.592957	134.095571
621.646423	133.475524
621.699890	131.839161
621.753235	129.596737
621.806641	123.687646
621.859985	124.251748
621.913391	120.659674
621.966736	121.874126
622.020020	114.226107
622.073364	117.657343
622.126648	117.328671
622.179932	120.932401
622.233215	121.680653
622.286438	119.037296
622.339722	115.617716
622.392883	112.027972
622.446167	103.398601
622.499268	99.941725
622.552429	95.829837
622.605591	96.116550
622.658691	92.582751
622.711853	100.417249
622.764954	106.305361
622.818054	114.307692
622.871094	120.899767
622.924133	126.986014
622.977173	123.778555
623.030212	118.848485
623.083191	111.244755
623.136169	108.300699
623.189148	99.918415
623.242126	92.547786
623.295105	88.284382
623.347961	92.340326
623.400940	93.123543
623.453735	96.797203
623.506653	102.643357
623.559448	101.151515
623.612366	96.627040
623.665222	94.102564
623.717957	97.629371
623.770813	100.524476
623.823547	98.529138
623.876282	101.522145
623.928955	101.470862
623.981750	105.293706
624.034424	102.627040
624.087097	104.067599
624.139771	100.244755
624.192505	97.489510
624.245117	96.314685
624.297668	98.617716
624.350342	103.927739
624.402893	106.951049
624.455505	108.808858
624.508057	106.881119
624.560608	104.990676
624.613159	107.331002
624.665649	107.883450
624.718140	105.969697
624.770630	101.829837
624.823120	103.410256
624.875488	104.132867
624.927917	106.813520
624.980347	103.004662
625.032776	100.305361
625.085083	96.139860
625.137512	93.540793
625.189819	95.221445
625.242187	102.613054
625.294495	109.398601
625.346741	106.142191
625.398987	106.666667
625.451294	107.946387
625.503540	104.615385
625.555786	104.699301
625.607971	101.459207
625.660217	98.410256
625.712341	94.580420
625.764587	90.193473
625.816650	91.393939
625.868774	97.475524
625.920898	99.188811
625.972961	102.937063
626.025085	106.545455
626.077148	107.666667
626.129211	104.293706
626.181213	110.286713
626.233276	108.249417
626.285217	104.104895
626.337219	102.631702
626.389160	99.645688
626.441101	96.179487
626.493103	93.878788
626.544983	94.874126
626.596863	98.820513
626.648743	98.822844
626.700623	103.862471
626.752441	102.109557
626.804321	107.116550
626.856140	106.445221
626.907959	110.703963
626.959717	113.757576
627.011475	112.310023
627.063232	105.545455
627.114929	105.564103
627.166687	107.979021
627.218323	107.333333
627.270020	107.314685
627.321716	107.258741
627.373413	102.419580
627.425049	103.221445
627.476624	109.081585
627.528259	111.048951
627.579773	111.724942
627.631348	111.841492
627.682922	111.135198
627.734497	111.240093
627.786011	113.750583
627.837463	116.696970
627.888977	111.988345
627.940430	104.594406
627.991882	100.983683
628.043274	97.347319
628.094788	92.109557
628.146118	90.738928
628.197510	86.934732
628.248840	85.118881
628.300232	81.543124
628.351624	78.069930
628.402893	83.461538
628.454224	91.892774
628.505493	91.659674
628.556763	94.165501
628.607971	96.717949
628.659241	96.403263
628.710449	96.993007
628.761658	103.172494
628.812866	99.102564
628.863953	95.508159
628.915161	86.748252
628.966248	83.689977
629.017395	85.494172
629.068542	89.303030
629.119568	90.254079
629.170654	88.097902
629.221680	88.433566
629.272766	95.841492
629.323730	102.682984
629.374756	100.149184
629.425720	101.018648
629.476685	96.536131
629.527649	95.079254
629.578552	94.118881
629.629578	94.354312
629.680420	96.566434
629.731323	96.102564
629.782166	94.163170
629.833008	96.682984
629.883789	101.972028
629.934692	98.722611
629.985535	95.048951
630.036255	92.592075
630.087097	88.347319
630.137817	85.585082
630.188538	84.515152
630.239197	84.517483
630.289978	86.946387
630.340576	89.270396
630.391296	90.093240
630.441956	90.384615
630.492554	91.983683
630.543213	95.289044
630.593811	98.321678
630.644409	96.748252
630.694885	99.834499
630.745483	100.564103
630.796021	105.536131
630.846558	99.293706
630.897095	97.545455
630.947571	98.433566
630.997986	97.741259
631.048401	97.785548
631.098877	97.184149
631.149292	98.997669
631.199707	96.228438
631.250122	99.864802
631.300415	104.251748
631.350769	109.209790
631.401123	109.419580
631.451416	105.365967
631.501770	106.081585
631.552063	106.822844
631.602295	102.743590
631.652527	91.391608
631.702759	86.727273
631.752991	83.463869
631.803223	81.265734
631.853394	82.466200
631.903564	80.435897
631.953674	82.191142
632.003845	87.752914
632.053894	90.888112
632.104004	88.995338
632.154114	89.666667
632.204163	83.806527
632.254211	78.137529
632.304199	84.496503
632.354309	87.207459
632.404236	91.251748
632.454285	92.226107
632.504211	94.074592
632.554138	93.389277
632.604065	97.410256
632.653992	97.818182
632.703857	94.032634
632.753723	90.256410
632.803650	85.766900
632.853455	84.696970
632.903320	88.072261
632.953064	87.207459
633.002930	91.878788
633.052734	95.731935
633.102417	101.242424
633.152222	99.706294
633.201904	102.918415
633.251648	104.813520
633.301331	101.634033
633.351013	96.275058
633.400635	95.652681
633.450317	90.869464
633.499939	86.212121
633.549561	77.813520
633.599182	76.044289
633.648743	75.745921
633.698303	75.592075
633.747864	74.284382
633.797363	73.820513
633.846802	76.137529
633.896362	78.240093
633.945862	77.484848
633.995300	80.759907
634.044739	75.445221
634.094116	77.967366
634.143555	79.156177
634.192932	84.097902
634.242310	92.918415
634.291748	92.051282
634.341003	93.790210
634.390381	96.685315
634.439636	95.100233
634.488953	92.860140
634.538208	92.223776
634.587463	88.592075
634.636658	79.503497
634.685974	80.813520
634.735107	75.491841
634.784302	74.829837
634.833496	75.974359
634.882629	70.333333
634.931824	71.655012
634.980896	77.291375
635.030029	80.820513
635.079102	83.869464
635.128174	94.412587
635.177246	91.972028
635.226196	90.834499
635.275269	88.370629
635.324219	83.594406
635.373291	82.986014
635.422180	78.722611
635.471130	75.205128
635.520081	76.284382
635.569031	83.724942
635.617920	87.347319
635.666809	87.531469
635.715698	93.128205
635.764526	86.885781
635.813354	84.666667
635.862122	85.370629
635.910950	80.097902
635.959717	78.354312
636.008484	77.025641
636.057251	77.874126
636.105957	81.158508
636.154724	87.578089
636.203430	87.722611
636.252075	89.428904
636.300720	90.340326
636.349365	91.969697
636.398010	90.815851
636.446594	89.608392
636.495178	81.102564
636.543823	83.342657
636.592407	79.447552
636.640869	76.790210
636.689453	75.177156
636.737915	73.230769
636.786438	69.435897
636.834839	70.794872
636.883362	67.601399
636.931824	70.645688
636.980164	66.554779
637.028687	69.354312
637.077026	71.748252
637.125427	75.433566
637.173706	77.298368
637.222107	80.703963
637.270447	81.708625
637.318665	80.906760
637.366943	81.932401
637.415283	81.414918
637.463501	78.310023
637.511719	78.897436
637.559937	73.020979
637.608215	73.135198
637.656372	71.158508
637.704468	69.694639
637.752686	72.081585
637.800842	68.200466
637.848938	70.846154
637.897034	68.883450
637.945129	70.529138
637.993225	73.948718
638.041260	74.762238
638.089233	72.188811
638.137329	68.034965
638.185303	67.039627
638.233276	60.997669
638.281250	60.766900
638.329163	57.324009
638.377075	56.804196
638.425049	62.925408
638.472961	62.272727
638.520813	70.522145
638.568604	76.571096
638.616455	78.240093
638.664307	77.419580
638.712097	78.074592
638.759949	75.272727
638.807678	71.743590
638.855469	72.778555
638.903198	70.703963
638.950867	75.643357
638.998657	83.363636
639.046265	83.986014
639.094055	90.228438
639.141663	92.668998
639.189270	90.114219
639.236877	87.179487
639.284485	84.272727
639.332153	78.515152
639.379639	74.699301
639.427185	71.328671
639.474731	72.074592
639.522278	72.741259
639.569763	73.848485
639.617249	74.813520
639.664734	74.773893
639.712158	73.324009
639.759583	70.351981
639.807007	72.214452
639.854431	70.337995
639.901855	67.913753
639.949219	66.363636
639.996521	68.979021
640.043884	67.219114
640.091187	68.682984
640.138489	68.515152
640.185730	74.501166
640.232971	69.745921
640.280212	72.529138
640.327454	74.494172
640.374695	77.303030
640.421814	73.953380
640.469055	72.717949
640.516235	77.596737
640.563354	82.585082
640.610474	78.067599
640.657593	81.925408
640.704712	79.655012
640.751770	83.692308
640.798828	82.265734
640.845825	83.508159
640.892822	75.596737
640.939819	72.202797
640.986877	70.135198
641.033813	74.689977
641.080750	79.403263
641.127686	80.107226
641.174622	77.293706
641.221558	73.825175
641.268372	73.384615
641.315247	75.955711
641.362183	79.107226
641.408997	83.088578
641.455750	81.629371
641.502502	84.813520
641.549316	87.328671
641.596069	88.331002
641.642883	81.979021
641.689514	75.282051
641.736328	70.897436
641.782959	60.517483
641.829651	56.811189
641.876343	61.445221
641.922913	63.717949
641.969604	68.060606
642.016174	70.407925
642.062805	74.419580
642.109314	72.198135
642.155945	74.501166
642.202515	69.979021
642.249023	75.743590
642.295410	74.881119
642.341980	72.305361
642.388428	72.731935
642.434875	83.818182
642.481262	78.237762
642.527771	76.384615
642.574097	77.638695
642.620483	77.128205
642.666870	71.291375
642.713257	76.925408
642.759583	79.013986
642.805908	91.403263
642.852173	84.293706
642.898437	85.785548
642.944641	84.048951
642.990967	84.426573
643.037170	80.300699
643.083374	78.601399
643.129578	76.608392
643.175720	75.303030
643.221924	71.111888
643.268005	71.925408
643.314209	69.396270
643.360352	74.738928
643.406372	66.027972
643.452393	65.927739
643.498474	64.426573
643.544556	68.386946
643.590515	73.000000
643.636536	75.256410
643.682556	79.321678
643.728516	77.689977
643.774414	75.461538
643.820374	74.347319
643.866333	71.358974
643.912170	75.561772
643.958069	76.589744
644.003906	80.139860
644.049805	80.384615
644.095581	84.391608
644.141418	84.069930
644.187256	85.172494
644.232971	86.687646
644.278687	82.391608
644.324463	83.487179
644.370239	84.114219
644.415894	80.083916
644.461670	80.599068
644.507324	78.839161
644.552917	75.993007
644.598511	69.067599
644.644226	69.787879
644.689819	65.195804
644.735413	65.046620
644.781006	67.613054
644.826416	70.515152
644.872009	71.212121
644.917542	77.249417
644.963074	72.428904
645.008545	71.659674
645.054016	69.410256
645.099426	67.529138
645.144897	63.156177
645.190308	60.571096
645.235657	55.344988
645.281006	58.790210
645.326416	60.431235
645.371704	63.923077
645.416992	61.086247
645.462341	66.960373
645.507690	65.307692
645.552856	70.186480
645.598206	69.083916
645.643433	70.475524
645.688599	69.282051
645.733826	67.930070
645.778992	69.727273
645.824219	76.076923
645.869324	76.869464
645.914490	82.930070
645.959595	82.379953
646.004700	83.983683
646.049744	86.286713
646.094788	81.163170
646.139893	74.638695
646.184875	72.510490
646.229919	67.265734
646.274902	64.960373
646.319885	65.151515
646.364807	68.706294
646.409729	68.118881
646.454712	71.860140
646.499573	74.615385
646.544434	71.834499
646.589355	77.974359
646.634216	74.419580
646.679016	73.184149
646.723877	77.170163
646.768616	77.932401
646.813416	75.813520
646.858154	79.088578
646.902954	76.701632
646.947693	71.902098
646.992371	73.410256
647.036987	75.393939
647.081787	72.972028
647.126465	77.251748
647.171021	72.529138
647.215698	69.794872
647.260315	74.543124
647.304871	73.069930
647.349426	69.727273
647.393982	72.379953
647.438538	67.205128
647.483093	68.916084
647.527588	69.960373
647.571960	65.979021
647.616516	62.440559
647.660950	54.706294
647.705383	50.825175
647.749878	52.561772
647.794189	54.305361
647.838623	55.620047
647.882874	57.158508
647.927246	63.263403
647.971558	68.850816
648.015930	75.414918
648.060242	76.610723
648.104492	76.139860
648.148682	72.121212
648.192993	72.384615
648.237183	73.475524
648.281372	80.060606
648.325623	77.379953
648.369751	76.587413
648.413940	77.853147
648.458008	73.090909
648.502197	75.601399
648.546265	75.421911
648.590332	74.930070
648.634399	72.358974
648.678406	69.170163
648.722473	73.463869
648.766418	70.212121
648.810486	70.440559
648.854492	68.002331
648.898376	70.212121
648.942261	72.142191
648.986206	67.827506
649.030151	71.536131
649.074036	74.370629
649.117920	78.773893
649.161804	78.757576
649.205627	79.827506
649.249390	78.671329
649.293213	71.561772
649.337036	66.533800
649.380798	70.675991
649.424500	65.762238
649.468201	62.811189
649.511963	63.223776
649.555603	64.974359
649.599304	66.832168
649.643005	72.212121
649.686584	69.629371
649.730286	72.689977
649.773865	67.839161
649.817444	67.282051
649.860962	65.771562
649.904541	65.708625
649.948120	61.139860
649.991577	65.149184
650.035034	69.487179
650.078552	72.216783
650.122070	72.191142
650.165466	71.361305
650.208923	67.962704
650.252258	70.097902
650.295715	67.755245
650.339050	66.016317
650.382446	59.668998
650.425781	62.508159
650.469116	64.435897
650.512390	66.510490
650.555664	64.608392
650.598999	69.951049
650.642212	68.156177
650.685425	66.800533
650.728699	66.178571
650.771851	66.940060
650.815002	69.734765
650.858215	75.212454
650.901306	84.022894
