-118.067271	15.474359
-115.397671	13.703297
-112.731006	13.844156
-110.065093	15.292041
-107.402113	17.442058
-104.737702	19.689311
-102.076222	21.428904
-99.413313	16.979021
-96.755510	17.347319
-94.096278	11.801865
-91.437794	13.692308
-88.782235	7.988345
-86.125246	3.967366
-83.473356	4.610723
-80.820036	10.076923
-78.169635	11.566434
-75.517806	16.153846
-72.871067	19.125874
-70.222898	18.895105
-67.575472	17.531469
-64.930961	21.123543
-62.285020	18.634033
-59.644161	19.582751
-57.001873	16.116550
-54.362494	16.331002
-51.721686	19.965035
-49.081617	23.657343
-46.446622	20.247086
-43.810197	21.193473
-41.176675	22.717949
-38.541725	26.403263
-35.911841	28.668998
-33.278363	29.370629
-30.649948	28.242424
-28.022267	26.948718
-25.393157	25.662005
-22.769105	-20.289044
-20.141462	-289.130536
-17.518874	-1042.037296
-14.897016	-1075.195804
-12.275889	783.846154
-9.655493	4029.254079
-7.037984	6827.596737
-4.419047	8785.456876
-1.802996	9896.153846
0.812328	10161.610723
3.426923	9583.571096
6.038637	8166.976690
8.651779	5935.512821
11.259887	3018.170163
13.871576	32.575758
16.478235	-1412.139860
19.086323	-1024.939394
21.693685	-132.447552
24.296023	39.379953
26.901940	38.624709
29.502834	36.372960
32.105156	33.752914
34.702460	29.179487
37.303341	24.724942
39.899206	24.925408
42.496500	21.538462
45.093074	22.846154
47.684639	21.536131
50.277632	18.414918
52.867764	20.601399
55.459323	21.501166
58.048024	21.167832
60.638151	22.426573
63.223279	22.615385
65.809835	21.682984
68.395677	20.139860
70.978664	18.745921
73.563079	15.300699
76.140365	11.836830
78.721217	6.438228
81.299220	4.652681
83.876513	3.710956
86.455232	3.454545
89.028969	2.160839
91.604133	7.361305
94.176454	12.158508
96.748068	15.550117
99.316841	15.041958
101.887041	18.755245
104.454402	21.988345
107.023190	22.745921
109.589141	24.116550
112.152257	27.596737
114.718929	27.435897
117.276379	28.561772
119.839515	32.435897
122.397692	42.897436
124.959423	60.638695
127.516197	91.226107
130.074397	142.682984
132.627645	213.319347
135.180195	293.237762
137.736295	377.058275
140.287447	458.790210
142.837902	542.135198
145.387659	619.039627
147.934597	674.927739
150.480840	716.370629
153.028508	735.034965
155.575480	744.167832
158.117517	758.997669
160.658860	771.713287
163.199510	774.962704
165.741586	773.121212
168.280850	769.659674
170.817305	762.701632
173.353070	759.554779
175.890260	761.116550
178.426759	757.755245
180.960452	752.205128
183.491341	750.235431
186.021542	748.603730
188.553169	762.801865
191.081994	765.412587
193.608020	771.158508
196.133360	779.006993
198.660125	788.589744
201.184094	794.668998
203.707378	795.895105
206.229976	799.356643
208.749782	797.482517
211.268905	794.836830
213.787346	800.580420
216.307210	802.741259
218.820072	808.888112
221.336467	805.734266
223.852179	810.566434
226.363001	811.293706
228.875248	816.699301
231.384712	819.547786
233.893498	817.137529
236.401606	812.923077
238.911138	815.939394
241.415789	827.489510
243.919764	837.571096
246.425163	846.815851
248.925687	848.041958
251.429734	848.342657
253.926811	850.118881
256.427411	851.708625
258.925239	852.664336
261.422394	849.487179
263.918876	851.596737
266.410495	851.144522
268.905634	855.167832
271.398006	861.354312
273.889708	858.601399
276.378647	861.762238
278.869009	857.615385
281.356610	860.072261
283.841451	853.533800
286.329807	861.743590
288.811223	859.811189
291.296153	866.081585
293.776238	872.815851
296.259835	876.018648
298.738589	875.897436
301.218766	881.088578
303.696192	882.477855
306.172954	893.655012
308.649052	901.461538
311.122402	923.752914
313.595091	939.729604
316.067118	965.137529
318.538483	977.734266
321.007105	989.205128
323.475067	995.368298
325.944452	991.979021
328.409014	978.832168
330.877080	969.291375
333.340325	955.743590
335.802914	939.710956
338.264846	934.023310
340.726121	938.428904
343.184661	939.249417
345.644625	938.088578
348.101855	939.543124
350.558431	937.874126
353.014353	943.321678
355.467545	938.242424
357.922160	938.128205
360.371973	941.787879
362.825282	940.871795
365.273792	940.899767
367.721652	947.822844
370.170934	951.272727
372.615422	950.946387
375.061332	946.242424
377.506592	947.811189
379.949134	946.764569
382.391028	945.762238
384.832274	940.680653
387.270806	940.128205
389.710758	938.769231
392.147997	936.386946
394.582525	940.174825
397.020539	937.552448
399.453778	933.396270
401.888437	936.867133
404.318324	934.794872
406.751696	938.230769
409.180298	944.254079
411.608258	946.958042
414.037640	954.738928
416.462256	960.256410
418.888294	969.137529
421.313691	969.559441
423.738448	971.149184
426.158446	976.363636
428.579866	979.027972
430.998590	988.748252
433.418734	986.254079
435.836183	991.417249
438.255052	991.146853
440.671227	991.335664
443.082656	995.508159
445.497561	999.044289
447.909777	999.186480
450.321358	995.501166
452.732305	991.995338
455.140565	992.794872
457.548194	990.503497
459.955190	991.151515
462.361555	985.477855
464.765237	983.776224
467.168289	979.191142
469.570711	982.398601
471.972503	981.062937
474.371617	985.137529
476.772151	989.365967
479.172056	994.918415
481.567239	1000.347319
483.965888	1007.062937
486.359816	1005.286713
488.753119	1000.519814
491.145797	987.701632
493.537849	976.452214
495.931319	965.571096
498.320077	954.717949
500.706169	940.701632
503.093681	927.713287
505.480570	919.000000
507.864795	912.223776
510.250438	910.692308
512.633420	903.752914
515.013741	895.944056
517.395481	895.790210
519.774562	889.622378
522.155061	890.123543
524.532904	889.932401
526.908090	890.897436
529.282660	894.787879
531.658647	887.230769
534.031982	888.857809
536.406734	891.482517
538.776800	891.615385
541.146252	891.818182
543.517121	893.135198
545.883309	898.955711
548.250916	901.519814
550.615878	906.312354
552.980226	905.822844
555.343961	910.682984
557.709114	910.498834
560.069595	903.750583
562.431494	903.596737
564.790752	903.060606
567.147372	905.461538
569.507438	904.020979
571.860812	898.776224
574.217631	900.934732
576.571815	903.939394
578.925390	901.750583
581.278358	900.400932
583.628693	904.198135
585.980446	894.713287
588.325522	889.263403
590.676061	883.407925
593.019928	886.983683
595.369256	894.494172
597.713935	895.219114
600.055990	895.307692
602.399462	898.622378
604.740311	906.048951
607.080557	906.421911
609.418183	910.114219
611.759244	906.878788
614.095668	901.368298
616.433508	894.566434
618.768731	884.613054
621.101337	886.867133
623.435361	882.347319
625.766770	887.459207
628.097581	893.543124
630.427794	901.188811
632.757410	913.170163
635.082402	921.536131
637.412836	933.104895
639.738649	936.447552
642.061854	942.503497
644.386476	937.585082
646.708492	928.277389
649.029914	920.902098
651.348733	915.641026
653.668969	917.923077
655.988611	911.512821
658.305652	910.550117
660.622101	913.144522
662.935952	919.398601
665.251219	926.529138
667.563889	926.634033
669.877974	926.557110
672.187459	922.920746
674.498360	922.641026
676.806668	919.652681
679.114388	927.811189
681.423522	924.902098
683.728064	915.344988
686.032020	918.282051
688.335390	917.382284
690.640174	919.011655
692.940371	918.909091
695.241984	920.554779
697.543011	915.081585
699.839457	917.303030
702.137318	919.601399
704.434595	917.710956
706.731289	921.167832
709.023407	918.526807
711.318936	907.121212
713.609891	906.930070
715.902261	906.107226
718.192056	909.540793
720.481270	918.097902
722.769905	926.806527
725.055967	930.582751
727.343444	945.720280
729.628349	951.750583
731.912677	957.006993
734.194436	954.547786
736.477609	954.946387
738.760205	950.156177
741.038245	947.540793
743.317699	944.284382
745.596578	941.116550
747.874882	945.955711
750.148636	949.652681
752.423803	952.200466
754.698397	958.876457
756.970432	962.599068
759.243880	961.135198
761.514770	962.979021
763.783104	967.752914
766.052851	971.522145
768.320043	971.146853
770.586666	968.410256
772.852718	974.951049
775.116219	981.174825
777.381133	983.291375
779.645477	980.675991
781.905292	983.449883
784.166519	982.820513
786.427179	979.456876
788.685293	978.023310
790.940862	968.536131
793.199821	963.088578
795.452282	965.305361
797.710110	965.317016
799.963419	970.529138
802.214188	966.993007
804.466369	975.088578
806.716011	979.867133
808.967065	984.599068
811.213609	986.062937
813.461564	991.829837
815.706985	989.125874
817.953817	985.282051
820.200088	989.200466
822.441854	997.158508
824.687004	992.981352
826.925681	993.972028
829.167740	984.244755
831.405301	981.995338
833.644274	974.072261
835.880720	969.624709
838.118577	964.641026
840.353909	967.776224
842.586718	966.263403
844.820937	975.468531
847.052635	985.142191
849.283778	998.699301
851.514366	1002.310023
853.744400	1008.969697
855.973880	1002.673660
858.198878	1003.139860
860.427250	1007.834499
862.651144	1008.722611
864.876449	998.449883
867.097278	993.573427
869.321479	986.174825
871.541207	988.214452
873.762345	985.715618
875.982933	990.925408
878.201012	987.195804
880.420500	989.731935
882.635522	983.608392
884.849996	990.139860
887.063923	1000.172494
889.277303	1003.946387
891.490135	999.344988
893.702420	1001.289044
895.912204	998.319347
898.121442	1002.412587
900.330135	1005.272727
902.536328	1008.331002
904.743932	1007.314685
906.949037	1009.319347
909.153599	999.305361
911.355666	1011.918415
913.559142	1021.587413
915.760124	1024.759907
917.960564	1022.172494
920.162413	1025.275058
922.357871	1022.237762
924.556687	1026.186480
926.751066	1023.627040
928.948802	1019.060606
931.142102	1021.878788
933.336811	1019.312354
935.529033	1016.144522
937.720718	1027.993007
939.911865	1034.275058
942.100529	1033.508159
944.288657	1039.018648
946.474303	1042.722611
948.663303	1049.832168
950.847879	1058.958042
953.031920	1056.801865
955.219311	1059.347319
957.398398	1065.284382
959.580836	1060.594406
961.762740	1056.447552
963.942169	1049.165501
966.119126	1054.731935
968.297491	1051.948718
970.477263	1051.825175
972.650686	1048.191142
974.827455	1047.421911
976.999817	1050.878788
979.173587	1055.331002
981.342953	1060.687646
983.515663	1061.058275
985.685908	1067.997669
987.855623	1069.114219
990.024810	1072.454545
992.189600	1090.808858
994.357732	1090.438228
996.521468	1088.349650
998.686612	1090.023310
1000.849296	1086.664336
1003.011455	1094.815851
1005.171157	1097.675991
1007.330334	1098.379953
1009.490918	1095.857809
1011.649047	1106.240093
1013.806653	1106.652681
1015.963735	1109.832168
1018.120293	1111.025641
1020.272472	1104.298368
1022.426058	1098.547786
1024.579122	1104.568765
1026.729737	1107.846154
1028.881758	1121.013986
1031.029407	1122.270396
1033.180387	1129.538462
1035.326996	1130.522145
1037.473086	1140.925408
1039.618658	1139.573427
1041.765635	1144.564103
1043.906323	1138.522145
1046.050340	1137.214452
1048.191918	1132.386946
1050.332978	1137.701632
1052.475444	1140.731935
1054.611629	1149.407925
1056.751141	1145.310023
1058.886297	1143.720280
1061.024778	1145.058275
1063.158906	1144.393939
1065.292520	1137.594406
1067.427538	1139.482517
1069.558208	1136.097902
1071.690282	1136.601399
1073.819927	1125.983683
1075.949060	1126.769231
1078.077681	1122.156177
1080.205791	1129.706294
1082.331475	1124.857809
1084.456649	1117.606061
1086.583227	1113.986014
1088.705467	1109.832168
1090.829112	1107.673660
1092.948422	1107.682984
1095.072961	1114.417249
1097.191256	1113.571096
1099.310954	1109.710956
1101.428235	1116.069930
1103.545008	1114.193473
1105.661276	1129.459207
1107.775127	1124.282051
1109.890382	1124.939394
1112.001315	1127.447552
1114.115560	1132.032634
1116.225484	1131.990676
1118.336812	1126.937063
1120.447635	1127.482517
1122.554142	1124.564103
1124.663958	1122.023310
1126.769461	1121.386946
1128.876366	1123.494172
1130.977056	1128.722611
1133.082958	1119.354312
1135.184551	1119.655012
1137.287547	1119.170163
1139.390042	1118.745921
1141.486330	1123.435897
1143.587825	1126.130536
1145.685018	1128.696970
1147.781713	1131.340326
1149.877909	1131.114219
1151.973607	1134.531469
1154.068808	1137.310023
1156.161612	1129.962704
1158.255818	1120.186480
1160.343833	1112.072261
1162.437047	1118.825175
1164.524072	1127.261072
1166.614396	1130.445221
1168.700432	1133.226107
1170.789766	1125.303030
1172.872920	1118.967366
1174.957475	1121.109557
1177.043432	1124.177156
1179.125107	1118.724942
1181.208183	1112.706294
1183.288874	1108.818182
1185.369074	1118.090909
1187.448782	1130.888112
1189.527999	1132.662005
1191.604833	1124.386946
1193.679287	1120.151515
1195.757033	1116.645688
1197.830508	1117.689977
1199.905385	1124.815851
1201.975994	1126.918415
1204.048004	1127.685315
1206.117638	1138.184149
1208.188673	1139.932401
1210.259221	1157.223776
1212.325507	1157.820513
1214.393194	1157.585082
1216.458508	1148.319347
1218.525224	1145.613054
1220.587683	1143.470862
1222.653427	1138.571096
1224.714917	1136.100233
1226.777808	1134.892774
1228.838330	1135.944056
1230.898370	1143.673660
1232.957926	1142.655012
1235.015118	1150.356643
1237.071827	1151.477855
1239.126174	1152.997669
1241.183802	1147.412587
1243.239066	1149.540793
1245.290091	1152.587413
1247.342515	1157.060606
1249.394459	1157.666667
1251.444045	1155.792541
1253.493152	1153.375291
1255.541780	1159.445221
1257.589930	1156.379953
1259.637602	1159.946387
1261.681043	1162.552448
1263.727760	1162.655012
1265.772123	1158.275058
1267.816010	1156.177156
1269.857545	1152.652681
1271.896731	1145.240093
1273.939190	1134.307692
1275.977426	1137.447552
1278.017061	1139.163170
1280.056221	1146.146853
1282.091162	1147.615385
1284.127502	1152.030303
1286.161498	1151.044289
1288.196891	1150.020979
1290.228071	1141.536131
1292.260650	1136.076923
1294.292757	1124.547786
1296.322523	1126.557110
1298.353686	1117.025641
1300.380643	1123.214452
1302.408997	1127.433566
1304.433146	1131.526807
1306.460561	1131.487179
1308.483773	1132.652681
1310.508383	1131.226107
1312.530659	1135.125874
1314.554331	1136.540793
1316.575671	1136.778555
1318.596544	1134.925408
1320.616949	1144.510490
1322.633161	1137.104895
1324.650770	1143.993007
1326.666051	1142.701632
1328.684591	1143.874126
1330.698941	1147.599068
1332.710966	1154.391608
1334.726249	1155.825175
1336.737346	1159.209790
1338.749839	1156.599068
1340.758150	1149.459207
1342.769717	1152.708625
1344.775245	1154.620047
1346.784028	1147.032634
1348.788633	1139.680653
1350.796492	1130.578089
1352.803889	1138.794872
1354.805255	1145.939394
1356.808017	1157.018648
1358.810320	1161.410256
1360.812163	1169.561772
1362.813546	1171.946387
1364.812615	1170.986014
1366.811227	1170.011655
1368.809379	1151.463869
1370.807074	1146.668998
1372.800606	1135.501166
1374.795533	1127.846154
1376.790004	1127.801865
1378.784018	1126.228438
1380.775725	1131.801865
1382.766976	1133.925408
1384.755922	1144.552448
1386.746264	1148.979021
1388.736150	1148.785548
1390.723732	1149.547786
1392.710861	1159.307692
1394.695688	1179.853147
1396.681910	1179.874126
1398.665831	1180.102564
1400.649300	1178.473193
1402.632317	1179.540793
1404.613036	1179.874126
1406.595149	1170.407925
1408.574965	1164.587413
1410.554331	1153.491841
1412.529558	1139.979021
1414.508023	1136.351981
1416.484195	1149.428904
1418.459917	1156.757576
1420.435191	1152.909091
1422.408173	1151.284382
1424.380707	1156.342657
1426.352793	1166.890443
1428.324432	1171.890443
1430.291942	1167.529138
1432.264526	1175.596737
1434.229304	1176.004662
1436.199155	1178.855478
1438.164881	1178.305361
1440.132001	1186.167832
1442.096837	1183.729604
1444.057553	1179.375291
1446.023337	1171.286713
1447.983166	1169.874126
1449.944389	1167.055944
1451.907003	1165.559441
1453.865503	1164.272727
1455.823561	1174.083916
1457.781177	1175.916084
1459.738350	1178.254079
1461.693248	1172.365967
1463.649539	1172.011655
1465.603555	1171.899767
1467.557130	1172.764569
1469.508433	1160.221445
1471.461128	1157.659674
1473.411552	1148.289044
1475.361537	1146.277389
1477.311083	1149.878788
1479.258360	1154.706294
1481.203369	1149.195804
1483.149771	1154.717949
1485.095735	1151.379953
1487.041262	1154.170163
1488.984523	1162.123543
1490.927348	1163.319347
1492.867910	1161.048951
1494.809864	1159.065268
1496.749555	1147.664336
1498.688811	1155.097902
1500.627633	1154.638695
1502.564195	1147.268065
1504.502148	1135.296037
1506.437842	1137.601399
1508.373103	1129.027972
1510.306107	1136.188811
1512.238679	1140.566434
1514.170819	1143.778555
1516.102527	1143.913753
1518.031982	1145.095571
1519.962827	1146.333333
1521.893240	1158.883450
1523.819581	1160.412587
1525.747312	1160.051282
1527.672794	1159.165501
1529.597846	1161.100233
1531.522469	1165.524476
1533.446662	1173.766900
1535.368609	1179.053613
1537.291946	1173.473193
1539.213036	1167.060606
1541.131882	1165.652681
1543.052118	1169.347319
1544.970110	1166.680653
1546.887676	1163.976690
1548.803001	1159.470862
1550.719715	1163.258741
1552.632374	1169.163170
1554.548236	1185.717949
1556.461860	1202.247086
1558.373245	1222.981352
1560.286020	1230.002331
1562.194745	1261.778555
1564.104859	1294.363636
1566.014550	1347.048951
1567.923818	1408.622378
1569.830851	1487.566434
1571.735653	1604.561772
1573.641842	1724.459207
1575.545801	1842.060606
1577.449338	1943.904429
1579.352455	1997.613054
1581.253342	2009.818182
1583.155618	1967.629371
1585.055665	1895.713287
1586.957101	1784.090909
1588.854503	1660.041958
1590.751486	1547.186480
1592.648051	1438.221445
1594.546003	1370.389277
1596.438121	1313.955711
1598.333433	1285.617716
1600.228327	1266.431235
1602.120999	1246.214452
1604.013254	1237.286713
1605.903290	1232.720280
1607.792910	1223.766900
1609.682115	1220.755245
1611.570904	1212.668998
1613.457477	1217.186480
1615.345437	1203.396270
1617.229380	1201.972028
1619.114710	1201.088578
1620.999627	1196.258741
1622.882330	1195.037296
1624.766420	1186.354312
1626.646498	1182.447552
1628.527964	1184.808858
1630.407218	1174.801865
1632.287860	1175.034965
1634.162697	1164.855478
1636.042515	1163.592075
1637.918329	1158.645688
1639.793732	1162.748252
1641.670521	1163.144522
1643.541513	1160.118881
1645.415688	1167.662005
1647.285863	1166.284382
1649.159219	1162.384615
1651.030372	1161.487179
1652.899323	1154.128205
1654.769660	1150.109557
1656.636004	1136.671329
1658.503733	1135.685315
1660.369263	1133.941725
1662.236179	1135.589744
1664.099105	1133.603730
1665.963418	1132.571096
1667.825534	1142.284382
1669.687245	1139.477855
1671.550341	1135.317016
1673.411243	1139.440559
1675.269952	1140.296037
1677.128257	1135.368298
1678.987946	1134.060606
1680.841869	1136.340326
1682.698965	1138.501166
1684.555657	1142.004662
1686.408374	1136.305361
1688.264262	1135.731935
1690.116176	1134.641026
1691.967689	1125.820513
1693.818801	1118.997669
1695.669512	1116.298368
1697.519823	1115.568765
1699.367950	1117.132867
1701.217461	1122.766900
1703.061222	1127.808858
1704.909934	1136.932401
1706.752899	1140.857809
1708.599030	1145.051282
1710.441200	1152.326340
1712.286535	1151.764569
1714.126129	1146.759907
1715.967107	1144.657343
1717.809468	1140.181818
1719.647872	1137.736597
1721.487660	1140.095571
1723.325273	1130.827506
1725.162491	1124.508159
1726.997535	1114.731935
1728.833962	1103.911422
1730.668216	1106.139860
1732.502077	1100.927739
1734.335543	1097.379953
1736.165063	1093.424242
1737.997743	1102.449883
1739.826478	1101.925408
1741.658370	1111.403263
1743.486320	1118.860140
1745.313878	1117.578089
1747.141045	1120.869464
1748.967820	1119.925408
1750.794203	1121.296037
1752.616650	1123.477855
1754.442252	1119.121212
1756.263919	1119.186480
1758.086967	1127.815851
1759.907855	1129.062937
1761.728354	1122.701632
1763.550233	1131.724942
1765.366413	1132.044289
1767.185745	1136.405594
1769.001150	1139.149184
1770.819706	1131.167832
1772.634336	1127.300699
1774.448579	1119.993007
1776.262436	1117.261072
1778.075906	1120.452214
1779.887223	1116.163170
1781.699920	1102.564103
1783.512232	1100.442890
1785.320625	1106.624709
1787.130400	1110.146853
1788.936260	1118.391608
1790.745265	1123.997669
1792.550357	1126.792541
1794.356830	1128.547786
1796.162919	1122.265734
1797.965097	1118.510490
1799.770420	1113.030303
1801.571833	1105.188811
1803.374628	1099.305361
1805.173516	1092.230769
1806.973785	1088.801865
1808.773672	1090.314685
1810.571417	1097.214452
1812.368782	1110.051282
1814.165766	1119.074592
1815.962371	1119.743590
1817.756835	1114.724942
1819.552680	1114.529138
1821.342869	1116.125874
1823.137955	1115.435897
1824.927388	1110.790210
1826.719959	1108.048951
1828.510394	1109.102564
1830.298694	1099.657343
1832.090130	1103.067599
1833.875921	1107.806527
1835.663091	1102.000000
1837.448129	1104.715618
1839.236300	1100.689977
1841.020587	1103.300699
1842.802743	1097.393939
1844.586279	1101.135198
1846.367686	1104.724942
1848.150471	1104.925408
1849.929377	1103.414918
1851.709661	1097.808858
1853.487820	1097.554779
1855.267357	1092.641026
1857.044768	1086.158508
1858.820057	1095.790210
1860.596723	1085.125874
1862.371267	1088.337995
1864.147188	1088.039627
1865.917490	1093.578089
1867.690919	1089.030303
1869.462228	1080.181818
1871.233166	1081.585082
1873.005482	1084.778555
1874.772184	1076.773893
1876.542011	1078.762238
1878.307975	1089.333333
1880.077063	1092.223776
1881.842289	1091.235431
1883.607147	1102.622378
1885.373381	1098.899767
1887.135758	1091.177156
1888.897766	1084.622378
1890.659408	1085.685315
1892.420682	1090.174825
1894.181590	1097.072261
1895.942130	1097.592075
1897.700562	1108.762238
1899.458627	1118.538462
1901.214585	1118.048951
1902.971919	1119.706294
1904.728888	1116.843823
1906.483750	1107.906760
1908.236508	1105.083916
1909.988901	1099.062937
1911.742671	1101.142191
1913.494337	1097.937063
1915.243900	1099.461538
1916.994840	1095.419580
1918.745416	1102.974359
1920.492154	1108.554779
1922.240267	1107.256410
1923.986282	1108.524476
1925.733671	1117.013986
1927.478962	1115.648019
1929.222157	1114.888112
1930.966726	1108.095571
1932.709199	1103.503497
1934.451313	1101.107226
1936.193066	1094.160839
1937.934459	1090.233100
1939.673759	1098.216783
1941.412700	1099.086247
1943.151282	1095.268065
1944.887773	1096.666667
1946.623905	1102.960373
1948.361413	1098.645688
1950.095098	1096.016317
1951.830158	1094.128205
1953.563129	1095.310023
1955.295744	1098.368298
1957.028002	1096.172494
1958.759905	1089.729604
1960.489721	1094.456876
1962.217452	1090.335664
1963.946558	1093.517483
1965.675308	1088.202797
1967.401976	1096.317016
1969.128288	1094.720280
1970.855975	1097.347319
1972.578125	1099.177156
1974.303376	1108.836830
1976.024820	1107.780886
1977.749364	1110.911422
1979.471829	1113.512821
1981.190490	1112.986014
1982.912251	1104.207459
1984.630209	1105.135198
1986.349540	1100.020979
1988.065072	1102.242424
1989.785424	1094.212121
1991.501978	1089.491841
1993.214735	1089.825175
1994.930588	1094.564103
1996.644369	1089.818182
1998.357800	1096.125874
2000.069160	1101.860140
2001.781892	1096.650350
2003.490834	1097.566434
2005.202868	1108.717949
2006.909393	1117.559441
2008.619011	1114.114219
2010.326561	1105.738928
2012.033764	1105.762238
2013.738901	1102.216783
2015.443692	1103.342657
2017.149854	1098.109557
2018.852234	1098.104895
2020.555985	1102.174825
2022.257674	1099.822844
2023.959017	1101.829837
2025.660016	1107.797203
2027.358953	1105.648019
2029.059262	1099.787879
2030.755795	1093.972028
2032.453700	1091.494172
2034.149547	1082.123543
2035.848479	1087.881119
2037.541925	1086.673660
2039.236742	1086.048951
2040.931216	1087.400932
2042.621923	1087.118881
2044.315712	1083.372960
2046.005736	1079.741259
2047.697130	1084.188811
2049.386470	1084.328671
2051.077182	1085.806527
2052.764130	1088.731935
2054.450738	1084.811189
2056.138717	1086.927739
2057.822936	1092.125874
2059.508526	1093.783217
2061.193775	1092.515152
2062.876977	1089.752914
2064.561549	1078.918415
2066.240657	1079.207459
2067.924552	1080.634033
2069.602985	1073.347319
2071.284496	1081.191142
2072.962255	1083.955711
2074.639678	1075.979021
2076.318470	1084.498834
2077.995219	1089.829837
2079.669927	1093.004662
2081.346005	1092.543124
2083.020041	1092.139860
2084.693743	1088.275058
2086.367109	1092.643357
2088.038436	1086.771562
2089.709429	1085.349650
2091.380088	1094.060606
2093.050413	1097.531469
2094.720404	1092.715618
2096.388359	1100.827506
2098.055980	1103.114219
2099.721568	1108.214452
2101.388524	1112.298368
2103.053447	1110.170163
2104.718038	1106.552448
2106.380597	1104.699301
2108.044524	1096.801865
2109.706420	1097.979021
2111.367986	1095.370629
2113.029220	1093.927739
2114.688425	1089.340326
2116.347301	1087.510490
2118.005847	1085.188811
2119.664062	1086.072261
2121.318555	1087.118881
2122.976112	1092.044289
2124.633339	1094.377622
2126.286846	1091.508159
2127.941720	1086.752914
2129.592875	1093.808858
2131.247093	1086.948718
2132.897593	1089.881119
2134.549461	1090.331002
2136.195920	1082.925408
2137.847134	1080.508159
2139.494634	1084.118881
2141.143501	1084.923077
2142.790349	1086.666667
2144.436872	1081.342657
2146.083069	1080.965035
2147.725558	1073.410256
2149.371104	1071.811189
2151.012944	1069.097902
2152.657841	1072.955711
2154.299033	1078.060606
2155.939901	1074.759907
2157.580446	1074.282051
2159.218978	1076.785548
2160.858876	1065.249417
2162.495074	1055.088578
2164.132638	1051.792541
2165.769880	1048.442890
2167.405112	1036.710956
2169.040022	1036.470862
2170.674611	1034.762238
2172.308879	1036.083916
2173.939453	1045.016317
2175.573079	1043.531469
2177.203013	1047.696970
2178.834312	1050.629371
2180.463606	1043.137529
2182.092581	1037.557110
2183.721236	1040.167832
2185.349572	1037.331002
2186.975905	1035.524476
2188.601920	1036.207459
2190.225934	1024.386946
2191.851313	1029.671329
2193.474691	1034.251748
2195.099434	1031.265734
2196.720496	1035.578089
2198.341241	1033.370629
2199.963350	1027.578089
2201.583462	1023.869464
2203.201578	1020.151515
2204.819378	1021.382284
2206.436862	1020.494172
2208.054032	1016.925408
2209.670885	1016.543124
2211.287424	1018.895105
2212.901970	1013.895105
2214.514523	1012.825175
2216.128440	1018.484848
2217.740366	1019.379953
2219.353655	1017.717949
2220.964954	1021.139860
2222.574263	1008.585082
2224.184935	1014.384615
2225.793619	1014.918415
2227.401991	1022.412587
2229.008376	1020.545455
2230.616123	1007.354312
2232.221885	1003.079254
2233.827335	1004.713287
2235.430800	1010.571096
2237.035628	1015.834499
2238.638472	1023.286713
2240.239333	1029.822844
2241.841557	1021.032634
2243.441799	1024.256410
2245.043403	1028.496503
2246.641354	1035.431235
2248.240668	1025.391608
2249.838002	1019.857809
2251.435028	1026.519814
2253.033415	1027.438228
2254.628155	1031.426573
2256.220917	1035.396270
2257.815042	1040.130536
2259.410528	1040.559441
2261.002369	1031.020979
2262.593904	1028.881119
2264.186801	1032.587413
2265.774388	1032.706294
2267.366671	1033.722611
2268.953648	1041.109557
2270.543652	1046.244755
2272.128352	1039.808858
2273.717746	1037.629371
2275.301837	1036.477855
2276.887290	1035.018648
2278.470774	1033.738928
2280.057283	1025.445221
2281.640159	1022.118881
2283.222732	1019.520979
2284.805001	1016.335664
2286.383640	1014.234266
2287.965304	1021.305361
2289.543339	1019.283217
2291.124397	1013.533800
2292.701828	1017.842657
2294.277296	1018.018648
2295.855786	1018.831002
2297.430652	1026.400932
2299.005217	1027.504662
2300.579481	1034.193473
2302.153445	1035.949883
2303.727109	1040.974359
2305.300473	1035.219114
2306.870218	1037.209790
2308.439664	1027.687646
2310.012128	1017.291375
2311.579318	1010.815851
2313.149525	1002.011655
2314.716119	994.783217
2316.284072	988.163170
2317.850069	989.689977
2319.415769	993.412587
2320.981171	995.165501
2322.544620	1003.566434
2324.109428	1005.307692
2325.670628	1014.508159
2327.234842	1019.666667
2328.793794	1019.426573
2330.355760	1014.860140
2331.915776	1013.533800
2333.475496	1009.216783
2335.033268	1003.979021
2336.590744	1008.202797
2338.147926	1003.993007
2339.703160	1008.244755
2341.258101	1013.923077
2342.812747	1016.650350
2344.367100	1016.934732
2345.921159	1017.235431
2347.474925	1014.687646
2349.026746	1007.484848
2350.576624	1004.927739
2352.129511	1006.543124
2353.677154	1002.717949
2355.227806	1000.062937
2356.774866	991.214452
2358.323284	995.319347
2359.871411	992.638695
2361.415949	989.226107
2362.961845	982.179487
2364.505803	987.925408
2366.051117	991.965035
2367.592847	987.261072
2369.135935	987.440559
2370.677086	991.076923
2372.217948	996.347319
2373.758521	999.759907
2375.298805	999.221445
2376.838800	997.340326
2378.375216	995.794872
2379.914634	997.006993
2381.450475	997.888112
2382.987673	996.589744
2384.521295	988.857809
2386.057917	987.121212
2387.592609	987.293706
2389.125371	990.046620
2390.657846	996.489510
2392.188393	999.634033
2393.721938	997.862471
2395.250272	992.372960
2396.779962	999.517483
2398.309367	998.930070
2399.838487	1000.748252
2401.367321	991.494172
2402.890951	986.307692
2404.419216	985.566434
2405.942279	983.151515
2407.469975	978.438228
2408.990832	973.468531
2410.516321	975.601399
2412.038251	973.153846
2413.561535	972.435897
2415.082899	973.270396
2416.602343	972.480186
2418.123142	968.424242
2419.642022	964.181818
2421.160621	959.561772
2422.677301	961.815851
2424.195337	962.678322
2425.713091	957.480186
2427.227293	957.643357
2428.741216	962.272727
2430.254858	963.207459
2431.769854	967.135198
2433.281303	967.158508
2434.794105	964.734266
2436.304995	967.195804
2437.815606	972.573427
2439.324305	977.321678
2440.835990	986.300699
2442.344132	982.065268
2443.851996	981.543124
2445.359581	984.202797
2446.863627	984.181818
2448.370657	981.039627
2449.875779	983.958042
2451.380624	983.321678
2452.883562	984.121212
2454.386224	986.503497
2455.888609	985.412587
2457.389089	984.794872
2458.890922	980.237762
2460.390850	975.622378
2461.890503	977.666667
2463.389881	973.000000
2464.887356	963.848485
2466.382929	962.172494
2467.881482	970.722611
2469.376507	969.659674
2470.872884	961.100233
2472.365735	956.321678
2473.859939	952.972028
2475.353869	952.270396
2476.844275	952.480186
2478.337659	951.864802
2479.829145	950.818182
2481.318734	945.878788
2482.808051	945.296037
2484.295472	957.186480
2485.785869	957.643357
2487.272748	952.279720
2488.760978	948.997669
2490.245691	950.743590
2491.730134	945.769231
2493.215929	946.853147
2494.699832	942.748252
2496.185085	941.592075
2497.665205	935.370629
2499.148298	932.766900
2500.629500	939.137529
2502.110433	942.044289
2503.589477	938.198135
2505.068252	937.622378
2506.546759	938.433566
2508.024997	933.701632
2509.502968	931.438228
2510.977433	929.881119
2512.454868	924.974359
2513.928798	929.897436
2515.404080	919.424242
2516.879094	917.207459
2518.350607	921.608392
2519.823471	923.603730
2521.294452	926.256410
2522.766783	929.361305
2524.234000	935.920746
2525.704184	938.363636
2527.172487	938.734266
2528.640525	938.191142
2530.108297	937.041958
2531.575806	940.121212
2533.043049	934.317016
2534.506800	936.585082
2535.971901	938.944056
2537.435125	941.268065
2538.899698	936.307692
2540.360783	943.624709
2541.823217	948.904429
2543.285388	953.088578
2544.744072	951.662005
2546.207329	956.398601
2547.665489	953.233100
2549.124999	952.237762
2550.579414	949.405594
2552.038400	949.862471
2553.495514	935.951049
2554.950756	928.391608
2556.405738	918.519814
2557.858850	921.272727
2559.313311	921.627040
2560.765903	928.461538
2562.218235	932.153846
2563.668699	933.643357
2565.122120	930.076923
2566.570458	934.116550
2568.021751	930.242424
2569.471179	927.883450
2570.917134	917.431235
2572.366044	912.848485
2573.811484	910.310023
2575.258271	914.118881
2576.703195	918.263403
2578.147862	923.312354
2579.593876	926.538462
2581.036424	923.853147
2582.480318	925.391608
2583.920748	928.764569
2585.362526	927.305361
2586.802444	931.447552
2588.243709	922.286713
2589.681512	918.958042
2591.122265	913.848485
2592.557956	913.657343
2593.996595	910.748252
2595.433378	904.393939
2596.868305	902.135198
2598.306179	900.074592
2599.738996	900.000000
2601.173160	903.097902
2602.605470	914.132867
2604.039126	923.431235
2605.470929	922.163170
2606.902478	923.899767
2608.333774	916.158508
2609.763219	918.083916
2611.192411	912.123543
2612.619752	904.708625
2614.048440	903.237762
2615.476875	905.004662
2616.901864	901.785548
2618.328198	909.678322
2619.752685	915.575758
2621.178517	924.118881
2622.600905	926.729604
2624.024638	924.121212
2625.446526	923.829837
2626.868163	925.874126
2628.287956	925.836830
2629.709094	926.058275
2631.129982	919.547786
2632.547431	915.778555
2633.967820	916.680653
2635.384772	914.209790
2636.801476	908.307692
2638.217931	914.890443
2639.634138	921.354312
2641.050097	922.265734
2642.464215	933.452214
2643.878085	934.531469
2645.290116	940.643357
2646.703492	939.673660
2648.113438	931.284382
2649.526320	932.314685
2650.935773	937.020979
2652.344980	930.766900
2653.752351	928.000000
2655.162656	935.832168
2656.571125	942.897436
2657.977760	940.216783
2659.384149	948.827506
2660.788704	953.076923
2662.194603	962.002331
2663.598669	966.477855
2665.002490	973.734266
2666.406067	977.888112
2667.807813	987.034965
2669.210902	990.671329
2670.610573	988.284382
2672.011588	989.972028
2673.409187	988.797203
2674.809715	984.832168
2676.206829	982.165501
2677.605286	986.062937
2679.001916	983.776224
2680.398303	988.137529
2681.794448	994.128205
2683.188767	992.881119
2684.584429	1004.941725
2685.976682	1006.079254
2687.370277	1003.685315
2688.762048	1000.925408
2690.155162	1006.736597
2691.546452	1005.102564
2692.935919	1002.878788
2694.325146	1002.512821
2695.714134	1005.918415
2697.104463	1014.165501
2698.489809	1016.321678
2699.878078	1015.948718
2701.264527	1015.181818
2702.650737	1017.715618
2704.036708	1021.867133
2705.419281	1023.955711
2706.803196	1032.881119
2708.186872	1045.219114
2709.570311	1050.032634
2710.950354	1058.853147
2712.331739	1071.326340
2713.711309	1084.046620
2715.092219	1089.995338
2716.471315	1088.389277
2717.848597	1085.734266
2719.227220	1093.186480
2720.604029	1089.717949
2721.980603	1079.328671
2723.356941	1066.930070
2724.731467	1061.081585
2726.107334	1036.687646
2727.479815	1029.445221
2728.855211	1014.799534
2730.225647	1005.750583
2731.597423	992.729604
2732.968966	982.111888
2734.338700	974.606061
2735.709774	970.326340
2737.079041	961.428904
2738.448074	955.016317
2739.815301	949.109557
2741.182294	948.321678
2742.549055	940.347319
2743.915583	943.986014
2745.280307	934.664336
2746.644798	924.867133
2748.009058	916.160839
2749.373085	907.382284
2750.736881	896.664336
2752.097303	881.827506
2753.460635	870.184149
2754.819025	865.200466
2756.180325	854.307692
2757.538255	849.023310
2758.899093	848.522145
2760.258131	855.878788
2761.613802	854.177156
2762.972380	855.843823
2764.327591	855.636364
2765.682573	854.505828
2767.035758	857.459207
2768.391850	856.219114
2769.744578	860.067599
2771.097078	859.191142
2772.449349	853.146853
2773.802958	850.405594
2775.153207	847.188811
2776.501661	846.636364
2777.853020	838.261072
2779.201021	830.997669
2780.550359	830.871795
2781.897905	830.109557
2783.245225	829.428904
2784.592317	832.498834
2785.937619	837.438228
2787.282695	838.913753
2788.627545	833.202797
2789.972169	830.405594
2791.313441	826.923077
2792.656050	819.885781
2793.998435	814.039627
2795.340594	811.335664
2796.679404	816.000000
2798.021114	815.785548
2799.359475	809.890443
2800.699174	811.172494
2802.037088	807.787879
2803.373216	802.496503
2804.709122	788.773893
2806.046365	787.652681
2807.381824	783.634033
2808.717060	775.641026
2810.050513	776.699301
2811.385303	778.389277
2812.716753	783.058275
2814.051098	786.037296
2815.380544	784.911422
2816.711328	793.032634
2818.041891	797.000000
2819.370674	798.235431
2820.700793	793.811189
2822.029134	792.836830
2823.357254	787.482517
2824.683596	784.939394
2826.011274	783.067599
2827.335620	780.118881
2828.661302	773.489510
2829.985208	767.237762
2831.308894	768.974359
2832.633916	768.592075
2833.955609	769.678322
2835.277083	762.675991
2836.598337	758.030303
2837.919374	753.566434
2839.238637	754.713287
2840.559236	754.979021
2841.878063	744.953380
2843.196673	742.918415
2844.513511	744.435897
2845.830132	752.995338
2847.146536	762.652681
2848.461170	765.515152
2849.777139	774.808858
2851.089789	779.202797
2852.403773	785.496503
2853.717541	788.153846
2855.031092	784.727273
2856.342877	778.836830
2857.652895	767.550117
2858.964248	765.344988
2860.272286	765.543124
2861.581658	766.058275
2862.890815	770.275058
2864.199758	771.659674
2865.506936	774.839161
2866.812352	777.062937
2868.119101	777.004662
2869.424089	778.296037
2870.728862	776.312354
2872.031875	780.834499
2873.337768	774.540793
2874.638807	769.216783
2875.941179	766.659674
2877.241793	771.536131
2878.543739	774.566434
2879.845473	770.997669
2881.143903	761.354312
2882.443666	758.766900
2883.741672	752.990676
2885.039466	750.557110
2886.335504	747.188811
2887.632875	744.855478
2888.928490	741.272727
2890.223894	739.668998
2891.519087	745.230769
2892.810983	758.139860
2894.105754	755.384615
2895.397230	755.156177
2896.690038	754.736597
2897.982636	754.776224
2899.271939	748.953380
2900.562576	747.993007
2901.851461	748.186480
2903.141678	752.648019
2904.428604	746.629371
2905.716862	740.860140
2907.003371	740.368298
2908.289671	737.200466
2909.575763	739.223776
2910.860107	741.757576
2912.147323	745.048951
2913.429712	744.932401
2914.713433	747.393939
2915.995407	753.491841
2917.277175	757.860140
2918.557197	762.083916
2919.840090	753.160839
2921.121237	755.459207
2922.399101	752.384615
2923.679835	751.230769
2924.957289	756.566434
2926.234536	748.850816
2927.510041	745.855478
2928.788414	747.000000
2930.061973	745.403263
2931.338399	744.006993
2932.613084	740.671329
2933.886028	734.020979
2935.160304	726.291375
2936.432840	722.766900
2937.705171	716.011655
2938.974230	714.745921
2940.246154	705.664336
2941.516340	704.743590
2942.786322	704.165501
2944.056101	714.307692
2945.324144	718.128205
2946.590450	720.811189
2947.856554	718.305361
2949.123989	716.508159
2950.389688	715.282051
2951.655186	717.226107
2952.920481	722.960373
2954.182511	719.519814
2955.445871	712.016317
2956.709030	719.277389
2957.970457	724.909091
2959.233213	728.296037
2960.494237	725.505828
2961.753531	719.839161
2963.012624	715.074592
2964.271518	714.473193
2965.530211	713.312354
2966.788703	716.170163
2968.045467	714.055944
2969.302032	706.438228
2970.556868	704.456876
2971.813034	709.310023
2973.065945	712.729604
2974.320184	709.834499
2975.574225	708.074592
2976.826540	708.603730
2978.078657	711.545455
2979.329049	704.258741
2980.582296	699.363636
2981.830766	694.596737
2983.082091	695.310023
2984.330166	697.058275
2985.578044	696.431235
2986.825726	695.986014
2988.073210	696.557110
2989.318973	694.599068
2990.564540	690.752914
2991.811434	697.783217
2993.055084	700.118881
2994.300061	695.114219
2995.541796	696.055944
2996.786382	693.167832
2998.029249	695.342657
2999.268875	689.785548
3000.511351	690.344988
3001.750587	685.433566
3002.991151	682.151515
3004.229998	678.997669
3005.468651	679.111888
3006.705588	683.461538
3007.943853	688.030303
3009.180402	693.153846
3010.416758	694.512821
3011.652920	683.027972
3012.887368	672.596737
3014.121623	666.871795
3015.355686	666.009324
3016.588035	657.841492
3017.818673	653.986014
3019.052157	656.951049
3020.283930	656.081585
3021.513991	658.263403
3022.743861	670.149184
3023.972021	678.242424
3025.201508	681.116550
3026.429285	679.370629
3027.656871	680.041958
3028.885783	688.594406
3030.109953	687.286713
3031.336967	686.550117
3032.560756	678.682984
3033.785871	673.235431
3035.009281	663.617716
3036.232500	665.090909
3037.454014	665.109557
3038.678369	661.193473
3039.897989	660.466200
3041.118935	655.827506
3042.339692	663.291375
3043.558745	669.076923
3044.779123	664.109557
3045.996285	671.804196
3047.214773	668.009324
3048.431558	670.822844
3049.648155	672.524476
3050.864565	673.512821
3052.077761	667.251748
3053.293795	669.342657
3054.506617	665.550117
3055.722276	661.342657
3056.933213	666.804196
3058.145474	666.475524
3059.357548	670.561772
3060.569436	675.212121
3061.779627	672.048951
3062.989631	674.107226
3064.199449	671.303030
3065.407571	661.270396
3066.615508	651.382284
3067.821749	656.212121
3069.029315	652.379953
3070.235186	655.913753
3071.440872	662.289044
3072.646374	671.041958
3073.850182	676.114219
3075.055314	676.529138
3076.258753	677.641026
3077.460501	677.491841
3078.662064	674.034965
3079.863444	673.125874
3081.064640	667.237762
3082.264146	669.419580
3083.463469	662.993007
3084.664115	661.932401
3085.863071	663.995338
3087.058833	666.310023
3088.257423	660.489510
3089.452821	661.561772
3090.649541	663.062937
3091.843069	666.114219
3093.039425	670.678322
3094.234094	675.214452
3095.425573	671.137529
3096.621384	674.212121
3097.812500	675.251748
3099.004940	675.447552
3100.194191	669.734266
3101.386269	669.039627
3102.576663	660.370629
3103.763871	661.375291
3104.952401	664.396270
3106.142254	665.587413
3107.328922	668.962704
3108.515411	667.249417
3109.701721	666.927739
3110.889352	668.941725
3112.073801	671.738928
3113.256571	673.675991
3114.442163	672.354312
3115.626076	675.142191
3116.808309	673.006993
3117.990365	676.314685
3119.172242	675.585082
3120.353941	677.620047
3121.533963	673.170163
3122.712308	670.331002
3123.893473	668.496503
3125.071463	664.804196
3126.249276	665.659674
3127.426912	671.219114
3128.602873	670.752914
3129.778658	667.799534
3130.955764	667.708625
3132.131195	668.027972
3133.304953	665.902098
3134.477038	662.913753
3135.650445	657.780886
3136.823675	661.564103
3137.995234	657.372960
3139.168113	653.708625
3140.337825	655.703963
3141.508858	664.666667
3142.678220	662.979021
3143.845913	662.636364
3145.016421	659.731935
3146.182271	663.139860
3147.352429	666.550117
3148.517930	663.864802
3149.683258	662.561772
3150.848412	656.482517
3152.013393	645.498834
3153.179693	645.417249
3154.341340	645.787879
3155.504308	649.780886
3156.667103	644.370629
3157.829725	645.321678
3158.990681	642.188811
3160.151466	646.212121
3161.312078	647.041958
3162.471026	644.668998
3163.629803	644.909091
3164.788407	644.291375
3165.946840	646.160839
3167.105102	655.573427
3168.261701	662.153846
3169.416639	671.729604
3170.572896	678.284382
3171.727492	676.198135
3172.881918	674.815851
3174.034684	668.188811
3175.187279	664.025641
3176.339705	658.580420
3177.491960	653.869464
3178.644046	648.930070
3179.792985	648.268065
3180.944731	652.421911
3182.094820	652.200466
3183.243252	656.116550
3184.391514	660.937063
3185.539608	664.643357
3186.687533	668.379953
3187.833802	665.944056
3188.979903	664.331002
3190.124350	655.972028
3191.268629	644.659674
3192.412739	636.724942
3193.558168	628.783217
3194.700458	629.069930
3195.842581	625.976690
3196.984536	634.212121
3198.126324	639.997669
3199.267945	653.904429
3200.406431	653.773893
3201.546234	656.673660
3202.687354	655.668998
3203.825341	651.468531
3204.961677	650.198135
3206.097849	646.016317
3207.235337	641.575758
3208.371177	642.822844
3209.508334	640.177156
3210.640878	649.757576
3211.777703	658.372960
3212.909918	665.067599
3214.043449	669.424242
3215.176815	672.724942
3216.307055	674.480186
3217.440092	673.386946
3218.570003	668.319347
3219.701230	664.032634
3220.829333	658.722611
3221.960232	649.093240
3223.089487	643.871795
3224.217099	648.613054
3225.341588	650.445221
3226.470353	649.860140
3227.595996	656.363636
3228.721476	655.298368
3229.845315	653.083916
3230.971949	657.079254
3232.093985	657.923077
3233.217337	663.473193
3234.340527	661.174825
3235.463554	662.265734
3236.584943	667.291375
3237.706169	673.240093
3238.825757	674.503497
3239.945184	672.617716
3241.062974	674.962704
3242.183555	669.477855
3243.301023	663.694639
3244.418330	671.426573
3245.535477	670.559441
3246.650987	667.533800
3247.767813	668.410256
3248.881529	673.438228
3249.998034	680.375291
3251.112905	687.820513
3252.224666	690.517483
3253.336269	691.002331
3254.449187	691.072261
3255.561945	682.137529
3256.671597	678.393939
3257.782564	679.060606
3258.893372	673.361305
3260.002548	670.421911
3261.110093	665.596737
3262.218953	665.766900
3263.327654	678.981352
3264.433253	681.522145
3265.540167	684.093240
3266.645451	685.552448
3267.752049	683.041958
3268.855547	686.836830
3269.960359	688.799534
3271.065014	688.645688
3272.166571	679.820513
3273.267971	677.093240
3274.370685	673.020979
3275.473243	670.636364
3276.572704	673.995338
3277.674949	664.002331
3278.774098	665.226107
3279.871622	664.398601
3280.968992	670.997669
3282.069143	677.405594
3283.166202	679.864802
3284.263105	682.685315
3285.359853	675.470862
3286.452042	677.268065
3287.548481	671.177156
3288.643297	663.510490
3289.737959	659.461538
3290.830998	659.172494
3291.923884	655.955711
3293.015149	656.981352
3294.107727	659.314685
3295.198685	662.233100
3296.288023	671.041958
3297.377208	675.948718
3298.467705	679.780886
3299.555119	685.412587
3300.642379	685.030303
3301.730952	690.734266
3302.819372	692.000000
3303.903246	696.011655
3304.991361	683.953380
3306.076394	683.419580
3307.159812	675.314685
3308.244542	681.487179
3309.327656	679.932401
3310.412083	676.284382
3311.493431	680.368298
3312.576091	688.552448
3313.657137	697.216783
3314.738031	706.843823
3315.817313	706.969697
3316.896444	713.552448
3317.976887	708.750583
3319.054255	713.125874
3320.132935	709.820513
3321.210003	708.755245
3322.286921	697.480186
3323.362229	694.351981
3324.437387	691.857809
3325.513856	695.662005
3326.587255	693.191142
3327.660504	689.335664
3328.735065	688.960373
3329.808017	698.020979
3330.879360	693.822844
3331.952014	697.165501
3333.021601	693.517483
3334.092500	687.174825
3335.161791	687.708625
3336.232392	694.163170
3337.301388	693.731935
3338.368777	696.438228
3339.434561	694.554779
3340.504571	699.594406
3341.571518	712.762238
3342.635403	716.090909
3343.702055	713.668998
3344.767104	717.710956
3345.830549	707.144522
3346.893848	698.815851
3347.957000	692.545455
3349.020006	690.871795
3350.082866	683.447552
3351.144123	686.363636
3352.202324	681.930070
3353.264746	687.706294
3354.324112	696.489510
3355.383332	695.104895
3356.443861	698.053613
3357.499882	700.624709
3358.558666	696.200466
3359.612943	695.787879
3360.669984	692.051282
3361.725426	697.237762
3362.782178	696.310023
3363.837331	705.680653
3364.890887	703.477855
3365.942846	710.445221
3366.997568	706.818182
3368.049240	699.913753
3369.100769	698.016317
3370.153606	695.319347
3371.203396	692.533800
3372.254495	691.769231
3373.302547	688.526807
3374.353360	692.027972
3375.401127	691.004662
3376.448752	699.848485
3377.496235	699.895105
3378.542125	702.153846
3379.589323	698.172494
3380.633479	697.501166
3381.680393	702.062937
3382.725715	705.571096
3383.767996	705.699301
3384.810136	709.941725
3385.853585	712.254079
3386.896892	710.431235
3387.938609	708.275058
3388.980186	707.836830
3390.021621	701.713287
3391.061468	695.993007
3392.099726	689.368298
3393.139292	687.284382
3394.178718	688.258741
3395.216556	693.132867
3396.252807	691.825175
3397.288919	700.524476
3398.326338	703.027972
3399.360723	699.069930
3400.396417	706.163170
3401.431971	715.223776
3402.464494	713.025641
3403.499769	708.454545
3404.532015	710.615385
3405.564122	711.174825
3406.594645	711.445221
3407.626475	710.918415
3408.658167	706.559441
3409.686831	705.869464
3410.715358	699.095571
3411.745191	696.519814
3412.774887	701.377622
3413.801557	709.545455
3414.829533	701.976690
3415.854486	703.459207
3416.882188	709.629371
3417.906866	707.983683
3418.932851	712.034965
3419.957257	710.993007
3420.981526	711.645688
3422.004216	705.897436
3423.026770	701.529138
3424.050630	699.384615
3425.071470	695.421911
3426.092174	691.243423
3427.114184	689.095321
3428.133176	690.060939
3429.152033	695.223610
3430.172196	705.666667
3431.189342	722.473443
