-118.067271	-10.653846
-115.397671	3.278388
-112.731006	11.991342
-110.065093	16.311355
-107.402113	17.064769
-104.737702	15.077922
-102.076222	11.177156
-99.413313	6.090909
-96.755510	2.421911
-94.096278	-3.783217
-91.437794	-6.494172
-88.782235	-3.153846
-86.125246	1.039627
-83.473356	0.270396
-80.820036	-0.713287
-78.169635	-1.058275
-75.517806	2.972028
-72.871067	4.165501
-70.222898	3.622378
-67.575472	1.794872
-64.930961	4.799534
-62.285020	5.130536
-59.644161	11.783217
-57.001873	18.237762
-54.362494	21.741259
-51.721686	25.515152
-49.081617	28.951049
-46.446622	29.470862
-43.810197	28.282051
-41.176675	25.906760
-38.541725	23.482517
-35.911841	23.132867
-33.278363	24.044289
-30.649948	24.284382
-28.022267	23.149184
-25.393157	16.489510
-22.769105	-28.030303
-20.141462	-290.559441
-17.518874	-1066.934732
-14.897016	-1106.207459
-12.275889	766.083916
-9.655493	4039.358974
-7.037984	6876.074592
-4.419047	8869.652681
-1.802996	10003.354312
0.812328	10277.279720
3.426923	9697.184149
6.038637	8265.932401
8.651779	6019.221445
11.259887	3072.722611
13.871576	32.393939
16.478235	-1431.254079
19.086323	-1045.773893
21.693685	-145.251748
24.296023	32.356643
26.901940	33.692308
29.502834	31.205128
32.105156	24.020979
34.702460	18.911422
37.303341	10.682984
39.899206	11.060606
42.496500	9.188811
45.093074	8.125874
47.684639	4.503497
50.277632	5.489510
52.867764	9.167832
55.459323	11.011655
58.048024	15.433566
60.638151	14.365967
63.223279	13.715618
65.809835	11.060606
68.395677	7.790210
70.978664	8.951049
73.563079	3.011655
76.140365	-2.790210
78.721217	-9.561772
81.299220	-7.517483
83.876513	-6.771562
86.455232	-1.412587
89.028969	2.303030
91.604133	6.296037
94.176454	14.447552
96.748068	16.946387
99.316841	18.170163
101.887041	18.202797
104.454402	13.340326
107.023190	10.650350
109.589141	9.550117
112.152257	11.724942
114.718929	10.960373
117.276379	17.496503
119.839515	21.463869
122.397692	32.811189
124.959423	48.221445
127.516197	75.939394
130.074397	125.312354
132.627645	191.727273
135.180195	272.568765
137.736295	365.540793
140.287447	463.165501
142.837902	558.703963
145.387659	640.263403
147.934597	704.358974
150.480840	746.317016
153.028508	769.034965
155.575480	775.566434
158.117517	777.578089
160.658860	776.114219
163.199510	774.540793
165.741586	773.268065
168.280850	776.589744
170.817305	774.659674
173.353070	770.146853
175.890260	771.095571
178.426759	772.559441
180.960452	772.156177
183.491341	769.277389
186.021542	770.020979
188.553169	768.293706
191.081994	767.342657
193.608020	775.505828
196.133360	782.090909
198.660125	786.853147
201.184094	787.986014
203.707378	784.447552
206.229976	789.636364
208.749782	788.207459
211.268905	791.426573
213.787346	795.284382
216.307210	800.944056
218.820072	803.818182
221.336467	812.892774
223.852179	821.179487
226.363001	827.456876
228.875248	839.904429
231.384712	844.846154
233.893498	839.452214
236.401606	842.792541
238.911138	841.156177
241.415789	838.454545
243.919764	833.722611
246.425163	830.624709
248.925687	821.764569
251.429734	814.790210
253.926811	811.636364
256.427411	813.678322
258.925239	823.881119
261.422394	825.268065
263.918876	833.466200
266.410495	849.724942
268.905634	857.480186
271.398006	861.142191
273.889708	871.482517
276.378647	873.440559
278.869009	881.428904
281.356610	882.566434
283.841451	887.328671
286.329807	884.655012
288.811223	886.582751
291.296153	883.219114
293.776238	888.216783
296.259835	888.601399
298.738589	887.587413
301.218766	889.878788
303.696192	894.932401
306.172954	902.158508
308.649052	918.470862
311.122402	933.307692
313.595091	957.976690
316.067118	974.727273
318.538483	991.424242
321.007105	991.172494
323.475067	998.463869
325.944452	990.151515
328.409014	980.871795
330.877080	972.095571
333.340325	961.116550
335.802914	950.701632
338.264846	941.244755
340.726121	950.452214
343.184661	957.037296
345.644625	958.039627
348.101855	958.559441
350.558431	958.853147
353.014353	966.186480
355.467545	965.065268
357.922160	960.531469
360.371973	959.750583
362.825282	955.006993
365.273792	949.815851
367.721652	952.522145
370.170934	958.013986
372.615422	953.631702
375.061332	954.515152
377.506592	958.911422
379.949134	963.575758
382.391028	966.417249
384.832274	960.946387
387.270806	955.533800
389.710758	950.188811
392.147997	944.095571
394.582525	944.631702
397.020539	947.734266
399.453778	949.648019
401.888437	951.076923
404.318324	956.673660
406.751696	964.310023
409.180298	971.228438
411.608258	981.212121
414.037640	982.953380
416.462256	993.979021
418.888294	996.496503
421.313691	1002.664336
423.738448	1008.634033
426.158446	1007.177156
428.579866	1003.303030
430.998590	997.899767
433.418734	996.946387
435.836183	999.589744
438.255052	997.326340
440.671227	1001.804196
443.082656	997.249417
445.497561	1006.375291
447.909777	1015.158508
450.321358	1017.508159
452.732305	1013.799534
455.140565	1013.484848
457.548194	1008.515152
459.955190	1010.228438
462.361555	1008.874126
464.765237	1002.990676
467.168289	995.104895
469.570711	997.282051
471.972503	992.869464
474.371617	999.011655
476.772151	1007.149184
479.172056	1002.195804
481.567239	1006.550117
483.965888	1011.107226
486.359816	1010.911422
488.753119	1013.955711
491.145797	995.128205
493.537849	987.986014
495.931319	978.862471
498.320077	974.340326
500.706169	966.738928
503.093681	960.170163
505.480570	953.620047
507.864795	951.459207
510.250438	948.708625
512.633420	942.209790
515.013741	939.160839
517.395481	936.680653
519.774562	918.331002
522.155061	921.251748
524.532904	908.620047
526.908090	898.536131
529.282660	897.708625
531.658647	895.573427
534.031982	898.083916
536.406734	904.610723
538.776800	905.307692
541.146252	910.533800
543.517121	917.163170
545.883309	921.783217
548.250916	920.351981
550.615878	918.573427
552.980226	908.445221
555.343961	907.326340
557.709114	907.550117
560.069595	904.613054
562.431494	908.002331
564.790752	901.461538
567.147372	903.529138
569.507438	910.881119
571.860812	915.566434
574.217631	913.344988
576.571815	914.303030
578.925390	909.375291
581.278358	904.857809
583.628693	904.860140
585.980446	892.107226
588.325522	893.247086
590.676061	898.242424
593.019928	905.442890
595.369256	922.603730
597.713935	936.317016
600.055990	941.911422
602.399462	942.062937
604.740311	948.498834
607.080557	943.296037
609.418183	929.293706
611.759244	920.200466
614.095668	906.955711
616.433508	904.983683
618.768731	899.717949
621.101337	898.599068
623.435361	904.776224
625.766770	904.449883
628.097581	911.431235
630.427794	913.589744
632.757410	925.172494
635.082402	925.759907
637.412836	921.827506
639.738649	926.048951
642.061854	930.435897
644.386476	933.536131
646.708492	930.825175
649.029914	935.048951
651.348733	937.904429
653.668969	938.102564
655.988611	942.251748
658.305652	944.065268
660.622101	952.135198
662.935952	955.585082
665.251219	954.181818
667.563889	955.004662
669.877974	961.540793
672.187459	965.167832
674.498360	962.650350
676.806668	959.002331
679.114388	951.326340
681.423522	948.986014
683.728064	939.972028
686.032020	938.244755
688.335390	933.925408
690.640174	936.745921
692.940371	930.825175
695.241984	933.941725
697.543011	937.069930
699.839457	935.349650
702.137318	932.046620
704.434595	940.051282
706.731289	944.270396
709.023407	946.580420
711.318936	942.578089
713.609891	937.435897
715.902261	934.242424
718.192056	937.540793
720.481270	936.687646
722.769905	940.016317
725.055967	935.039627
727.343444	937.871795
729.628349	945.673660
731.912677	957.813520
734.194436	956.965035
736.477609	962.951049
738.760205	965.009324
741.038245	964.857809
743.317699	972.972028
745.596578	981.895105
747.874882	993.242424
750.148636	1000.813520
752.423803	1004.897436
754.698397	1009.046620
756.970432	1009.363636
759.243880	998.291375
761.514770	992.675991
763.783104	988.237762
766.052851	979.923077
768.320043	981.717949
770.586666	981.606061
772.852718	984.142191
775.116219	989.013986
777.381133	996.489510
779.645477	1001.988345
781.905292	1008.792541
784.166519	1013.023310
786.427179	1012.125874
788.685293	1013.787879
790.940862	1015.832168
793.199821	1015.974359
795.452282	1017.547786
797.710110	1014.762238
799.963419	1008.941725
802.214188	1000.745921
804.466369	1004.256410
806.716011	1003.622378
808.967065	1001.487179
811.213609	997.009324
813.461564	1001.741259
815.706985	999.575758
817.953817	1000.995338
820.200088	997.918415
822.441854	999.146853
824.687004	1000.312354
826.925681	999.904429
829.167740	994.904429
831.405301	1002.501166
833.644274	997.335664
835.880720	992.002331
838.118577	989.727273
840.353909	994.370629
842.586718	987.107226
844.820937	992.613054
847.052635	992.361305
849.283778	995.419580
851.514366	998.806527
853.744400	1009.172494
855.973880	1014.177156
858.198878	1025.076923
860.427250	1027.769231
862.651144	1026.165501
864.876449	1025.655012
867.097278	1023.636364
869.321479	1017.356643
871.541207	1028.568765
873.762345	1022.491841
875.982933	1021.198135
878.201012	1024.335664
880.420500	1026.109557
882.635522	1029.878788
884.849996	1033.228438
887.063923	1032.974359
889.277303	1023.519814
891.490135	1020.787879
893.702420	1014.745921
895.912204	1012.312354
898.121442	1017.351981
900.330135	1013.741259
902.536328	1015.463869
904.743932	1021.358974
906.949037	1026.662005
909.153599	1037.258741
911.355666	1043.937063
913.559142	1043.757576
915.760124	1046.109557
917.960564	1049.335664
920.162413	1043.100233
922.357871	1039.755245
924.556687	1033.864802
926.751066	1029.179487
928.948802	1029.664336
931.142102	1030.885781
933.336811	1034.118881
935.529033	1034.421911
937.720718	1039.557110
939.911865	1036.086247
942.100529	1039.477855
944.288657	1039.981352
946.474303	1038.111888
948.663303	1041.624709
950.847879	1053.934732
953.031920	1058.263403
955.219311	1067.526807
957.398398	1074.997669
959.580836	1077.240093
961.762740	1079.757576
963.942169	1080.818182
966.119126	1075.519814
968.297491	1076.512821
970.477263	1075.902098
972.650686	1069.237762
974.827455	1067.216783
976.999817	1079.027972
979.173587	1081.897436
981.342953	1088.836830
983.515663	1092.529138
985.685908	1096.424242
987.855623	1103.948718
990.024810	1101.442890
992.189600	1101.505828
994.357732	1107.876457
996.521468	1104.827506
998.686612	1107.766900
1000.849296	1109.769231
1003.011455	1117.165501
1005.171157	1122.177156
1007.330334	1118.911422
1009.490918	1119.433566
1011.649047	1127.834499
1013.806653	1129.981352
1015.963735	1123.034965
1018.120293	1120.473193
1020.272472	1127.862471
1022.426058	1126.144522
1024.579122	1132.682984
1026.729737	1135.410256
1028.881758	1141.941725
1031.029407	1142.890443
1033.180387	1142.918415
1035.326996	1149.484848
1037.473086	1156.857809
1039.618658	1154.913753
1041.765635	1153.769231
1043.906323	1156.349650
1046.050340	1162.097902
1048.191918	1155.337995
1050.332978	1153.037296
1052.475444	1152.531469
1054.611629	1150.414918
1056.751141	1146.986014
1058.886297	1148.044289
1061.024778	1144.188811
1063.158906	1146.370629
1065.292520	1146.615385
1067.427538	1157.191142
1069.558208	1156.694639
1071.690282	1162.951049
1073.819927	1161.342657
1075.949060	1164.841492
1078.077681	1160.948718
1080.205791	1167.009324
1082.331475	1164.773893
1084.456649	1157.011655
1086.583227	1150.312354
1088.705467	1150.773893
1090.829112	1142.988345
1092.948422	1138.615385
1095.072961	1129.568765
1097.191256	1134.818182
1099.310954	1137.086247
1101.428235	1145.771562
1103.545008	1143.874126
1105.661276	1153.074592
1107.775127	1150.794872
1109.890382	1154.596737
1112.001315	1152.202797
1114.115560	1150.167832
1116.225484	1144.986014
1118.336812	1142.540793
1120.447635	1142.221445
1122.554142	1143.918415
1124.663958	1138.431235
1126.769461	1139.867133
1128.876366	1137.904429
1130.977056	1143.759907
1133.082958	1141.853147
1135.184551	1143.193473
1137.287547	1140.111888
1139.390042	1140.550117
1141.486330	1142.678322
1143.587825	1151.442890
1145.685018	1149.594406
1147.781713	1148.048951
1149.877909	1144.268065
1151.973607	1142.655012
1154.068808	1146.356643
1156.161612	1144.153846
1158.255818	1137.314685
1160.343833	1149.414918
1162.437047	1155.377622
1164.524072	1161.857809
1166.614396	1169.256410
1168.700432	1180.820513
1170.789766	1173.685315
1172.872920	1167.421911
1174.957475	1161.482517
1177.043432	1147.687646
1179.125107	1145.892774
1181.208183	1139.951049
1183.288874	1145.447552
1185.369074	1160.072261
1187.448782	1163.214452
1189.527999	1172.449883
1191.604833	1171.729604
1193.679287	1173.379953
1195.757033	1163.137529
1197.830508	1162.044289
1199.905385	1160.839161
1201.975994	1150.813520
1204.048004	1151.829837
1206.117638	1149.631702
1208.188673	1151.386946
1210.259221	1154.393939
1212.325507	1150.550117
1214.393194	1149.699301
1216.458508	1142.839161
1218.525224	1141.009324
1220.587683	1141.431235
1222.653427	1148.081585
1224.714917	1155.491841
1226.777808	1152.449883
1228.838330	1158.212121
1230.898370	1160.053613
1232.957926	1162.871795
1235.015118	1166.657343
1237.071827	1161.312354
1239.126174	1164.226107
1241.183802	1165.871795
1243.239066	1169.801865
1245.290091	1174.354312
1247.342515	1178.202797
1249.394459	1186.578089
1251.444045	1188.606061
1253.493152	1185.529138
1255.541780	1184.689977
1257.589930	1176.708625
1259.637602	1178.829837
1261.681043	1174.519814
1263.727760	1170.687646
1265.772123	1167.069930
1267.816010	1166.104895
1269.857545	1170.272727
1271.896731	1165.386946
1273.939190	1169.379953
1275.977426	1165.237762
1278.017061	1158.477855
1280.056221	1157.536131
1282.091162	1154.820513
1284.127502	1165.172494
1286.161498	1164.939394
1288.196891	1165.566434
1290.228071	1165.932401
1292.260650	1166.811189
1294.292757	1171.116550
1296.322523	1171.608392
1298.353686	1173.839161
1300.380643	1161.603730
1302.408997	1158.862471
1304.433146	1153.212121
1306.460561	1152.053613
1308.483773	1149.820513
1310.508383	1150.692308
1312.530659	1155.216783
1314.554331	1151.748252
1316.575671	1151.379953
1318.596544	1161.508159
1320.616949	1167.939394
1322.633161	1162.550117
1324.650770	1165.428904
1326.666051	1170.552448
1328.684591	1164.965035
1330.698941	1161.109557
1332.710966	1162.041958
1334.726249	1164.634033
1336.737346	1168.589744
1338.749839	1159.083916
1340.758150	1161.932401
1342.769717	1164.944056
1344.775245	1161.452214
1346.784028	1153.916084
1348.788633	1162.407925
1350.796492	1162.435897
1352.803889	1158.351981
1354.805255	1157.815851
1356.808017	1170.594406
1358.810320	1172.459207
1360.812163	1177.032634
1362.813546	1175.051282
1364.812615	1180.806527
1366.811227	1177.934732
1368.809379	1169.515152
1370.807074	1163.848485
1372.800606	1165.086247
1374.795533	1163.946387
1376.790004	1168.599068
1378.784018	1168.083916
1380.775725	1176.850816
1382.766976	1171.685315
1384.755922	1175.027972
1386.746264	1177.431235
1388.736150	1181.906760
1390.723732	1174.948718
1392.710861	1174.927739
1394.695688	1174.512821
1396.681910	1174.375291
1398.665831	1177.617716
1400.649300	1176.759907
1402.632317	1170.965035
1404.613036	1164.340326
1406.595149	1157.692308
1408.574965	1163.638695
1410.554331	1167.834499
1412.529558	1174.221445
1414.508023	1179.722611
1416.484195	1196.759907
1418.459917	1203.209790
1420.435191	1213.244755
1422.408173	1222.270396
1424.380707	1225.034965
1426.352793	1225.305361
1428.324432	1221.461538
1430.291942	1210.048951
1432.264526	1210.883450
1434.229304	1208.419580
1436.199155	1207.296037
1438.164881	1206.811189
1440.132001	1208.620047
1442.096837	1204.307692
1444.057553	1204.708625
1446.023337	1212.636364
1447.983166	1211.076923
1449.944389	1214.708625
1451.907003	1217.191142
1453.865503	1209.988345
1455.823561	1214.897436
1457.781177	1221.044289
1459.738350	1220.114219
1461.693248	1214.545455
1463.649539	1212.724942
1465.603555	1204.843823
1467.557130	1206.678322
1469.508433	1200.731935
1471.461128	1192.944056
1473.411552	1194.496503
1475.361537	1192.925408
1477.311083	1183.428904
1479.258360	1187.363636
1481.203369	1193.419580
1483.149771	1192.251748
1485.095735	1191.617716
1487.041262	1188.289044
1488.984523	1187.223776
1490.927348	1190.974359
1492.867910	1179.990676
1494.809864	1183.678322
1496.749555	1175.013986
1498.688811	1171.909091
1500.627633	1164.044289
1502.564195	1167.580420
1504.502148	1165.200466
1506.437842	1163.410256
1508.373103	1160.874126
1510.306107	1154.305361
1512.238679	1153.825175
1514.170819	1156.361305
1516.102527	1148.303030
1518.031982	1149.055944
1519.962827	1146.391608
1521.893240	1154.745921
1523.819581	1154.046620
1525.747312	1163.069930
1527.672794	1161.237762
1529.597846	1165.503497
1531.522469	1176.030303
1533.446662	1183.473193
1535.368609	1183.804196
1537.291946	1190.636364
1539.213036	1185.899767
1541.131882	1186.160839
1543.052118	1187.689977
1544.970110	1191.037296
1546.887676	1192.531469
1548.803001	1202.503497
1550.719715	1202.221445
1552.632374	1214.428904
1554.548236	1231.813520
1556.461860	1245.883450
1558.373245	1257.895105
1560.286020	1273.892774
1562.194745	1292.944056
1564.104859	1323.659674
1566.014550	1359.522145
1567.923818	1427.592075
1569.830851	1510.860140
1571.735653	1620.142191
1573.641842	1744.335664
1575.545801	1864.519814
1577.449338	1964.249417
1579.352455	2028.088578
1581.253342	2042.505828
1583.155618	1995.895105
1585.055665	1919.944056
1586.957101	1812.358974
1588.854503	1677.433566
1590.751486	1557.400932
1592.648051	1452.773893
1594.546003	1380.368298
1596.438121	1328.997669
1598.333433	1297.745921
1600.228327	1283.755245
1602.120999	1276.447552
1604.013254	1258.212121
1605.903290	1243.349650
1607.792910	1236.384615
1609.682115	1229.393939
1611.570904	1219.139860
1613.457477	1216.498834
1615.345437	1221.433566
1617.229380	1221.995338
1619.114710	1218.909091
1620.999627	1225.076923
1622.882330	1230.088578
1624.766420	1229.766900
1626.646498	1228.466200
1628.527964	1227.927739
1630.407218	1219.235431
1632.287860	1214.286713
1634.162697	1207.170163
1636.042515	1201.773893
1637.918329	1198.571096
1639.793732	1195.419580
1641.670521	1188.883450
1643.541513	1183.631702
1645.415688	1173.468531
1647.285863	1179.174825
1649.159219	1177.410256
1651.030372	1175.181818
1652.899323	1168.428904
1654.769660	1165.340326
1656.636004	1162.445221
1658.503733	1163.755245
1660.369263	1164.144522
1662.236179	1164.328671
1664.099105	1163.790210
1665.963418	1163.193473
1667.825534	1163.468531
1669.687245	1168.902098
1671.550341	1163.897436
1673.411243	1173.060606
1675.269952	1163.517483
1677.128257	1158.184149
1678.987946	1158.363636
1680.841869	1157.489510
1682.698965	1151.799534
1684.555657	1145.438228
1686.408374	1148.883450
1688.264262	1147.829837
1690.116176	1144.417249
1691.967689	1142.930070
1693.818801	1141.179487
1695.669512	1142.447552
1697.519823	1142.144522
1699.367950	1146.025641
1701.217461	1150.333333
1703.061222	1154.181818
1704.909934	1161.335664
1706.752899	1166.932401
1708.599030	1176.011655
1710.441200	1180.804196
1712.286535	1181.696970
1714.126129	1182.888112
1715.967107	1174.862471
1717.809468	1171.452214
1719.647872	1169.685315
1721.487660	1166.666667
1723.325273	1158.897436
1725.162491	1153.004662
1726.997535	1143.995338
1728.833962	1135.344988
1730.668216	1131.515152
1732.502077	1133.589744
1734.335543	1134.906760
1736.165063	1132.538462
1737.997743	1139.093240
1739.826478	1146.030303
1741.658370	1147.275058
1743.486320	1151.519814
1745.313878	1152.568765
1747.141045	1152.571096
1748.967820	1148.990676
1750.794203	1154.177156
1752.616650	1154.741259
1754.442252	1155.519814
1756.263919	1158.212121
1758.086967	1152.794872
1759.907855	1154.172494
1761.728354	1149.095571
1763.550233	1147.710956
1765.366413	1139.361305
1767.185745	1138.275058
1769.001150	1144.400932
1770.819706	1147.158508
1772.634336	1144.470862
1774.448579	1140.643357
1776.262436	1136.188811
1778.075906	1134.538462
1779.887223	1129.263403
1781.699920	1125.594406
1783.512232	1128.305361
1785.320625	1138.482517
1787.130400	1132.554779
1788.936260	1136.655012
1790.745265	1147.421911
1792.550357	1151.489510
1794.356830	1142.305361
1796.162919	1141.400932
1797.965097	1138.296037
1799.770420	1132.293706
1801.571833	1127.666667
1803.374628	1122.174825
1805.173516	1122.610723
1806.973785	1120.825175
1808.773672	1114.149184
1810.571417	1112.888112
1812.368782	1119.818182
1814.165766	1124.219114
1815.962371	1126.592075
1817.756835	1132.543124
1819.552680	1135.897436
1821.342869	1134.459207
1823.137955	1136.895105
1824.927388	1135.927739
1826.719959	1132.065268
1828.510394	1124.620047
1830.298694	1128.151515
1832.090130	1127.214452
1833.875921	1135.636364
1835.663091	1138.463869
1837.448129	1142.666667
1839.236300	1146.762238
1841.020587	1144.265734
1842.802743	1140.736597
1844.586279	1143.953380
1846.367686	1136.855478
1848.150471	1131.428904
1849.929377	1124.254079
1851.709661	1127.575758
1853.487820	1116.093240
1855.267357	1109.200466
1857.044768	1101.783217
1858.820057	1098.303030
1860.596723	1090.888112
1862.371267	1093.289044
1864.147188	1090.589744
1865.917490	1095.251748
1867.690919	1096.736597
1869.462228	1101.613054
1871.233166	1104.011655
1873.005482	1108.023310
1874.772184	1106.270396
1876.542011	1109.144522
1878.307975	1118.137529
1880.077063	1123.932401
1881.842289	1118.899767
1883.607147	1131.275058
1885.373381	1120.100233
1887.135758	1120.006993
1888.897766	1119.960373
1890.659408	1122.463869
1892.420682	1122.832168
1894.181590	1130.703963
1895.942130	1129.568765
1897.700562	1133.864802
1899.458627	1138.815851
1901.214585	1141.603730
1902.971919	1136.435897
1904.728888	1137.641026
1906.483750	1130.888112
1908.236508	1131.419580
1909.988901	1129.426573
1911.742671	1130.307692
1913.494337	1135.300699
1915.243900	1132.694639
1916.994840	1119.484848
1918.745416	1117.456876
1920.492154	1116.645688
1922.240267	1118.004662
1923.986282	1115.990676
1925.733671	1127.298368
1927.478962	1134.918415
1929.222157	1137.561772
1930.966726	1134.079254
1932.709199	1135.689977
1934.451313	1138.587413
1936.193066	1122.923077
1937.934459	1111.645688
1939.673759	1108.769231
1941.412700	1105.396270
1943.151282	1108.006993
1944.887773	1109.531469
1946.623905	1124.272727
1948.361413	1125.673660
1950.095098	1127.687646
1951.830158	1122.547786
1953.563129	1122.724942
1955.295744	1127.200466
1957.028002	1123.216783
1958.759905	1121.251748
1960.489721	1126.337995
1962.217452	1129.372960
1963.946558	1141.137529
1965.675308	1135.062937
1967.401976	1137.622378
1969.128288	1136.109557
1970.855975	1137.396270
1972.578125	1131.580420
1974.303376	1126.533800
1976.024820	1125.881119
1977.749364	1127.088578
1979.471829	1125.146853
1981.190490	1122.037296
1982.912251	1126.881119
1984.630209	1132.193473
1986.349540	1127.533800
1988.065072	1128.461538
1989.785424	1129.699301
1991.501978	1127.305361
1993.214735	1123.757576
1994.930588	1118.298368
1996.644369	1114.025641
1998.357800	1118.689977
2000.069160	1118.013986
2001.781892	1121.498834
2003.490834	1130.906760
2005.202868	1141.354312
2006.909393	1146.557110
2008.619011	1140.645688
2010.326561	1143.421911
2012.033764	1139.860140
2013.738901	1133.389277
2015.443692	1130.403263
2017.149854	1121.153846
2018.852234	1116.174825
2020.555985	1111.853147
2022.257674	1108.538462
2023.959017	1103.780886
2025.660016	1104.284382
2027.358953	1103.832168
2029.059262	1107.585082
2030.755795	1121.104895
2032.453700	1129.200466
2034.149547	1128.505828
2035.848479	1132.400932
2037.541925	1135.319347
2039.236742	1135.780886
2040.931216	1132.389277
2042.621923	1125.475524
2044.315712	1119.547786
2046.005736	1114.578089
2047.697130	1109.386946
2049.386470	1110.100233
2051.077182	1109.526807
2052.764130	1110.249417
2054.450738	1101.578089
2056.138717	1103.055944
2057.822936	1107.011655
2059.508526	1109.067599
2061.193775	1104.515152
2062.876977	1101.769231
2064.561549	1098.072261
2066.240657	1093.011655
2067.924552	1093.351981
2069.602985	1094.104895
2071.284496	1092.561772
2072.962255	1099.696970
2074.639678	1098.804196
2076.318470	1100.962704
2077.995219	1101.055944
2079.669927	1107.643357
2081.346005	1108.941725
2083.020041	1116.491841
2084.693743	1115.170163
2086.367109	1116.202797
2088.038436	1125.773893
2089.709429	1123.324009
2091.380088	1114.708625
2093.050413	1117.431235
2094.720404	1101.955711
2096.388359	1096.468531
2098.055980	1087.249417
2099.721568	1096.934732
2101.388524	1102.109557
2103.053447	1108.440559
2104.718038	1107.550117
2106.380597	1111.776224
2108.044524	1115.974359
2109.706420	1114.620047
2111.367986	1109.547786
2113.029220	1112.689977
2114.688425	1108.435897
2116.347301	1114.904429
2118.005847	1104.585082
2119.664062	1111.272727
2121.318555	1107.559441
2122.976112	1109.284382
2124.633339	1109.016317
2126.286846	1107.128205
2127.941720	1098.076923
2129.592875	1095.340326
2131.247093	1095.708625
2132.897593	1098.701632
2134.549461	1104.382284
2136.195920	1106.498834
2137.847134	1097.104895
2139.494634	1096.487179
2141.143501	1091.911422
2142.790349	1090.785548
2144.436872	1091.207459
2146.083069	1084.585082
2147.725558	1073.622378
2149.371104	1069.139860
2151.012944	1067.918415
2152.657841	1072.638695
2154.299033	1080.557110
2155.939901	1088.221445
2157.580446	1083.298368
2159.218978	1080.265734
2160.858876	1077.254079
2162.495074	1070.235431
2164.132638	1072.027972
2165.769880	1062.958042
2167.405112	1054.011655
2169.040022	1049.337995
2170.674611	1043.186480
2172.308879	1046.799534
2173.939453	1052.780886
2175.573079	1051.727273
2177.203013	1049.477855
2178.834312	1051.503497
2180.463606	1064.398601
2182.092581	1062.016317
2183.721236	1065.885781
2185.349572	1062.841492
2186.975905	1055.692308
2188.601920	1049.258741
2190.225934	1045.006993
2191.851313	1049.384615
2193.474691	1045.666667
2195.099434	1043.344988
2196.720496	1049.685315
2198.341241	1047.510490
2199.963350	1052.517483
2201.583462	1047.452214
2203.201578	1045.062937
2204.819378	1044.438228
2206.436862	1032.829837
2208.054032	1028.862471
2209.670885	1031.899767
2211.287424	1032.834499
2212.901970	1023.358974
2214.514523	1031.748252
2216.128440	1031.412587
2217.740366	1025.559441
2219.353655	1027.501166
2220.964954	1032.662005
2222.574263	1025.638695
2224.184935	1028.822844
2225.793619	1035.414918
2227.401991	1047.561772
2229.008376	1050.701632
2230.616123	1054.501166
2232.221885	1051.358974
2233.827335	1056.179487
2235.430800	1049.927739
2237.035628	1049.221445
2238.638472	1050.974359
2240.239333	1046.741259
2241.841557	1036.580420
2243.441799	1041.990676
2245.043403	1048.561772
2246.641354	1051.724942
2248.240668	1050.291375
2249.838002	1053.456876
2251.435028	1054.773893
2253.033415	1059.925408
2254.628155	1058.219114
2256.220917	1059.132867
2257.815042	1062.396270
2259.410528	1059.722611
2261.002369	1054.319347
2262.593904	1047.265734
2264.186801	1037.776224
2265.774388	1031.403263
2267.366671	1032.678322
2268.953648	1033.277389
2270.543652	1042.722611
2272.128352	1043.303030
2273.717746	1036.445221
2275.301837	1039.428904
2276.887290	1049.167832
2278.470774	1056.951049
2280.057283	1058.594406
2281.640159	1061.275058
2283.222732	1060.233100
2284.805001	1058.755245
2286.383640	1058.421911
2287.965304	1057.648019
2289.543339	1055.389277
2291.124397	1051.958042
2292.701828	1048.808858
2294.277296	1049.979021
2295.855786	1055.930070
2297.430652	1061.848485
2299.005217	1059.804196
2300.579481	1066.039627
2302.153445	1061.233100
2303.727109	1054.331002
2305.300473	1050.428904
2306.870218	1046.652681
2308.439664	1042.123543
2310.012128	1038.748252
2311.579318	1041.240093
2313.149525	1040.668998
2314.716119	1038.811189
2316.284072	1035.627040
2317.850069	1039.405594
2319.415769	1046.599068
2320.981171	1051.298368
2322.544620	1057.710956
2324.109428	1062.240093
2325.670628	1061.179487
2327.234842	1060.701632
2328.793794	1045.930070
2330.355760	1045.083916
2331.915776	1035.699301
2333.475496	1022.573427
2335.033268	1017.734266
2336.590744	1024.328671
2338.147926	1024.221445
2339.703160	1030.305361
2341.258101	1034.536131
2342.812747	1038.221445
2344.367100	1035.806527
2345.921159	1031.995338
2347.474925	1025.235431
2349.026746	1019.517483
2350.576624	1016.093240
2352.129511	1008.717949
2353.677154	1004.170163
2355.227806	1001.326340
2356.774866	996.076923
2358.323284	997.883450
2359.871411	1001.214452
2361.415949	996.459207
2362.961845	994.766900
2364.505803	1000.407925
2366.051117	1011.207459
2367.592847	1009.240093
2369.135935	1013.447552
2370.677086	1007.850816
2372.217948	1009.867133
2373.758521	1011.275058
2375.298805	1013.876457
2376.838800	1016.335664
2378.375216	1016.937063
2379.914634	1010.097902
2381.450475	1015.452214
2382.987673	1013.006993
2384.521295	1014.713287
2386.057917	1009.491841
2387.592609	1006.102564
2389.125371	1001.242424
2390.657846	1006.580420
2392.188393	1011.424242
2393.721938	1009.771562
2395.250272	1012.195804
2396.779962	1019.377622
2398.309367	1017.174825
2399.838487	1015.358974
2401.367321	1005.545455
2402.890951	1003.431235
2404.419216	992.941725
2405.942279	986.878788
2407.469975	984.923077
2408.990832	988.519814
2410.516321	992.393939
2412.038251	990.072261
2413.561535	995.811189
2415.082899	1001.937063
2416.602343	993.701632
2418.123142	986.755245
2419.642022	982.058275
2421.160621	984.475524
2422.677301	982.156177
2424.195337	981.522145
2425.713091	982.114219
2427.227293	985.512821
2428.741216	992.365967
2430.254858	994.610723
2431.769854	997.892774
2433.281303	1000.156177
2434.794105	993.053613
2436.304995	992.787879
2437.815606	999.289044
2439.324305	995.743590
2440.835990	987.757576
2442.344132	979.298368
2443.851996	983.020979
2445.359581	988.174825
2446.863627	992.620047
2448.370657	997.841492
2449.875779	1001.200466
2451.380624	996.986014
2452.883562	994.242424
2454.386224	1000.829837
2455.888609	1000.636364
2457.389089	986.843823
2458.890922	985.391608
2460.390850	983.962704
2461.890503	994.904429
2463.389881	997.820513
2464.887356	998.319347
2466.382929	995.398601
2467.881482	989.710956
2469.376507	978.508159
2470.872884	978.428904
2472.365735	982.480186
2473.859939	983.016317
2475.353869	982.554779
2476.844275	988.606061
2478.337659	988.916084
2479.829145	997.573427
2481.318734	995.566434
2482.808051	997.123543
2484.295472	994.142191
2485.785869	991.575758
2487.272748	982.892774
2488.760978	978.708625
2490.245691	968.517483
2491.730134	962.328671
2493.215929	959.247086
2494.699832	955.799534
2496.185085	953.762238
2497.665205	951.923077
2499.148298	948.517483
2500.629500	953.121212
2502.110433	951.857809
2503.589477	951.808858
2505.068252	946.918415
2506.546759	941.412587
2508.024997	934.298368
2509.502968	932.270396
2510.977433	933.652681
2512.454868	930.799534
2513.928798	937.310023
2515.404080	933.629371
2516.879094	933.934732
2518.350607	938.344988
2519.823471	939.214452
2521.294452	945.116550
2522.766783	942.116550
2524.234000	940.237762
2525.704184	935.312354
2527.172487	933.883450
2528.640525	935.508159
2530.108297	934.452214
2531.575806	942.181818
2533.043049	938.715618
2534.506800	942.209790
2535.971901	948.414918
2537.435125	953.960373
2538.899698	954.510490
2540.360783	952.629371
2541.823217	945.034965
2543.285388	946.510490
2544.744072	949.503497
2546.207329	947.720280
2547.665489	938.293706
2549.124999	944.878788
2550.579414	942.135198
2552.038400	942.223776
2553.495514	944.724942
2554.950756	948.703963
2556.405738	940.244755
2557.858850	939.561772
2559.313311	935.132867
2560.765903	943.386946
2562.218235	937.489510
2563.668699	935.841492
2565.122120	931.529138
2566.570458	940.825175
2568.021751	937.459207
2569.471179	935.282051
2570.917134	942.594406
2572.366044	939.818182
2573.811484	934.128205
2575.258271	936.596737
2576.703195	936.328671
2578.147862	935.044289
2579.593876	929.620047
2581.036424	938.009324
2582.480318	938.988345
2583.920748	946.261072
2585.362526	949.072261
2586.802444	946.722611
2588.243709	947.965035
2589.681512	938.748252
2591.122265	939.324009
2592.557956	940.135198
2593.996595	936.571096
2595.433378	930.927739
2596.868305	926.403263
2598.306179	932.692308
2599.738996	931.710956
2601.173160	933.762238
2602.605470	933.419580
2604.039126	924.713287
2605.470929	922.356643
2606.902478	919.503497
2608.333774	924.263403
2609.763219	926.874126
2611.192411	926.636364
2612.619752	930.179487
2614.048440	927.286713
2615.476875	931.657343
2616.901864	932.167832
2618.328198	938.834499
2619.752685	942.613054
2621.178517	944.020979
2622.600905	942.251748
2624.024638	945.895105
2625.446526	947.962704
2626.868163	945.006993
2628.287956	941.051282
2629.709094	938.261072
2631.129982	927.151515
2632.547431	919.778555
2633.967820	918.694639
2635.384772	921.202797
2636.801476	921.303030
2638.217931	924.540793
2639.634138	927.885781
2641.050097	936.391608
2642.464215	940.461538
2643.878085	945.095571
2645.290116	949.512821
2646.703492	944.046620
2648.113438	935.843823
2649.526320	929.076923
2650.935773	929.720280
2652.344980	930.212121
2653.752351	927.920746
2655.162656	931.519814
2656.571125	942.724942
2657.977760	953.822844
2659.384149	965.748252
2660.788704	976.554779
2662.194603	985.202797
2663.598669	985.967366
2665.002490	986.419580
2666.406067	992.792541
2667.807813	996.680653
2669.210902	993.044289
2670.610573	982.076923
2672.011588	983.913753
2673.409187	988.027972
2674.809715	992.421911
2676.206829	998.995338
2677.605286	1008.512821
2679.001916	1018.095571
2680.398303	1016.375291
2681.794448	1022.372960
2683.188767	1029.920746
2684.584429	1026.857809
2685.976682	1020.592075
2687.370277	1010.871795
2688.762048	1006.349650
2690.155162	999.790210
2691.546452	996.571096
2692.935919	1003.389277
2694.325146	1004.979021
2695.714134	1007.449883
2697.104463	1013.533800
2698.489809	1028.783217
2699.878078	1031.072261
2701.264527	1025.825175
2702.650737	1033.489510
2704.036708	1034.102564
2705.419281	1034.662005
2706.803196	1039.351981
2708.186872	1052.004662
2709.570311	1060.004662
2710.950354	1068.312354
2712.331739	1085.934732
2713.711309	1108.673660
2715.092219	1115.139860
2716.471315	1120.759907
2717.848597	1123.398601
2719.227220	1126.111888
2720.604029	1121.165501
2721.980603	1106.319347
2723.356941	1094.629371
2724.731467	1084.508159
2726.107334	1068.417249
2727.479815	1051.407925
2728.855211	1035.874126
2730.225647	1014.829837
2731.597423	997.620047
2732.968966	993.582751
2734.338700	985.762238
2735.709774	981.843823
2737.079041	975.298368
2738.448074	968.368298
2739.815301	965.445221
2741.182294	972.172494
2742.549055	972.787879
2743.915583	962.277389
2745.280307	953.200466
2746.644798	938.419580
2748.009058	929.475524
2749.373085	918.580420
2750.736881	913.417249
2752.097303	905.834499
2753.460635	886.610723
2754.819025	878.083916
2756.180325	860.550117
2757.538255	861.044289
2758.899093	851.850816
2760.258131	850.505828
2761.613802	848.282051
2762.972380	847.242424
2764.327591	847.254079
2765.682573	860.699301
2767.035758	868.055944
2768.391850	870.055944
2769.744578	869.386946
2771.097078	873.913753
2772.449349	864.368298
2773.802958	864.114219
2775.153207	858.836830
2776.501661	861.151515
2777.853020	854.675991
2779.201021	851.864802
2780.550359	846.480186
2781.897905	854.736597
2783.245225	850.375291
2784.592317	851.254079
2785.937619	851.890443
2787.282695	855.930070
2788.627545	844.228438
2789.972169	841.853147
2791.313441	843.424242
2792.656050	839.937063
2793.998435	830.393939
2795.340594	828.976690
2796.679404	822.407925
2798.021114	821.202797
2799.359475	817.456876
2800.699174	818.491841
2802.037088	816.023310
2803.373216	814.349650
2804.709122	809.920746
2806.046365	815.431235
2807.381824	817.951049
2808.717060	811.909091
2810.050513	818.447552
2811.385303	821.766900
2812.716753	823.317016
2814.051098	817.659674
2815.380544	816.524476
2816.711328	822.305361
2818.041891	812.251748
2819.370674	806.913753
2820.700793	804.585082
2822.029134	807.881119
2823.357254	803.277389
2824.683596	793.655012
2826.011274	791.389277
2827.335620	780.944056
2828.661302	772.662005
2829.985208	765.324009
2831.308894	771.566434
2832.633916	772.067599
2833.955609	764.958042
2835.277083	769.291375
2836.598337	769.881119
2837.919374	772.067599
2839.238637	771.701632
2840.559236	770.501166
2841.878063	763.748252
2843.196673	763.804196
2844.513511	764.379953
2845.830132	768.489510
2847.146536	773.813520
2848.461170	771.377622
2849.777139	774.531469
2851.089789	778.874126
2852.403773	776.163170
2853.717541	769.582751
2855.031092	771.540793
2856.342877	774.515152
2857.652895	770.456876
2858.964248	778.564103
2860.272286	775.937063
2861.581658	774.589744
2862.890815	779.769231
2864.199758	781.212121
2865.506936	784.331002
2866.812352	785.370629
2868.119101	786.032634
2869.424089	785.874126
2870.728862	786.953380
2872.031875	791.137529
2873.337768	788.195804
2874.638807	789.002331
2875.941179	781.426573
2877.241793	780.857809
2878.543739	782.848485
2879.845473	777.368298
2881.143903	768.314685
2882.443666	764.869464
2883.741672	762.983683
2885.039466	764.449883
2886.335504	758.715618
2887.632875	765.484848
2888.928490	769.412587
2890.223894	770.002331
2891.519087	769.927739
2892.810983	774.011655
2894.105754	772.547786
2895.397230	767.032634
2896.690038	761.067599
2897.982636	764.881119
2899.271939	764.608392
2900.562576	762.540793
2901.851461	762.918415
2903.141678	767.759907
2904.428604	767.505828
2905.716862	763.757576
2907.003371	757.902098
2908.289671	751.219114
2909.575763	743.018648
2910.860107	737.596737
2912.147323	737.573427
2913.429712	744.708625
2914.713433	748.055944
2915.995407	752.692308
2917.277175	758.897436
2918.557197	764.060606
2919.840090	761.426573
2921.121237	759.811189
2922.399101	755.291375
2923.679835	750.522145
2924.957289	742.785548
2926.234536	733.158508
2927.510041	728.125874
2928.788414	729.529138
2930.061973	729.300699
2931.338399	733.067599
2932.613084	736.046620
2933.886028	740.209790
2935.160304	739.909091
2936.432840	744.058275
2937.705171	749.111888
2938.974230	747.657343
2940.246154	741.720280
2941.516340	736.100233
2942.786322	730.445221
2944.056101	731.477855
2945.324144	724.249417
2946.590450	721.641026
2947.856554	719.447552
2949.123989	718.494172
2950.389688	715.277389
2951.655186	718.083916
2952.920481	720.615385
2954.182511	719.871795
2955.445871	719.818182
2956.709030	718.622378
2957.970457	724.944056
2959.233213	729.393939
2960.494237	724.648019
2961.753531	725.407925
2963.012624	725.335664
2964.271518	725.275058
2965.530211	726.328671
2966.788703	731.641026
2968.045467	725.144522
2969.302032	726.200466
2970.556868	719.505828
2971.813034	716.937063
2973.065945	720.414918
2974.320184	721.536131
2975.574225	718.393939
2976.826540	720.986014
2978.078657	719.855478
2979.329049	716.221445
2980.582296	715.696970
2981.830766	711.629371
2983.082091	701.696970
2984.330166	701.018648
2985.578044	697.855478
2986.825726	702.517483
2988.073210	705.699301
2989.318973	707.018648
2990.564540	703.489510
2991.811434	704.030303
2993.055084	693.974359
2994.300061	694.589744
2995.541796	692.685315
2996.786382	688.543124
2998.029249	685.025641
2999.268875	688.468531
3000.511351	698.307692
3001.750587	700.934732
3002.991151	698.170163
3004.229998	698.268065
3005.468651	693.354312
3006.705588	687.235431
3007.943853	683.736597
3009.180402	688.841492
3010.416758	681.037296
3011.652920	684.916084
3012.887368	683.298368
3014.121623	688.578089
3015.355686	689.235431
3016.588035	684.696970
3017.818673	679.871795
3019.052157	682.531469
3020.283930	677.729604
3021.513991	679.766900
3022.743861	685.214452
3023.972021	688.400932
3025.201508	688.864802
3026.429285	691.041958
3027.656871	681.116550
3028.885783	686.179487
3030.109953	681.860140
3031.336967	677.368298
3032.560756	675.310023
3033.785871	676.692308
3035.009281	678.904429
3036.232500	687.114219
3037.454014	690.491841
3038.678369	692.862471
3039.897989	685.771562
3041.118935	681.130536
3042.339692	676.296037
3043.558745	674.643357
3044.779123	663.163170
3045.996285	665.407925
3047.214773	664.510490
3048.431558	664.137529
3049.648155	670.594406
3050.864565	675.244755
3052.077761	672.813520
3053.293795	676.568765
3054.506617	676.277389
3055.722276	683.445221
3056.933213	681.498834
3058.145474	683.268065
3059.357548	685.536131
3060.569436	693.876457
3061.779627	684.333333
3062.989631	683.081585
3064.199449	685.030303
3065.407571	681.757576
3066.615508	676.223776
3067.821749	682.368298
3069.029315	683.335664
3070.235186	686.242424
3071.440872	685.832168
3072.646374	690.715618
3073.850182	692.734266
3075.055314	691.958042
3076.258753	681.303030
3077.460501	674.328671
3078.662064	670.093240
3079.863444	668.202797
3081.064640	664.790210
3082.264146	668.501166
3083.463469	667.074592
3084.664115	675.279720
3085.863071	677.722611
3087.058833	684.275058
3088.257423	687.899767
3089.452821	689.825175
3090.649541	686.883450
3091.843069	681.965035
3093.039425	676.386946
3094.234094	673.016317
3095.425573	666.771562
3096.621384	663.062937
3097.812500	661.841492
3099.004940	666.699301
3100.194191	667.517483
3101.386269	675.664336
3102.576663	675.655012
3103.763871	679.249417
3104.952401	681.585082
3106.142254	681.421911
3107.328922	681.850816
3108.515411	682.230769
3109.701721	676.699301
3110.889352	674.247086
3112.073801	676.298368
3113.256571	675.624709
3114.442163	673.958042
3115.626076	679.850816
3116.808309	674.743590
3117.990365	681.892774
3119.172242	683.275058
3120.353941	682.748252
3121.533963	682.461538
3122.712308	678.111888
3123.893473	670.144522
3125.071463	668.962704
3126.249276	662.370629
3127.426912	656.526807
3128.602873	654.293706
3129.778658	656.230769
3130.955764	654.102564
3132.131195	661.776224
3133.304953	662.032634
3134.477038	656.365967
3135.650445	653.832168
3136.823675	654.666667
3137.995234	655.018648
3139.168113	657.666667
3140.337825	653.393939
3141.508858	660.354312
3142.678220	664.517483
3143.845913	669.006993
3145.016421	667.638695
3146.182271	667.356643
3147.352429	664.270396
3148.517930	663.102564
3149.683258	660.799534
3150.848412	659.172494
3152.013393	654.146853
3153.179693	654.344988
3154.341340	652.972028
3155.504308	655.258741
3156.667103	653.104895
3157.829725	651.701632
3158.990681	650.459207
3160.151466	650.449883
3161.312078	649.944056
3162.471026	654.480186
3163.629803	650.396270
3164.788407	653.172494
3165.946840	651.174825
3167.105102	654.310023
3168.261701	656.062937
3169.416639	658.191142
3170.572896	658.142191
3171.727492	660.923077
3172.881918	665.920746
3174.034684	665.016317
3175.187279	664.277389
3176.339705	663.540793
3177.491960	660.526807
3178.644046	662.766900
3179.792985	657.440559
3180.944731	654.766900
3182.094820	655.053613
3183.243252	665.801865
3184.391514	670.682984
3185.539608	672.995338
3186.687533	675.277389
3187.833802	677.862471
3188.979903	679.713287
3190.124350	674.836830
3191.268629	674.536131
3192.412739	671.689977
3193.558168	659.515152
3194.700458	656.447552
3195.842581	652.815851
3196.984536	662.515152
3198.126324	659.356643
3199.267945	655.372960
3200.406431	648.948718
3201.546234	643.815851
3202.687354	649.277389
3203.825341	655.142191
3204.961677	663.876457
3206.097849	660.794872
3207.235337	654.538462
3208.371177	657.503497
3209.508334	660.722611
3210.640878	667.969697
3211.777703	669.424242
3212.909918	661.328671
3214.043449	658.773893
3215.176815	664.687646
3216.307055	675.382284
3217.440092	678.410256
3218.570003	677.545455
3219.701230	671.752914
3220.829333	668.347319
3221.960232	667.344988
3223.089487	662.648019
3224.217099	665.498834
3225.341588	662.699301
3226.470353	649.773893
3227.595996	655.592075
3228.721476	660.160839
3229.845315	661.729604
3230.971949	662.034965
3232.093985	667.461538
3233.217337	667.748252
3234.340527	668.491841
3235.463554	667.780886
3236.584943	666.727273
3237.706169	671.282051
3238.825757	672.431235
3239.945184	669.613054
3241.062974	673.046620
3242.183555	682.545455
3243.301023	688.167832
3244.418330	696.627040
3245.535477	702.967366
3246.650987	699.650350
3247.767813	693.780886
3248.881529	688.764569
3249.998034	686.337995
3251.112905	680.230769
3252.224666	680.433566
3253.336269	682.244755
3254.449187	682.179487
3255.561945	693.412587
3256.671597	698.386946
3257.782564	702.456876
3258.893372	697.855478
3260.002548	695.522145
3261.110093	689.613054
3262.218953	685.055944
3263.327654	682.883450
3264.433253	678.414918
3265.540167	676.822844
3266.645451	684.557110
3267.752049	683.268065
3268.855547	684.545455
3269.960359	685.475524
3271.065014	686.321678
3272.166571	679.386946
3273.267971	677.881119
3274.370685	675.848485
3275.473243	675.825175
3276.572704	684.447552
3277.674949	683.501166
3278.774098	686.312354
3279.871622	691.034965
3280.968992	692.221445
3282.069143	694.533800
3283.166202	701.892774
3284.263105	701.974359
3285.359853	693.766900
3286.452042	686.286713
3287.548481	681.067599
3288.643297	675.743590
3289.737959	675.659674
3290.830998	666.815851
3291.923884	666.149184
3293.015149	670.902098
3294.107727	670.494172
3295.198685	672.839161
3296.288023	677.461538
3297.377208	679.529138
3298.467705	684.198135
3299.555119	685.482517
3300.642379	686.384615
3301.730952	687.209790
3302.819372	690.934732
3303.903246	692.466200
3304.991361	690.454545
3306.076394	691.923077
3307.159812	680.340326
3308.244542	682.545455
3309.327656	685.391608
3310.412083	685.741259
3311.493431	688.892774
3312.576091	693.034965
3313.657137	697.349650
3314.738031	700.153846
3315.817313	703.095571
3316.896444	698.412587
3317.976887	692.862471
3319.054255	696.731935
3320.132935	696.899767
3321.210003	699.650350
3322.286921	700.958042
3323.362229	698.799534
3324.437387	698.202797
3325.513856	702.074592
3326.587255	701.671329
3327.660504	705.414918
3328.735065	701.221445
3329.808017	700.456876
3330.879360	702.331002
3331.952014	706.972028
3333.021601	710.792541
3334.092500	707.200466
3335.161791	708.841492
3336.232392	704.934732
3337.301388	701.389277
3338.368777	705.055944
3339.434561	704.167832
3340.504571	711.296037
3341.571518	712.820513
3342.635403	714.391608
3343.702055	712.916084
3344.767104	717.160839
3345.830549	719.657343
3346.893848	709.648019
3347.957000	696.314685
3349.020006	694.855478
3350.082866	688.988345
3351.144123	696.303030
3352.202324	702.167832
3353.264746	713.317016
3354.324112	722.421911
3355.383332	723.456876
3356.443861	727.874126
3357.499882	738.398601
3358.558666	735.836830
3359.612943	728.361305
3360.669984	717.321678
3361.725426	712.988345
3362.782178	703.685315
3363.837331	710.965035
3364.890887	710.962704
3365.942846	710.713287
3366.997568	707.195804
3368.049240	704.037296
3369.100769	703.899767
3370.153606	708.027972
3371.203396	703.969697
3372.254495	705.067599
3373.302547	697.051282
3374.353360	701.051282
3375.401127	712.505828
3376.448752	724.403263
3377.496235	723.801865
3378.542125	726.482517
3379.589323	723.135198
3380.633479	719.193473
3381.680393	717.004662
3382.725715	711.452214
3383.767996	703.981352
3384.810136	701.403263
3385.853585	696.680653
3386.896892	701.923077
3387.938609	700.370629
3388.980186	698.482517
3390.021621	699.428904
3391.061468	705.344988
3392.099726	703.909091
3393.139292	706.244755
3394.178718	715.731935
3395.216556	719.461538
3396.252807	720.277389
3397.288919	723.305361
3398.326338	724.720280
3399.360723	721.286713
3400.396417	719.547786
3401.431971	725.487179
3402.464494	730.233100
3403.499769	730.571096
3404.532015	728.069930
3405.564122	728.083916
3406.594645	728.615385
3407.626475	720.538462
3408.658167	710.627040
3409.686831	711.550117
3410.715358	706.552448
3411.745191	707.219114
3412.774887	715.384615
3413.801557	723.179487
3414.829533	724.801865
3415.854486	725.580420
3416.882188	732.270396
3417.906866	735.925408
3418.932851	728.149184
3419.957257	723.079254
3420.981526	718.843823
3422.004216	724.417249
3423.026770	719.855478
3424.050630	721.937063
3425.071470	717.766900
3426.092174	713.900766
3427.114184	711.019397
3428.133176	710.052281
3429.152033	711.928904
3430.172196	717.578755
3431.189342	727.931319
