-118.702670	6.450000
-116.033069	11.600000
-113.366404	17.450000
-110.700491	-1.500000
-108.037511	18.800000
-105.373100	8.800000
-102.711620	15.450000
-100.048711	15.350000
-97.390908	7.550000
-94.731676	-0.050000
-92.073192	2.200000
-89.417633	3.350000
-86.760644	12.550000
-84.108754	1.750000
-81.455434	32.500000
-78.805033	13.150000
-76.153204	7.750000
-73.506465	17.100000
-70.858296	13.450000
-68.210870	12.500000
-65.566359	18.750000
-62.920418	13.100000
-60.279559	19.250000
-57.637271	8.500000
-54.997892	13.750000
-52.357084	9.600000
-49.717015	15.250000
-47.082020	12.200000
-44.445595	25.100000
-41.812073	17.100000
-39.177123	27.600000
-36.547239	17.450000
-33.913761	27.800000
-31.285346	18.050000
-28.657665	25.350000
-26.028555	25.400000
-23.404503	24.500000
-20.776860	27.550000
-18.154272	26.450000
-15.532414	33.850000
-12.911287	59.050000
-10.290891	117.100000
-7.673382	381.800000
-5.054445	1118.200000
-2.438394	2761.200000
0.176930	3142.000000
2.791525	1892.800000
5.403239	259.600000
8.016381	57.300000
10.624489	27.900000
13.236178	31.550000
15.842837	12.000000
18.450925	38.350000
21.058287	24.200000
23.660625	24.550000
26.266542	16.900000
28.867436	25.950000
31.469758	18.550000
34.067062	23.200000
36.667943	14.350000
39.263808	26.700000
41.861101	18.100000
44.457675	27.350000
47.049240	17.100000
49.642234	16.200000
52.232366	11.100000
54.823925	25.750000
57.412626	31.350000
60.002753	31.450000
62.587881	35.950000
65.174437	27.650000
67.760278	32.650000
70.343266	28.700000
72.927681	28.650000
75.504967	31.800000
78.085818	30.000000
80.663822	25.000000
83.241114	30.700000
85.819834	31.500000
88.393571	37.250000
90.968735	41.850000
93.541056	36.450000
96.112670	49.200000
98.681443	52.750000
101.251643	59.050000
103.819004	57.550000
106.387792	73.050000
108.953743	72.600000
111.516859	100.900000
114.083531	118.000000
116.640981	146.700000
119.204117	199.750000
121.762294	298.350000
124.324025	418.250000
126.880799	642.700000
129.438999	944.850000
131.992247	1412.600000
134.544797	2065.150000
137.100897	2915.000000
139.652049	3879.350000
142.202504	4844.850000
144.752261	5545.600000
147.299199	6062.500000
149.845442	6351.800000
152.393110	6492.800000
154.940082	6581.550000
157.482118	6573.050000
160.023462	6541.900000
162.564112	6560.250000
165.106187	6480.200000
167.645452	6506.800000
170.181907	6453.100000
172.717672	6423.650000
175.254862	6440.500000
177.791361	6401.200000
180.325054	6404.100000
182.855943	6381.400000
185.386144	6378.450000
187.917771	6355.200000
190.446596	6348.400000
192.972622	6339.600000
195.497962	6351.400000
198.024727	6334.650000
200.548696	6368.250000
203.071979	6342.600000
205.594578	6328.400000
208.114384	6327.250000
210.633507	6296.000000
213.151947	6330.600000
215.671812	6314.950000
218.184674	6354.350000
220.701068	6336.700000
223.216781	6370.950000
225.727603	6363.500000
228.239850	6419.700000
230.749314	6394.150000
233.258100	6371.350000
235.766208	6446.200000
238.275740	6398.650000
240.780391	6474.100000
243.284366	6428.150000
245.789765	6467.550000
248.290289	6532.100000
250.794336	6540.450000
253.291413	6540.600000
255.792012	6514.700000
258.289840	6508.550000
260.786995	6518.600000
263.283478	6569.350000
265.775097	6491.250000
268.270236	6596.350000
270.762608	6531.750000
273.254310	6510.900000
275.743249	6560.450000
278.233611	6534.950000
280.721212	6484.300000
283.206053	6519.450000
285.694409	6512.150000
288.175825	6504.400000
290.660755	6490.850000
293.140839	6540.250000
295.624436	6501.100000
298.103191	6534.700000
300.583368	6559.250000
303.060794	6591.550000
305.537556	6549.350000
308.013654	6563.700000
310.487004	6585.150000
312.959693	6584.950000
315.431720	6570.950000
317.903085	6670.000000
320.371707	6675.850000
322.839669	6750.800000
325.309054	6653.150000
327.773616	6656.400000
330.241682	6580.350000
332.704927	6583.450000
335.167516	6635.350000
337.629448	6582.850000
340.090723	6572.550000
342.549263	6594.150000
345.009226	6537.250000
347.466457	6537.450000
349.923033	6538.950000
352.378955	6527.200000
354.832147	6443.150000
357.286762	6371.600000
359.736575	6420.200000
362.189884	6336.600000
364.638394	6235.950000
367.086254	6213.950000
369.535536	6200.700000
371.980023	6196.300000
374.425933	6130.950000
376.871194	6038.200000
379.313736	6032.400000
381.755630	5977.600000
384.196876	5958.200000
386.635408	5929.150000
389.075360	5892.400000
391.512599	5860.050000
393.947127	5810.450000
396.385141	5776.250000
398.818380	5733.650000
401.253039	5687.150000
403.682926	5693.950000
406.116298	5671.400000
408.544900	5677.350000
410.972860	5546.400000
413.402241	5601.350000
415.826858	5599.800000
418.252895	5584.800000
420.678293	5585.700000
423.103050	5580.650000
425.523048	5571.700000
427.944468	5596.750000
430.363192	5580.950000
432.783335	5542.650000
435.200784	5582.400000
437.619654	5560.250000
440.035829	5572.600000
442.447258	5549.650000
444.862163	5588.300000
447.274378	5533.250000
449.685960	5511.600000
452.096907	5540.750000
454.505167	5546.250000
456.912796	5511.750000
459.319792	5596.300000
461.726157	5515.050000
464.129839	5502.100000
466.532891	5482.900000
468.935313	5530.800000
471.337105	5485.650000
473.736219	5521.500000
476.136753	5480.300000
478.536658	5464.750000
480.931841	5453.000000
483.330489	5453.350000
485.724418	5426.600000
488.117721	5387.200000
490.510399	5423.550000
492.902451	5440.000000
495.295921	5348.100000
497.684679	5390.000000
500.070771	5377.300000
502.458283	5345.800000
504.845172	5335.000000
507.229396	5337.850000
509.615040	5326.300000
511.998022	5339.400000
514.378342	5332.150000
516.760083	5352.800000
519.139164	5316.450000
521.519663	5307.900000
523.897506	5302.000000
526.272692	5328.150000
528.647261	5320.050000
531.023249	5291.350000
533.396584	5302.750000
535.771336	5274.500000
538.141402	5228.000000
540.510854	5247.850000
542.881723	5214.950000
545.247911	5177.850000
547.615518	5141.550000
549.980479	5093.200000
552.344828	5059.050000
554.708563	5074.350000
557.073716	5028.050000
559.434197	4951.100000
561.796095	4932.550000
564.155354	4893.850000
566.511974	4873.150000
568.872040	4852.750000
571.225414	4791.100000
573.582233	4735.800000
575.936417	4691.050000
578.289992	4669.250000
580.642960	4607.300000
582.993295	4585.000000
585.345048	4528.450000
587.690124	4488.200000
590.040663	4455.000000
592.384530	4444.650000
594.733858	4436.900000
597.078537	4419.900000
599.420592	4382.750000
601.764064	4392.400000
604.104913	4369.250000
606.445159	4339.750000
608.782785	4332.100000
611.123846	4306.400000
613.460270	4319.850000
615.798110	4294.850000
618.133333	4290.900000
620.465939	4328.350000
622.799963	4293.900000
625.131372	4293.300000
627.462183	4302.750000
629.792396	4296.300000
632.122012	4282.250000
634.447004	4315.700000
636.777438	4325.650000
639.103251	4318.150000
641.426456	4313.850000
643.751078	4348.750000
646.073094	4309.850000
648.394516	4344.150000
650.713335	4359.750000
653.033571	4315.350000
655.353212	4331.400000
657.670254	4386.450000
659.986703	4409.850000
662.300554	4403.100000
664.615821	4411.850000
666.928491	4471.000000
669.242576	4464.450000
671.552061	4502.850000
673.862962	4522.300000
676.171270	4522.150000
678.478989	4533.850000
680.788124	4585.550000
683.092666	4610.800000
685.396622	4635.600000
687.699991	4653.500000
690.004776	4685.250000
692.304973	4714.100000
694.606586	4757.550000
696.907613	4758.450000
699.204059	4783.050000
701.501920	4836.050000
703.799197	4836.650000
706.095891	4859.900000
708.388009	4862.750000
710.683538	4906.850000
712.974493	4950.850000
715.266863	4989.350000
717.556657	4969.500000
719.845872	4972.200000
722.134507	5009.550000
724.420569	5083.450000
726.708045	5090.150000
728.992951	5122.850000
731.277279	5166.300000
733.559038	5172.300000
735.842211	5177.100000
738.124807	5227.800000
740.402847	5229.000000
742.682301	5252.950000
744.961180	5348.800000
747.239484	5358.950000
749.513237	5417.400000
751.788405	5397.350000
754.062999	5412.550000
756.335034	5474.900000
758.608482	5491.750000
760.879372	5560.450000
763.147706	5548.300000
765.417453	5566.350000
767.684645	5630.500000
769.951268	5638.500000
772.217320	5692.150000
774.480821	5682.800000
776.745734	5715.600000
779.010079	5716.350000
781.269893	5770.600000
783.531121	5791.800000
785.791781	5822.100000
788.049895	5842.650000
790.305464	5825.250000
792.564423	5915.400000
794.816884	5883.250000
797.074712	5865.100000
799.328021	5915.400000
801.578790	5932.600000
803.830971	5923.050000
806.080613	5964.150000
808.331667	5929.350000
810.578210	5926.950000
812.826166	5973.350000
815.071586	6032.050000
817.318419	5971.000000
819.564689	5995.450000
821.806456	6075.050000
824.051605	6004.150000
826.290283	6045.750000
828.532342	6090.850000
830.769903	6124.550000
833.008876	6162.750000
835.245322	6148.700000
837.483179	6161.500000
839.718511	6189.400000
841.951320	6284.050000
844.185539	6303.150000
846.417237	6330.800000
848.648380	6371.550000
850.878968	6413.700000
853.109002	6506.800000
855.338481	6557.400000
857.563480	6648.100000
859.791852	6710.650000
862.015746	6761.550000
864.241051	6874.350000
866.461880	7022.000000
868.686081	7021.150000
870.905809	7062.850000
873.126947	7167.000000
875.347535	7338.850000
877.565614	7421.950000
879.785102	7523.250000
882.000124	7579.850000
884.214598	7643.600000
886.428525	7744.900000
888.641904	7765.500000
890.854737	7771.300000
893.067022	7800.500000
895.276806	7850.350000
897.486044	7846.050000
899.694737	7886.000000
901.900930	7852.050000
904.108533	7816.000000
906.313639	7753.750000
908.518201	7677.000000
910.720268	7666.600000
912.923744	7514.000000
915.124726	7437.400000
917.325166	7316.650000
919.527015	7210.350000
921.722473	7101.350000
923.921289	6971.050000
926.115668	6859.250000
928.313404	6674.800000
930.506704	6620.350000
932.701413	6494.600000
934.893635	6363.000000
937.085320	6335.400000
939.276467	6232.550000
941.465131	6209.250000
943.653259	6134.400000
945.838905	6073.300000
948.027905	6084.350000
950.212480	6086.550000
952.396521	6033.000000
954.583913	6046.500000
956.763000	6127.600000
958.945438	6052.050000
961.127342	6052.000000
963.306771	6062.150000
965.483728	6053.400000
967.662093	6068.400000
969.841865	6098.300000
972.015288	6067.250000
974.192057	6050.150000
976.364419	6013.500000
978.538189	6004.150000
980.707555	5918.600000
982.880265	5895.350000
985.050510	5845.700000
987.220225	5750.100000
989.389412	5770.700000
991.554202	5652.950000
993.722334	5636.400000
995.886070	5569.050000
998.051214	5542.300000
1000.213898	5489.350000
1002.376057	5412.000000
1004.535759	5389.000000
1006.694936	5306.100000
1008.855520	5258.650000
1011.013649	5151.400000
1013.171255	5119.400000
1015.328337	5103.650000
1017.484895	5032.500000
1019.637074	5035.000000
1021.790660	4967.800000
1023.943724	4887.050000
1026.094339	4872.150000
1028.246360	4866.600000
1030.394009	4829.800000
1032.544989	4862.600000
1034.691598	4776.550000
1036.837688	4777.400000
1038.983260	4743.700000
1041.130237	4714.550000
1043.270925	4695.500000
1045.414942	4658.100000
1047.556520	4641.000000
1049.697580	4636.300000
1051.840046	4596.950000
1053.976231	4604.300000
1056.115743	4555.400000
1058.250899	4565.850000
1060.389380	4526.550000
1062.523508	4532.550000
1064.657122	4515.450000
1066.792140	4458.550000
1068.922810	4535.700000
1071.054884	4441.200000
1073.184528	4427.900000
1075.313661	4408.450000
1077.442283	4366.800000
1079.570393	4369.000000
1081.696077	4345.100000
1083.821251	4313.650000
1085.947829	4327.150000
1088.070069	4232.650000
1090.193714	4251.950000
1092.313024	4224.350000
1094.437563	4144.600000
1096.555858	4141.950000
1098.675556	4122.200000
1100.792837	4067.550000
1102.909610	4006.350000
1105.025877	4043.250000
1107.139729	3989.100000
1109.254984	3912.700000
1111.365917	3910.550000
1113.480162	3847.750000
1115.590086	3869.000000
1117.701413	3798.500000
1119.812237	3802.600000
1121.918744	3726.100000
1124.028560	3708.950000
1126.134062	3676.850000
1128.240968	3653.100000
1130.341658	3639.600000
1132.447560	3633.400000
1134.549153	3577.200000
1136.652148	3571.550000
1138.754644	3521.950000
1140.850932	3502.500000
1142.952427	3487.150000
1145.049620	3434.400000
1147.146314	3430.000000
1149.242511	3420.050000
1151.338209	3388.500000
1153.433410	3416.000000
1155.526214	3341.200000
1157.620420	3347.450000
1159.708435	3316.300000
1161.801648	3290.550000
1163.888674	3254.200000
1165.978998	3251.200000
1168.065034	3225.350000
1170.154368	3245.600000
1172.237521	3176.000000
1174.322077	3181.750000
1176.408034	3184.200000
1178.489709	3158.900000
1180.572785	3130.850000
1182.653476	3131.000000
1184.733676	3118.000000
1186.813384	3111.850000
1188.892601	3124.250000
1190.969435	3052.400000
1193.043889	3090.750000
1195.121635	3069.450000
1197.195110	3042.550000
1199.269987	3080.850000
1201.340596	3053.500000
1203.412606	3028.500000
1205.482240	3067.650000
1207.553275	3038.000000
1209.623822	3061.300000
1211.690109	3032.850000
1213.757796	3055.450000
1215.823110	3056.350000
1217.889825	3034.150000
1219.952284	3024.350000
1222.018029	3037.850000
1224.079519	3012.650000
1226.142410	3024.550000
1228.202932	3010.450000
1230.262972	2994.750000
1232.322528	3006.550000
1234.379720	2992.800000
1236.436429	2998.950000
1238.490776	2989.850000
1240.548403	2978.150000
1242.603668	2986.600000
1244.654693	2982.250000
1246.707117	2993.500000
1248.759061	2992.200000
1250.808647	2990.250000
1252.857754	2975.150000
1254.906382	2996.250000
1256.954532	2987.550000
1259.002204	3012.100000
1261.045645	2978.900000
1263.092362	2966.150000
1265.136725	2979.350000
1267.180611	2992.450000
1269.222147	2967.450000
1271.261333	2955.450000
1273.303792	2946.250000
1275.342028	3013.150000
1277.381663	2974.150000
1279.420822	2958.700000
1281.455764	2936.950000
1283.492104	2983.850000
1285.526100	2994.700000
1287.561493	2971.000000
1289.592673	2979.550000
1291.625252	2974.000000
1293.657359	2980.150000
1295.687125	2970.450000
1297.718288	2949.500000
1299.745244	2969.100000
1301.773599	2975.150000
1303.797748	2994.400000
1305.825163	2940.800000
1307.848375	2978.650000
1309.872985	2977.600000
1311.895260	3016.500000
1313.918933	2983.950000
1315.940273	2993.250000
1317.961146	3009.250000
1319.981551	2990.550000
1321.997763	3009.750000
1324.015372	2955.900000
1326.030653	2986.250000
1328.049193	2994.750000
1330.063543	3005.050000
1332.075568	2987.100000
1334.090851	2992.050000
1336.101948	2986.850000
1338.114441	2962.500000
1340.122752	2994.350000
1342.134319	2981.950000
1344.139847	2993.700000
1346.148630	2973.150000
1348.153235	2988.450000
1350.161094	2979.650000
1352.168491	3023.650000
1354.169857	2969.250000
1356.172619	2995.450000
1358.174922	2971.050000
1360.176765	3008.600000
1362.178148	2972.900000
1364.177217	2994.450000
1366.175828	2989.050000
1368.173981	2956.100000
1370.171676	2964.950000
1372.165208	2945.650000
1374.160135	2946.700000
1376.154606	2962.700000
1378.148620	2957.650000
1380.140327	2974.150000
1382.131578	2965.350000
1384.120524	2952.050000
1386.110865	2925.550000
1388.100752	2930.350000
1390.088334	2919.050000
1392.075463	2943.550000
1394.060290	2954.600000
1396.046512	2940.750000
1398.030433	2899.750000
1400.013902	2944.350000
1401.996919	2931.550000
1403.977638	2925.300000
1405.959751	2951.000000
1407.939567	2945.650000
1409.918933	2914.900000
1411.894160	2928.350000
1413.872625	2932.050000
1415.848797	2938.250000
1417.824519	2933.750000
1419.799792	2936.900000
1421.772775	2943.650000
1423.745309	2954.700000
1425.717395	2926.200000
1427.689034	2981.150000
1429.656544	2936.350000
1431.629128	2961.450000
1433.593906	2907.650000
1435.563757	2960.050000
1437.529483	2945.300000
1439.496603	2940.650000
1441.461439	2904.450000
1443.422155	2951.200000
1445.387939	2921.050000
1447.347768	2908.000000
1449.308991	2909.700000
1451.271605	2889.750000
1453.230105	2889.150000
1455.188163	2906.900000
1457.145779	2930.650000
1459.102952	2904.000000
1461.057850	2908.950000
1463.014141	2903.100000
1464.968157	2897.550000
1466.921732	2908.200000
1468.873035	2905.850000
1470.825730	2895.250000
1472.776154	2877.500000
1474.726139	2866.500000
1476.675685	2880.350000
1478.622962	2889.150000
1480.567971	2884.300000
1482.514373	2881.150000
1484.460337	2912.650000
1486.405864	2911.450000
1488.349125	2869.450000
1490.291950	2890.300000
1492.232512	2881.450000
1494.174466	2876.050000
1496.114157	2888.400000
1498.053413	2847.950000
1499.992235	2864.950000
1501.928797	2881.000000
1503.866750	2879.100000
1505.802444	2871.200000
1507.737705	2865.100000
1509.670709	2870.300000
1511.603281	2873.900000
1513.535421	2921.250000
1515.467129	2876.150000
1517.396584	2876.000000
1519.327429	2862.050000
1521.257842	2861.000000
1523.184183	2870.550000
1525.111914	2864.750000
1527.037396	2835.250000
1528.962448	2850.200000
1530.887070	2870.250000
1532.811264	2854.700000
1534.733211	2837.450000
1536.656548	2840.650000
1538.577638	2839.050000
1540.496484	2853.650000
1542.416720	2838.850000
1544.334712	2842.350000
1546.252278	2865.500000
1548.167603	2853.100000
1550.084317	2848.850000
1551.996975	2857.550000
1553.912838	2842.050000
1555.826462	2876.700000
1557.737847	2827.000000
1559.650622	2822.950000
1561.559347	2798.950000
1563.469461	2831.700000
1565.379152	2820.000000
1567.288420	2835.550000
1569.195453	2804.000000
1571.100254	2821.800000
1573.006444	2807.550000
1574.910403	2831.700000
1576.813940	2796.700000
1578.717057	2807.150000
1580.617944	2827.400000
1582.520220	2801.550000
1584.420267	2799.650000
1586.321703	2829.950000
1588.219104	2754.400000
1590.116088	2770.700000
1592.012653	2760.850000
1593.910605	2788.500000
1595.802723	2805.700000
1597.698035	2794.100000
1599.592928	2789.600000
1601.485601	2804.050000
1603.377856	2769.100000
1605.267892	2809.050000
1607.157512	2799.400000
1609.046717	2779.550000
1610.935506	2787.050000
1612.822079	2812.850000
1614.710039	2787.250000
1616.593982	2796.250000
1618.479312	2776.050000
1620.364229	2780.250000
1622.246932	2777.850000
1624.131022	2761.100000
1626.011100	2766.550000
1627.892566	2821.400000
1629.771820	2778.300000
1631.652462	2786.800000
1633.527299	2802.550000
1635.407117	2771.850000
1637.282930	2740.450000
1639.158334	2776.800000
1641.035123	2770.250000
1642.906115	2781.500000
1644.780290	2750.450000
1646.650465	2772.200000
1648.523821	2764.200000
1650.394974	2751.400000
1652.263925	2743.250000
1654.134262	2775.700000
1656.000606	2775.750000
1657.868335	2739.750000
1659.733865	2751.050000
1661.600781	2733.750000
1663.463707	2757.650000
1665.328020	2706.600000
1667.190136	2740.350000
1669.051847	2716.500000
1670.914943	2695.050000
1672.775845	2725.900000
1674.634554	2717.000000
1676.492859	2714.600000
1678.352548	2718.600000
1680.206471	2735.800000
1682.063567	2715.350000
1683.920259	2726.900000
1685.772976	2706.500000
1687.628864	2702.300000
1689.480778	2693.550000
1691.332291	2713.700000
1693.183403	2674.500000
1695.034114	2697.450000
1696.884425	2716.200000
1698.732552	2722.250000
1700.582063	2680.200000
1702.425824	2677.050000
1704.274536	2684.250000
1706.117501	2662.900000
1707.963632	2668.550000
1709.805802	2672.100000
1711.651137	2689.400000
1713.490730	2678.700000
1715.331709	2677.150000
1717.174070	2703.600000
1719.012474	2659.150000
1720.852262	2668.650000
1722.689875	2673.400000
1724.527093	2695.150000
1726.362137	2683.050000
1728.198564	2677.600000
1730.032818	2684.300000
1731.866679	2657.150000
1733.700145	2674.350000
1735.529665	2680.250000
1737.362345	2659.950000
1739.191079	2675.200000
1741.022972	2642.600000
1742.850922	2691.200000
1744.678480	2641.050000
1746.505647	2661.950000
1748.332422	2653.250000
1750.158805	2642.100000
1751.981252	2664.350000
1753.806854	2633.600000
1755.628520	2674.900000
1757.451569	2642.050000
1759.272457	2647.600000
1761.092955	2677.750000
1762.914835	2665.350000
1764.731015	2672.450000
1766.550347	2622.550000
1768.365752	2634.950000
1770.184308	2645.100000
1771.998938	2662.050000
1773.813181	2628.800000
1775.627038	2637.600000
1777.440508	2660.250000
1779.251824	2649.500000
1781.064522	2659.800000
1782.876834	2664.200000
1784.685227	2614.600000
1786.495002	2640.600000
1788.300861	2612.100000
1790.109867	2641.100000
1791.914959	2655.550000
1793.721432	2665.900000
1795.527520	2624.350000
1797.329699	2628.250000
1799.135021	2640.950000
1800.936435	2636.300000
1802.739230	2640.650000
1804.538118	2626.400000
1806.338387	2648.350000
1808.138274	2625.050000
1809.936019	2622.200000
1811.733384	2596.250000
1813.530368	2586.800000
1815.326972	2603.150000
1817.121437	2600.050000
1818.917282	2604.350000
1820.707471	2617.850000
1822.502557	2623.300000
1824.291990	2601.650000
1826.084561	2616.750000
1827.874996	2627.950000
1829.663296	2581.950000
1831.454732	2615.100000
1833.240523	2588.650000
1835.027692	2597.000000
1836.812731	2602.950000
1838.600902	2592.800000
1840.385188	2600.600000
1842.167345	2576.650000
1843.950881	2599.700000
1845.732288	2578.400000
1847.515073	2587.850000
1849.293979	2591.850000
1851.074263	2579.250000
1852.852422	2563.900000
1854.631958	2560.300000
1856.409370	2584.450000
1858.184659	2574.400000
1859.961325	2568.350000
1861.735869	2568.500000
1863.511790	2535.150000
1865.282092	2595.150000
1867.055521	2527.700000
1868.826830	2589.350000
1870.597768	2564.500000
1872.370084	2579.050000
1874.136786	2614.100000
1875.906613	2550.200000
1877.672577	2576.700000
1879.441665	2592.450000
1881.206891	2547.150000
1882.971749	2560.050000
1884.737983	2581.850000
1886.500359	2570.350000
1888.262368	2531.700000
1890.024010	2553.000000
1891.785284	2505.000000
1893.546192	2559.300000
1895.306732	2524.250000
1897.065164	2532.850000
1898.823229	2520.800000
1900.579187	2539.800000
1902.336521	2536.000000
1904.093490	2523.250000
1905.848352	2505.150000
1907.601109	2532.750000
1909.353503	2526.800000
1911.107273	2497.200000
1912.858939	2526.000000
1914.608502	2518.050000
1916.359442	2474.400000
1918.110018	2499.300000
1919.856756	2508.500000
1921.604869	2500.000000
1923.350883	2495.850000
1925.098273	2508.750000
1926.843564	2477.100000
1928.586758	2493.500000
1930.331328	2504.000000
1932.073801	2503.750000
1933.815914	2490.200000
1935.557668	2493.100000
1937.299061	2483.750000
1939.038361	2520.300000
1940.777302	2482.900000
1942.515884	2482.600000
1944.252375	2484.500000
1945.988507	2488.200000
1947.726015	2491.900000
1949.459700	2518.600000
1951.194760	2496.600000
1952.927731	2519.300000
1954.660346	2476.750000
1956.392604	2494.050000
1958.124506	2508.600000
1959.854323	2492.750000
1961.582054	2516.000000
1963.311160	2534.700000
1965.039910	2482.650000
1966.766577	2514.800000
1968.492890	2500.200000
1970.220577	2482.700000
1971.942727	2499.350000
1973.667978	2511.150000
1975.389422	2481.650000
1977.113966	2518.050000
1978.836431	2509.450000
1980.555092	2495.600000
1982.276852	2482.550000
1983.994811	2503.650000
1985.714142	2471.450000
1987.429674	2498.350000
1989.150026	2509.550000
1990.866580	2503.350000
1992.579337	2492.500000
1994.295190	2516.500000
1996.008971	2520.050000
1997.722402	2516.350000
1999.433762	2530.900000
2001.146494	2509.150000
2002.855435	2494.050000
2004.567470	2517.750000
2006.273995	2520.650000
2007.983613	2502.400000
2009.691163	2534.000000
2011.398366	2534.000000
2013.103503	2518.200000
2014.808293	2512.050000
2016.514456	2491.450000
2018.216835	2527.500000
2019.920587	2515.850000
2021.622276	2514.150000
2023.323619	2535.700000
2025.024618	2540.650000
2026.723555	2497.350000
2028.423864	2505.850000
2030.120397	2462.500000
2031.818302	2511.500000
2033.514149	2506.950000
2035.213081	2508.500000
2036.906527	2500.450000
2038.601344	2486.450000
2040.295818	2504.350000
2041.986525	2523.400000
2043.680314	2496.750000
2045.370338	2507.500000
2047.061731	2489.800000
2048.751072	2502.300000
2050.441784	2451.650000
2052.128732	2468.200000
2053.815340	2458.800000
2055.503319	2463.050000
2057.187538	2434.550000
2058.873127	2467.850000
2060.558377	2446.150000
2062.241579	2434.350000
2063.926151	2428.350000
2065.605259	2405.500000
2067.289154	2415.200000
2068.967587	2408.100000
2070.649098	2442.550000
2072.326857	2411.950000
2074.004280	2430.000000
2075.683072	2439.750000
2077.359821	2439.500000
2079.034529	2440.200000
2080.710607	2412.350000
2082.384643	2441.300000
2084.058345	2404.050000
2085.731711	2432.600000
2087.403038	2407.000000
2089.074031	2424.050000
2090.744690	2418.750000
2092.415015	2417.650000
2094.085006	2407.100000
2095.752960	2412.500000
2097.420582	2426.450000
2099.086170	2376.250000
2100.753126	2404.650000
2102.418049	2440.600000
2104.082640	2426.300000
2105.745199	2398.800000
2107.409126	2424.400000
2109.071022	2410.200000
2110.732587	2443.550000
2112.393822	2411.350000
2114.053027	2416.600000
2115.711903	2431.850000
2117.370448	2403.150000
2119.028664	2427.750000
2120.683157	2402.200000
2122.340714	2419.600000
2123.997941	2433.750000
2125.651448	2442.350000
2127.306322	2416.800000
2128.957477	2436.000000
2130.611695	2417.300000
2132.262195	2415.900000
2133.914063	2419.450000
2135.560522	2418.600000
2137.211735	2408.600000
2138.859236	2426.800000
2140.508103	2423.600000
2142.154951	2417.400000
2143.801474	2395.250000
2145.447671	2402.350000
2147.090159	2378.100000
2148.735706	2392.800000
2150.377546	2387.550000
2152.022443	2414.150000
2153.663635	2372.450000
2155.304503	2401.300000
2156.945048	2387.600000
2158.583580	2368.500000
2160.223478	2381.750000
2161.859676	2378.400000
2163.497240	2368.250000
2165.134482	2368.000000
2166.769714	2332.800000
2168.404624	2385.050000
2170.039213	2344.600000
2171.673481	2357.250000
2173.304055	2357.350000
2174.937681	2374.800000
2176.567614	2353.750000
2178.198914	2335.950000
2179.828208	2350.700000
2181.457183	2344.400000
2183.085838	2321.350000
2184.714174	2330.600000
2186.340507	2340.750000
2187.966522	2320.800000
2189.590536	2309.900000
2191.215915	2335.900000
2192.839293	2324.400000
2194.464036	2328.200000
2196.085098	2327.700000
2197.705843	2325.650000
2199.327952	2309.900000
2200.948064	2303.400000
2202.566180	2281.750000
2204.183980	2286.350000
2205.801464	2279.850000
2207.418634	2315.100000
2209.035487	2266.650000
2210.652026	2316.050000
2212.266571	2289.550000
2213.879125	2288.150000
2215.493042	2296.650000
2217.104968	2309.200000
2218.718257	2295.950000
2220.329555	2285.050000
2221.938865	2288.300000
2223.549537	2284.400000
2225.158221	2306.450000
2226.766593	2266.000000
2228.372978	2277.650000
2229.980725	2303.550000
2231.586487	2285.050000
2233.191937	2288.600000
2234.795402	2292.350000
2236.400230	2296.750000
2238.003074	2296.050000
2239.603935	2288.100000
2241.206159	2283.000000
2242.806401	2322.300000
2244.408005	2304.150000
2246.005956	2321.950000
2247.605270	2310.000000
2249.202604	2299.950000
2250.799630	2262.250000
2252.398017	2285.800000
2253.992757	2298.450000
2255.585519	2313.250000
2257.179644	2256.550000
2258.775130	2300.100000
2260.366971	2267.750000
2261.958506	2276.650000
2263.551402	2280.400000
2265.138990	2280.550000
2266.731273	2252.500000
2268.318249	2275.400000
2269.908254	2280.150000
2271.492954	2255.850000
2273.082348	2247.200000
2274.666439	2268.400000
2276.251892	2251.300000
2277.835376	2263.800000
2279.421885	2230.400000
2281.004761	2233.200000
2282.587334	2195.950000
2284.169603	2202.250000
2285.748242	2233.750000
2287.329906	2220.350000
2288.907941	2221.650000
2290.488999	2206.150000
2292.066430	2195.425000
2293.641898	2184.700000
2295.220388	2203.450000
2296.795254	2219.450000
2298.369819	2169.450000
2299.944083	2205.750000
2301.518047	2189.700000
2303.091711	2190.150000
2304.665075	2168.250000
2306.234820	2192.200000
2307.804266	2175.250000
2309.376730	2193.600000
2310.943920	2159.400000
2312.514127	2178.650000
2314.080721	2160.150000
2315.648673	2179.950000
2317.214671	2163.400000
2318.780371	2164.300000
2320.345773	2189.400000
2321.909222	2162.950000
2323.474030	2185.250000
2325.035229	2209.550000
2326.599443	2186.500000
2328.158396	2196.000000
2329.720362	2197.650000
2331.280378	2204.400000
2332.840098	2163.300000
2334.397870	2175.650000
2335.955346	2173.600000
2337.512528	2187.650000
2339.067762	2180.650000
2340.622702	2176.150000
2342.177349	2160.550000
2343.731702	2170.300000
2345.285761	2170.250000
2346.839527	2204.950000
2348.391348	2188.700000
2349.941226	2170.100000
2351.494113	2194.800000
2353.041756	2195.100000
2354.592407	2145.000000
2356.139468	2163.600000
2357.687886	2168.600000
2359.236013	2178.400000
2360.780551	2175.100000
2362.326447	2170.000000
2363.870404	2161.850000
2365.415719	2163.350000
2366.957449	2174.650000
2368.500537	2173.150000
2370.041688	2175.550000
2371.582550	2149.500000
2373.123123	2197.850000
2374.663407	2158.400000
2376.203402	2127.550000
2377.739818	2134.900000
2379.279236	2141.850000
2380.815077	2185.650000
2382.352275	2120.450000
2383.885897	2156.300000
2385.422519	2120.300000
2386.957211	2140.650000
2388.489972	2147.550000
2390.022448	2127.550000
2391.552995	2119.550000
2393.086540	2153.050000
2394.614874	2122.950000
2396.144564	2118.550000
2397.673969	2174.900000
2399.203089	2144.400000
2400.731923	2125.600000
2402.255553	2141.150000
2403.783818	2136.650000
2405.306880	2135.300000
2406.834577	2119.450000
2408.355434	2137.400000
2409.880923	2102.200000
2411.402853	2127.200000
2412.926137	2152.200000
2414.447501	2161.250000
2415.966945	2115.000000
2417.487744	2146.500000
2419.006624	2100.600000
2420.525223	2107.450000
2422.041903	2081.600000
2423.559939	2113.600000
2425.077693	2112.950000
2426.591895	2111.550000
2428.105818	2106.850000
2429.619460	2112.850000
2431.134456	2115.600000
2432.645905	2093.000000
2434.158707	2092.200000
2435.669597	2115.800000
2437.180208	2076.300000
2438.688907	2091.150000
2440.200592	2085.950000
2441.708734	2092.300000
2443.216598	2075.250000
2444.724183	2059.200000
2446.228229	2102.650000
2447.735259	2085.000000
2449.240381	2078.950000
2450.745226	2067.150000
2452.248164	2060.800000
2453.750825	2067.900000
2455.253211	2054.250000
2456.753690	2029.850000
2458.255524	2022.350000
2459.755452	2027.600000
2461.255105	2014.500000
2462.754483	2021.350000
2464.251958	1992.400000
2465.747531	2035.400000
2467.246084	2011.100000
2468.741109	2000.050000
2470.237486	2003.850000
2471.730337	1995.500000
2473.224541	1999.300000
2474.718471	1994.850000
2476.208877	1971.650000
2477.702261	2032.200000
2479.193747	1956.700000
2480.683336	2007.700000
2482.172653	1984.500000
2483.660074	1987.550000
2485.150471	2005.850000
2486.637350	2004.300000
2488.125580	2011.150000
2489.610293	1998.500000
2491.094736	1986.100000
2492.580531	2007.100000
2494.064434	1981.900000
2495.549687	1999.250000
2497.029807	2010.850000
2498.512899	1994.750000
2499.994102	1976.600000
2501.475035	2013.500000
2502.954078	1987.500000
2504.432854	1995.150000
2505.911361	1982.000000
2507.389599	2015.550000
2508.867570	1996.200000
2510.342035	1996.250000
2511.819470	1991.100000
2513.293400	2029.800000
2514.768682	1988.250000
2516.243696	2000.400000
2517.715209	2000.500000
2519.188073	2025.850000
2520.659054	2001.750000
2522.131385	2005.500000
2523.598602	1987.050000
2525.068786	1999.400000
2526.537089	2005.350000
2528.005126	1999.100000
2529.472899	2012.500000
2530.940407	2004.300000
2532.407651	1997.400000
2533.871402	2003.900000
2535.336503	1988.300000
2536.799727	2003.800000
2538.264300	1998.250000
2539.725385	1996.000000
2541.187819	1987.400000
2542.649990	1983.400000
2544.108674	2011.400000
2545.571931	1992.350000
2547.030091	2007.750000
2548.489601	1983.650000
2549.944016	1975.350000
2551.403002	1996.550000
2552.860116	1976.100000
2554.315358	1983.450000
2555.770340	1956.650000
2557.223452	1981.600000
2558.677913	1981.100000
2560.130505	1975.400000
2561.582837	1954.050000
2563.033301	1982.100000
2564.486722	1986.050000
2565.935060	1962.550000
2567.386353	1980.650000
2568.835780	1957.150000
2570.281736	1950.500000
2571.730646	1958.950000
2573.176085	1952.050000
2574.622873	1974.700000
2576.067797	1924.550000
2577.512464	1950.500000
2578.958478	1922.100000
2580.401025	1938.800000
2581.844920	1921.250000
2583.285350	1953.750000
2584.727128	1914.300000
2586.167046	1933.750000
2587.608311	1885.950000
2589.046114	1913.450000
2590.486867	1922.100000
2591.922558	1923.900000
2593.361197	1924.400000
2594.797980	1912.450000
2596.232907	1911.800000
2597.670781	1918.750000
2599.103598	1910.700000
2600.537762	1914.250000
2601.970071	1901.100000
2603.403728	1904.950000
2604.835530	1876.750000
2606.267080	1891.150000
2607.698376	1904.650000
2609.127821	1898.900000
2610.557013	1897.250000
2611.984354	1890.300000
2613.413042	1873.700000
2614.841477	1901.500000
2616.266466	1886.950000
2617.692800	1878.850000
2619.117287	1885.350000
2620.543118	1873.700000
2621.965507	1878.400000
2623.389240	1881.900000
2624.811128	1868.700000
2626.232765	1889.600000
2627.652558	1844.950000
2629.073696	1875.500000
2630.494584	1849.100000
2631.912033	1857.900000
2633.332422	1870.900000
2634.749374	1855.700000
2636.166078	1860.350000
2637.582533	1857.200000
2638.998740	1836.050000
2640.414699	1857.100000
2641.828817	1850.050000
2643.242687	1830.700000
2644.654718	1862.650000
2646.068094	1827.200000
2647.478040	1835.600000
2648.890922	1819.900000
2650.300375	1817.300000
2651.709582	1837.400000
2653.116953	1830.400000
2654.527258	1844.300000
2655.935727	1827.650000
2657.342362	1852.550000
2658.748750	1829.400000
2660.153306	1850.850000
2661.559205	1809.250000
2662.963270	1845.000000
2664.367092	1845.750000
2665.770669	1835.550000
2667.172415	1841.700000
2668.575504	1833.550000
2669.975175	1821.000000
2671.376190	1835.900000
2672.773789	1843.900000
2674.174317	1837.600000
2675.571431	1839.200000
2676.969888	1821.600000
2678.366517	1833.750000
2679.762905	1805.200000
2681.159050	1809.150000
2682.553369	1814.450000
2683.949031	1816.750000
2685.341284	1832.350000
2686.734879	1792.900000
2688.126650	1811.000000
2689.519764	1809.250000
2690.911053	1798.950000
2692.300521	1795.850000
2693.689748	1782.250000
2695.078735	1794.050000
2696.469065	1785.350000
2697.854411	1794.750000
2699.242680	1786.750000
2700.629129	1770.000000
2702.015339	1782.750000
2703.401310	1768.900000
2704.783883	1809.350000
2706.167798	1760.650000
2707.551474	1757.750000
2708.934913	1767.100000
2710.314956	1753.950000
2711.696341	1763.000000
2713.075910	1771.350000
2714.456821	1758.700000
2715.835917	1767.450000
2717.213199	1745.100000
2718.591822	1765.600000
2719.968631	1740.750000
2721.345205	1745.100000
2722.721543	1746.800000
2724.096069	1786.150000
2725.471936	1758.450000
2726.844416	1766.050000
2728.219813	1751.750000
2729.590249	1740.150000
2730.962025	1717.600000
2732.333568	1742.450000
2733.703302	1739.700000
2735.074376	1755.100000
2736.443643	1732.350000
2737.812676	1753.300000
2739.179903	1742.200000
2740.546896	1748.150000
2741.913657	1727.800000
2743.280185	1706.900000
2744.644909	1750.800000
2746.009400	1754.000000
2747.373659	1722.900000
2748.737687	1725.550000
2750.101482	1727.550000
2751.461905	1749.350000
2752.825237	1718.350000
2754.183627	1740.550000
2755.544927	1733.500000
2756.902857	1704.300000
2758.263695	1714.250000
2759.622733	1710.650000
2760.978403	1710.000000
2762.336982	1696.550000
2763.692193	1695.200000
2765.047175	1696.250000
2766.400360	1678.950000
2767.756452	1714.150000
2769.109180	1689.750000
2770.461679	1688.350000
2771.813951	1698.450000
2773.167560	1687.650000
2774.517808	1689.200000
2775.866263	1692.250000
2777.217622	1652.950000
2778.565622	1667.100000
2779.914961	1658.600000
2781.262507	1663.500000
2782.609827	1659.550000
2783.956919	1661.350000
2785.302221	1649.200000
2786.647297	1663.400000
2787.992147	1636.650000
2789.336771	1642.300000
2790.678043	1642.250000
2792.020652	1635.750000
2793.363037	1631.100000
2794.705196	1652.200000
2796.044006	1634.850000
2797.385716	1657.700000
2798.724077	1609.550000
2800.063776	1634.450000
2801.401689	1652.950000
2802.737818	1656.750000
2804.073724	1636.600000
2805.410967	1640.850000
2806.746425	1640.850000
2808.081661	1656.450000
2809.415115	1624.100000
2810.749905	1644.800000
2812.081354	1620.600000
2813.415699	1646.300000
2814.745146	1635.350000
2816.075930	1625.000000
2817.406492	1629.250000
2818.735275	1622.750000
2820.065395	1613.300000
2821.393736	1637.050000
2822.721855	1627.350000
2824.048198	1610.900000
2825.375876	1627.850000
2826.700222	1628.850000
2828.025904	1615.200000
2829.349810	1602.050000
2830.673496	1622.200000
2831.998518	1629.150000
2833.320211	1607.400000
2834.641685	1608.050000
2835.962939	1580.050000
2837.283975	1597.700000
2838.603239	1592.200000
2839.923838	1613.900000
2841.242665	1598.100000
2842.561274	1568.250000
2843.878113	1578.600000
2845.194734	1595.350000
2846.511138	1563.300000
2847.825772	1567.850000
2849.141741	1579.950000
2850.454391	1562.450000
2851.768375	1554.750000
2853.082143	1591.550000
2854.395694	1567.150000
2855.707479	1559.750000
2857.017497	1564.550000
2858.328850	1571.950000
2859.636888	1563.500000
2860.946260	1556.500000
2862.255417	1553.200000
2863.564359	1585.900000
2864.871538	1563.650000
2866.176953	1568.850000
2867.483703	1550.800000
2868.788691	1581.200000
2870.093464	1566.150000
2871.396477	1585.500000
2872.702370	1559.750000
2874.003409	1589.400000
2875.305781	1547.300000
2876.606395	1594.500000
2877.908341	1568.550000
2879.210075	1570.500000
2880.508505	1564.850000
2881.808268	1578.650000
2883.106274	1560.950000
2884.404068	1566.550000
2885.700105	1542.050000
2886.997476	1573.050000
2888.293092	1550.000000
2889.588496	1555.700000
2890.883689	1565.900000
2892.175585	1530.450000
2893.470356	1543.300000
2894.761832	1551.400000
2896.054640	1548.250000
2897.347238	1532.900000
2898.636541	1550.350000
2899.927178	1522.550000
2901.216063	1529.200000
2902.506280	1519.900000
2903.793206	1515.150000
2905.081464	1516.000000
2906.367973	1519.200000
2907.654273	1502.650000
2908.940365	1503.600000
2910.224709	1537.950000
2911.511925	1526.200000
2912.794314	1520.650000
2914.078035	1535.750000
2915.360009	1518.550000
2916.641777	1498.300000
2917.921799	1513.300000
2919.204691	1507.300000
2920.485838	1502.600000
2921.763703	1511.050000
2923.044437	1486.550000
2924.321890	1482.350000
2925.599138	1501.850000
2926.874643	1504.100000
2928.153016	1476.050000
2929.426575	1467.950000
2930.703001	1488.800000
2931.977685	1489.750000
2933.250630	1497.850000
2934.524906	1504.750000
2935.797441	1507.750000
2937.069773	1466.050000
2938.338832	1487.200000
2939.610756	1451.600000
2940.880942	1484.500000
2942.150924	1454.450000
2943.420703	1477.800000
2944.688746	1475.000000
2945.955052	1490.800000
2947.221156	1486.300000
2948.488591	1477.850000
2949.754290	1462.200000
2951.019788	1465.900000
2952.285083	1465.200000
2953.547113	1465.950000
2954.810473	1461.000000
2956.073632	1470.550000
2957.335058	1465.850000
2958.597815	1475.550000
2959.858839	1473.150000
2961.118133	1460.850000
2962.377226	1477.400000
2963.636120	1455.850000
2964.894812	1464.150000
2966.153305	1462.100000
2967.410069	1446.300000
2968.666634	1467.800000
2969.921470	1423.000000
2971.177636	1454.950000
2972.430547	1479.250000
2973.684786	1466.000000
2974.938827	1450.350000
2976.191142	1439.900000
2977.443259	1461.350000
2978.693651	1454.350000
2979.946898	1449.800000
2981.195368	1458.800000
2982.446693	1419.950000
2983.694768	1448.800000
2984.942646	1426.750000
2986.190328	1410.200000
2987.437812	1428.350000
2988.683575	1431.650000
2989.929141	1432.300000
2991.176036	1425.250000
2992.419686	1420.150000
2993.664663	1425.150000
2994.906398	1436.400000
2996.150984	1409.400000
2997.393851	1423.250000
2998.633477	1427.200000
2999.875953	1421.000000
3001.115189	1419.450000
3002.355753	1408.950000
3003.594600	1398.600000
3004.833253	1435.800000
3006.070190	1406.150000
3007.308455	1409.450000
3008.545004	1415.900000
3009.781360	1401.550000
3011.017522	1403.450000
3012.251970	1394.700000
3013.486225	1406.100000
3014.720287	1438.200000
3015.952637	1430.050000
3017.183275	1432.850000
3018.416759	1396.450000
3019.648532	1399.250000
3020.878593	1382.500000
3022.108463	1397.400000
3023.336623	1378.100000
3024.566110	1377.350000
3025.793887	1414.450000
3027.021473	1392.250000
3028.250385	1389.650000
3029.474555	1396.900000
3030.701568	1392.550000
3031.925358	1392.000000
3033.150473	1377.950000
3034.373883	1370.400000
3035.597102	1409.950000
3036.818616	1371.550000
3038.042971	1368.350000
3039.262591	1381.950000
3040.483537	1388.700000
3041.704293	1359.800000
3042.923347	1360.400000
3044.143725	1369.100000
3045.360887	1387.900000
3046.579374	1355.250000
3047.796160	1378.400000
3049.012757	1375.500000
3050.229167	1351.400000
3051.442363	1343.200000
3052.658397	1362.800000
3053.871219	1355.900000
3055.086878	1366.050000
3056.297814	1347.800000
3057.510076	1359.050000
3058.722150	1357.700000
3059.934038	1364.200000
3061.144229	1362.200000
3062.354233	1354.500000
3063.564051	1322.850000
3064.772173	1363.900000
3065.980110	1336.550000
3067.186351	1363.900000
3068.393917	1343.800000
3069.599788	1355.075000
3070.805474	1366.350000
3072.010976	1353.150000
3073.214784	1345.300000
3074.419916	1338.550000
3075.623355	1328.750000
3076.825102	1333.900000
3078.026666	1341.850000
3079.228046	1348.450000
3080.429242	1338.250000
3081.628748	1328.200000
3082.828071	1332.450000
3084.028717	1337.500000
3085.227673	1326.800000
3086.423434	1332.050000
3087.622025	1311.800000
3088.817422	1338.650000
3090.014143	1335.200000
3091.207671	1309.750000
3092.404027	1314.700000
3093.598696	1309.800000
3094.790175	1316.950000
3095.985986	1306.900000
3097.177102	1312.000000
3098.369542	1287.800000
3099.558793	1311.550000
3100.750871	1294.950000
3101.941265	1309.950000
3103.128473	1305.150000
3104.317003	1303.650000
3105.506856	1285.450000
3106.693524	1306.200000
3107.880013	1288.700000
3109.066323	1302.250000
3110.253954	1286.900000
3111.438403	1302.350000
3112.621173	1315.350000
3113.806765	1288.950000
3114.990678	1296.500000
3116.172911	1273.200000
3117.354967	1270.400000
3118.536844	1279.500000
3119.718543	1291.650000
3120.898565	1266.550000
3122.076910	1279.750000
3123.258075	1265.850000
3124.436065	1270.800000
3125.613878	1273.000000
3126.791514	1283.100000
3127.967475	1252.000000
3129.143260	1275.050000
3130.320365	1277.450000
3131.495797	1255.050000
3132.669555	1251.800000
3133.841640	1276.800000
3135.015046	1264.350000
3136.188277	1271.950000
3137.359836	1243.800000
3138.532715	1288.350000
3139.702427	1251.000000
3140.873460	1261.200000
3142.042822	1266.400000
3143.210515	1266.200000
3144.381023	1265.250000
3145.546872	1267.000000
3146.717031	1266.400000
3147.882532	1242.200000
3149.047860	1250.450000
3150.213014	1261.100000
3151.377995	1264.400000
3152.544295	1252.100000
3153.705942	1250.550000
3154.868910	1230.000000
3156.031705	1250.200000
3157.194326	1239.600000
3158.355283	1221.600000
3159.516068	1209.900000
3160.676680	1227.750000
3161.835628	1222.500000
3162.994405	1206.050000
3164.153009	1227.450000
3165.311442	1188.200000
3166.469703	1237.250000
3167.626303	1222.300000
3168.781241	1213.250000
3169.937498	1175.000000
3171.092094	1211.050000
3172.246520	1222.650000
3173.399285	1197.200000
3174.551881	1223.100000
3175.704307	1212.150000
3176.856562	1206.850000
3178.008648	1209.300000
3179.157587	1200.900000
3180.309333	1215.150000
3181.459422	1208.150000
3182.607853	1216.000000
3183.756116	1215.950000
3184.904210	1217.750000
3186.052135	1216.600000
3187.198404	1219.050000
3188.344505	1211.800000
3189.488952	1215.350000
3190.633230	1220.850000
3191.777341	1238.250000
3192.922770	1199.400000
3194.065060	1201.100000
3195.207182	1213.000000
3196.349138	1215.900000
3197.490926	1204.450000
3198.632547	1207.350000
3199.771033	1192.900000
3200.910836	1198.550000
3202.051956	1190.100000
3203.189943	1196.150000
3204.326279	1182.900000
3205.462451	1207.650000
3206.599939	1194.800000
3207.735779	1191.750000
3208.872936	1191.650000
3210.005480	1202.650000
3211.142305	1187.050000
3212.274520	1202.250000
3213.408051	1189.300000
3214.541417	1162.700000
3215.671657	1192.750000
3216.804694	1173.400000
3217.934605	1165.600000
3219.065832	1162.900000
3220.193934	1150.400000
3221.324834	1180.250000
3222.454089	1151.300000
3223.581701	1154.500000
3224.706190	1164.550000
3225.834955	1150.350000
3226.960598	1142.000000
3228.086078	1163.800000
3229.209917	1153.300000
3230.336551	1156.200000
3231.458587	1174.000000
3232.581939	1148.200000
3233.705128	1154.150000
3234.828156	1162.900000
3235.949544	1151.550000
3237.070771	1156.850000
3238.190359	1138.700000
3239.309786	1139.500000
3240.427576	1153.250000
3241.548157	1158.050000
3242.665625	1163.750000
3243.782932	1145.700000
3244.900079	1157.650000
3246.015589	1172.300000
3247.132415	1139.950000
3248.246130	1164.050000
3249.362636	1160.550000
3250.477506	1157.800000
3251.589268	1155.650000
3252.700871	1159.800000
3253.813789	1149.100000
3254.926547	1147.950000
3256.036199	1143.550000
3257.147166	1136.550000
3258.257974	1142.500000
3259.367150	1148.050000
3260.474695	1140.900000
3261.583555	1139.950000
3262.692256	1139.950000
3263.797855	1144.100000
3264.904769	1140.650000
3266.010053	1134.600000
3267.116651	1152.300000
3268.220149	1142.300000
3269.324961	1129.250000
3270.429616	1136.200000
3271.531173	1130.400000
3272.632573	1147.650000
3273.735287	1131.900000
3274.837845	1123.600000
3275.937306	1146.450000
3277.039551	1141.900000
3278.138700	1121.150000
3279.236224	1147.750000
3280.333594	1155.100000
3281.433745	1130.800000
3282.530804	1140.900000
3283.627707	1112.850000
3284.724455	1105.400000
3285.816644	1144.100000
3286.913083	1106.050000
3288.007899	1119.550000
3289.102560	1110.550000
3290.195600	1091.800000
3291.288486	1124.250000
3292.379751	1113.700000
3293.472329	1105.600000
3294.563287	1120.050000
3295.652625	1116.150000
3296.741810	1106.750000
3297.832307	1100.950000
3298.919721	1110.450000
3300.006981	1095.950000
3301.095554	1117.450000
3302.183974	1097.700000
3303.267848	1111.550000
3304.355963	1103.850000
3305.440996	1095.000000
3306.524414	1092.200000
3307.609144	1080.800000
3308.692258	1082.550000
3309.776684	1100.550000
3310.858033	1106.850000
3311.940693	1109.800000
3313.021738	1086.100000
3314.102633	1104.700000
3315.181915	1088.850000
3316.261046	1090.100000
3317.341489	1094.750000
3318.418857	1082.550000
3319.497537	1102.000000
3320.574605	1112.000000
3321.651523	1101.950000
3322.726831	1114.150000
3323.801989	1085.450000
3324.878458	1107.450000
3325.951857	1081.400000
3327.025106	1094.350000
3328.099667	1062.850000
3329.172619	1077.650000
3330.243962	1097.800000
3331.316616	1078.600000
3332.386203	1062.800000
3333.457101	1071.100000
3334.526393	1049.500000
3335.596994	1061.000000
3336.665989	1066.700000
3337.733379	1073.900000
3338.799163	1070.400000
3339.869173	1077.350000
3340.936120	1059.700000
3342.000005	1060.750000
3343.066657	1067.550000
3344.131706	1049.400000
3345.195151	1042.550000
3346.258450	1045.700000
3347.321602	1050.200000
3348.384608	1051.250000
3349.447468	1039.000000
3350.508725	1066.550000
3351.566926	1037.650000
3352.629348	1045.600000
3353.688714	1044.800000
3354.747934	1047.900000
3355.808463	1050.300000
3356.864484	1060.050000
3357.923268	1042.550000
3358.977545	1038.350000
3360.034586	1039.950000
3361.090028	1054.050000
3362.146780	1034.550000
3363.201933	1040.200000
3364.255489	1035.450000
3365.307448	1058.600000
3366.362170	1054.250000
3367.413842	1037.650000
3368.465370	1040.450000
3369.518208	1043.500000
3370.567998	1044.650000
3371.619097	1056.750000
3372.667149	1037.550000
3373.717962	1051.100000
3374.765729	1039.950000
3375.813354	1047.450000
3376.860837	1040.100000
3377.906727	1049.800000
3378.953925	1028.750000
3379.998080	1051.200000
3381.044995	1045.200000
3382.090317	1039.100000
3383.132598	1026.650000
3384.174738	1038.050000
3385.218187	1015.350000
3386.261494	1031.100000
3387.303211	1021.550000
3388.344788	1023.000000
3389.386223	1019.500000
3390.426070	1033.250000
3391.464328	1011.500000
3392.503894	1020.500000
3393.543320	1030.250000
3394.581158	1034.150000
3395.617409	1012.400000
3396.653520	1022.500000
3397.690939	1021.850000
3398.725325	1027.850000
3399.761019	1027.350000
3400.796573	1020.800000
3401.829095	1011.750000
3402.864371	1017.150000
3403.896617	1027.550000
3404.928723	1017.200000
3405.959247	1017.900000
3406.991077	1025.600000
3408.022769	1004.600000
3409.051433	1029.200000
3410.079960	1028.650000
3411.109793	1006.200000
3412.139489	1009.050000
3413.166159	996.950000
3414.194135	1016.350000
3415.219087	1021.350000
3416.246790	999.650000
3417.271468	1026.900000
3418.297453	1003.050000
3419.321859	1016.500000
3420.346128	996.750000
3421.368818	1011.100000
3422.391372	994.500000
3423.415232	1013.000000
3424.436072	988.950000
3425.456776	1003.050000
3426.478786	985.100000
3427.497778	997.100000
3428.516635	997.900000
3429.536798	989.000000
3430.553944	986.550000
