-118.155753	-12.388462
-115.486152	-2.639560
-112.819487	4.434466
-110.153575	9.186414
-107.490594	11.969081
-104.826183	13.135265
-102.164703	13.037762
-99.501794	12.205594
-96.843992	12.323077
-94.184759	7.482517
-91.526275	8.762238
-88.870716	3.942657
-86.213728	5.960839
-83.561837	3.230769
-80.908517	2.239161
-78.258117	-0.083916
-75.606287	1.737063
-72.959548	3.247552
-70.311379	7.219580
-67.663954	10.264336
-65.019442	12.851748
-62.373501	14.721678
-59.732643	14.103497
-57.090354	10.418182
-54.450975	10.858741
-51.810167	6.317483
-49.170098	4.283916
-46.535103	3.271329
-43.898678	4.440559
-41.265157	3.521678
-38.630206	3.355245
-36.000322	6.239161
-33.366844	7.997203
-30.738429	4.751049
-28.110748	5.639161
-25.481639	3.784615
-22.857586	-1.373427
-20.229944	-29.696503
-17.607355	-89.082517
-14.985497	-79.183217
-12.364370	120.310490
-9.743974	462.027972
-7.126465	745.855944
-4.507528	941.268531
-1.891477	1049.304895
0.723846	1065.363636
3.338442	994.369231
5.950156	835.163636
8.563297	600.780420
11.171405	298.296503
13.783095	7.205594
16.389754	-137.342657
18.997841	-89.899301
21.605204	5.973427
24.207542	16.581818
26.813458	14.745455
29.414353	13.394406
32.016675	5.237762
34.613979	3.000000
37.214859	-0.209790
39.810725	1.843357
42.408018	-1.959441
45.004592	0.303497
47.596157	0.809790
50.189150	8.795804
52.779282	11.020979
55.370842	13.730070
57.959542	14.102098
60.549670	13.850350
63.134798	12.427972
65.721354	13.855944
68.307195	8.608392
70.890183	9.552448
73.474598	6.600000
76.051883	5.032168
78.632735	3.015385
81.210738	5.935664
83.788031	4.369231
86.366750	9.843357
88.940488	7.549650
91.515652	11.065734
94.087973	15.155245
96.659587	14.023776
99.228360	12.661538
101.798560	13.111888
104.365921	12.218182
106.934709	10.450350
109.500659	6.397203
112.063775	5.563636
114.630448	4.555245
117.187898	9.853147
119.751034	6.145455
122.309211	9.904895
124.870942	18.118881
127.427716	24.310490
129.985916	31.590210
132.539164	44.980420
135.091713	62.535664
137.647814	81.218182
140.198966	102.454545
142.749420	124.900699
145.299178	145.903497
147.846116	163.647552
150.392358	173.472727
152.940027	185.279720
155.486999	191.130070
158.029035	190.748252
160.570378	185.348252
163.111029	182.616783
165.653104	175.404196
168.192369	171.415385
170.728824	169.099301
173.264589	165.665734
175.801779	167.243357
178.338277	170.054545
180.871971	172.309091
183.402860	172.517483
185.933061	168.288112
188.464687	168.587413
190.993513	162.335664
193.519539	162.346853
196.044879	160.401399
198.571644	164.913287
201.095613	164.032168
203.618896	164.711888
206.141495	167.834965
208.661301	168.813986
211.180424	171.800000
213.698864	168.433566
216.218728	166.425175
218.731591	169.316084
221.247985	166.019580
223.763698	170.260140
226.274520	173.348252
228.786767	176.370629
231.296231	175.292308
233.805017	177.394406
236.313125	176.317483
238.822657	176.188811
241.327308	179.219580
243.831283	176.186014
246.336682	171.648951
248.837206	172.520280
251.341253	171.639161
253.838330	173.201399
256.338929	174.531469
258.836757	174.738462
261.333912	176.925874
263.830394	179.620979
266.322014	178.781818
268.817152	180.816783
271.309525	182.127273
273.801227	181.846154
276.290166	180.135664
278.780528	182.251748
281.268129	184.475524
283.752970	186.572028
286.241325	185.939860
288.722742	183.587413
291.207672	184.921678
293.687756	185.422378
296.171353	181.404196
298.650108	179.605594
301.130285	176.090909
303.607711	176.433566
306.084473	177.865734
308.560571	182.565035
311.033921	190.613986
313.506610	202.464336
315.978637	211.876923
318.450002	227.114685
320.918624	237.451748
323.386586	244.495105
325.855971	241.802797
328.320533	239.069930
330.788598	228.461538
333.251844	222.076923
335.714433	211.064336
338.176364	208.811189
340.637639	204.839161
343.096180	202.988811
345.556143	199.187413
348.013374	203.767832
350.469950	198.528671
352.925871	197.867133
355.379064	191.036364
357.833679	191.854545
360.283492	185.836364
362.736801	190.820979
365.185311	189.759441
367.633171	198.601399
370.082452	197.016783
372.526940	196.702098
374.972850	191.551049
377.418111	193.686713
379.860653	191.704895
382.302547	194.974825
384.743793	189.190210
387.182324	189.488112
389.622277	187.587413
392.059516	192.055944
394.494043	190.050350
396.932058	192.248951
399.365296	189.342657
401.799956	192.439161
404.229843	190.198601
406.663215	195.026573
409.091816	199.779021
411.519777	204.679720
413.949158	201.131469
416.373775	201.090909
418.799812	199.053147
421.225210	196.513287
423.649967	189.584615
426.069965	189.074126
428.491385	191.678322
430.910108	197.139860
433.330252	197.591608
435.747701	206.618182
438.166570	211.356643
440.582746	214.888112
442.994175	216.085315
445.409080	214.728671
447.821295	209.539860
450.232876	207.153846
452.643823	200.412587
455.052084	200.542657
457.459713	195.601399
459.866709	192.453147
462.273073	187.391608
464.676756	190.696503
467.079808	186.813986
469.482230	183.667133
471.884022	183.225175
474.283136	184.394406
476.683670	184.193007
479.083575	191.103497
481.478757	192.117483
483.877406	194.562238
486.271335	192.328671
488.664638	193.020979
491.057315	189.230769
493.449367	188.826573
495.842838	181.300699
498.231596	173.086713
500.617688	165.372028
503.005200	161.211189
505.392088	155.668531
507.776313	157.050350
510.161957	149.654545
512.544938	143.637762
514.925259	141.837762
517.306999	137.567832
519.686080	131.019580
522.066580	127.813986
524.444422	126.801399
526.819609	123.602797
529.194178	118.974825
531.570166	121.022378
533.943500	125.800000
536.318253	127.795804
538.688319	126.955245
541.057770	127.893706
543.428640	129.078322
545.794828	122.956643
548.162435	116.247552
550.527396	116.706294
552.891744	115.075524
555.255480	112.679720
557.620633	108.538462
559.981114	108.897902
562.343012	110.911888
564.702271	110.467133
567.058891	112.797203
569.418957	113.949650
571.772331	108.994406
574.129150	106.135664
576.483334	104.004196
578.836909	105.965035
581.189876	102.390210
583.540212	104.176224
585.891964	103.667133
588.237040	106.328671
590.587580	106.504895
592.931447	108.325874
595.280775	103.879720
597.625454	101.123077
599.967509	97.127273
602.310981	101.714685
604.651830	100.629371
606.992076	99.598601
609.329702	98.432168
611.670763	100.121678
614.007187	103.567832
616.345027	106.678322
618.680249	103.741259
621.012856	101.871329
623.346880	98.246154
625.678289	97.959441
628.009100	97.071329
630.339313	99.535664
632.668929	94.426573
634.993921	93.710490
637.324355	93.988811
639.650167	93.303497
641.973373	94.895105
644.297995	94.275524
646.620011	93.037762
648.941433	93.065734
651.260252	93.686713
653.580487	93.295105
655.900129	92.304895
658.217170	93.509091
660.533620	91.437762
662.847471	95.738462
665.162737	95.520280
667.475407	94.248951
669.789492	92.734266
672.098978	91.271329
674.409878	89.518881
676.718186	86.422378
679.025906	79.646154
681.335041	78.939860
683.639583	76.393007
685.943539	79.839161
688.246908	81.363636
690.551692	88.574825
692.851890	91.194406
695.153503	95.704895
697.454530	96.611189
699.750976	96.967832
702.048836	95.980420
704.346114	94.741259
706.642807	86.611189
708.934925	88.334266
711.230454	82.916084
713.521410	82.980420
715.813780	79.097902
718.103574	82.455944
720.392789	82.683916
722.681423	85.580420
724.967486	84.216783
727.254962	87.313287
729.539868	85.503497
731.824195	84.240559
734.105955	80.067133
736.389128	84.503497
738.671724	84.702098
740.949764	85.583217
743.229218	86.262937
745.508097	87.278322
747.786400	84.625175
750.060154	86.081119
752.335322	86.215385
754.609916	90.283916
756.881951	83.488112
759.155399	85.867133
761.426289	87.233566
763.694622	93.837762
765.964370	96.734266
768.231562	97.937063
770.498184	95.816783
772.764237	94.664336
775.027738	95.029371
777.292651	97.829371
779.556996	99.974825
781.816810	103.036364
784.078038	98.106294
786.338698	102.110490
788.596811	100.496503
790.852380	98.453147
793.111340	94.062937
795.363801	93.462937
797.621629	88.802797
799.874938	91.681119
802.125706	92.569231
804.377887	92.953846
806.627530	90.890909
808.878584	92.600000
811.125127	85.829371
813.373083	84.970629
815.618503	84.395804
817.865336	83.987413
820.111606	86.615385
822.353373	90.181818
824.598522	87.057343
826.837199	93.394406
829.079259	91.879720
831.316820	94.669930
833.555792	93.120280
835.792238	93.279720
838.030096	87.917483
840.265428	87.686713
842.498236	88.566434
844.732456	88.538462
846.964154	86.334266
849.195297	85.400000
851.425885	81.580420
853.655919	85.325874
855.885398	84.875524
858.110397	87.678322
860.338769	84.896503
862.562663	83.173427
864.787967	83.176224
867.008796	81.632168
869.232997	80.309091
871.452725	83.606993
873.673864	83.381818
875.894452	87.472727
878.112531	88.303497
880.332019	90.756643
882.547041	89.509091
884.761515	88.552448
886.975442	87.055944
889.188821	87.430769
891.401654	87.844755
893.613939	88.053147
895.823723	88.511888
898.032961	92.981818
900.241653	95.060140
902.447847	96.504895
904.655450	93.317483
906.860556	91.890909
909.065118	85.144056
911.267185	82.868531
913.470661	80.772028
915.671643	82.500699
917.872083	82.331469
920.073932	83.633566
922.269390	80.506294
924.468206	83.474126
926.662585	87.777622
928.860321	86.619580
931.053621	84.241958
933.248329	86.086713
935.440552	86.300699
937.632237	89.980420
939.823384	91.495105
942.012048	97.811189
944.200175	94.318881
946.385822	98.006993
948.574821	97.030769
950.759397	100.549650
952.943438	101.716084
955.130829	100.190210
957.309917	99.854545
959.492354	104.172028
961.674258	102.896503
963.853688	102.481119
966.030645	101.358042
968.209010	101.079720
970.388781	98.174825
972.562204	105.704895
974.738973	108.805594
976.911336	114.490909
979.085106	120.934266
981.254472	125.439161
983.427182	125.847552
985.597426	127.033566
987.767142	121.823776
989.936329	119.186014
992.101119	114.074126
994.269251	111.099301
996.432987	112.295105
998.598131	115.425175
1000.760815	117.100699
1002.922974	123.069930
1005.082675	124.752448
1007.241853	126.083916
1009.402437	128.416783
1011.560566	128.095105
1013.718171	127.928671
1015.875253	125.713287
1018.031812	125.183217
1020.183991	129.454545
1022.337577	129.654545
1024.490640	131.709091
1026.641256	129.429371
1028.793277	132.949650
1030.940925	132.930070
1033.091905	136.281119
1035.238515	136.847552
1037.384605	133.875524
1039.530177	130.085315
1041.677153	131.538462
1043.817842	134.167832
1045.961859	140.383217
1048.103437	140.081119
1050.244497	139.812587
1052.386962	138.749650
1054.523148	141.786014
1056.662660	143.751049
1058.797816	146.234965
1060.936297	143.342657
1063.070425	142.443357
1065.204039	138.062937
1067.339057	142.804196
1069.469726	143.279720
1071.601801	144.587413
1073.731445	135.861538
1075.860578	129.960839
1077.989200	126.766434
1080.117310	123.688112
1082.242994	123.239161
1084.368168	124.293706
1086.494745	120.932867
1088.616986	120.752448
1090.740631	119.451748
1092.859941	121.011189
1094.984480	121.173427
1097.102775	118.321678
1099.222473	114.474126
1101.339753	114.667133
1103.456527	119.332867
1105.572794	118.931469
1107.686646	121.759441
1109.801901	121.643357
1111.912834	120.492308
1114.027078	118.574825
1116.137003	117.841958
1118.248330	112.012587
1120.359154	107.934266
1122.465661	107.304895
1124.575477	107.565035
1126.680979	112.265734
1128.787885	114.001399
1130.888574	111.795804
1132.994476	112.633566
1135.096069	113.485315
1137.199065	112.672727
1139.301560	112.206993
1141.397849	113.532867
1143.499344	109.700699
1145.596537	107.813986
1147.693231	111.742657
1149.789428	111.351049
1151.885126	112.907692
1153.980327	106.844755
1156.073131	108.903497
1158.167337	108.286713
1160.255352	108.904895
1162.348565	105.738462
1164.435590	105.274126
1166.525915	106.490909
1168.611951	106.651748
1170.701285	104.608392
1172.784438	104.650350
1174.868994	106.916084
1176.954950	106.379021
1179.036625	109.695105
1181.119702	114.678322
1183.200393	113.686713
1185.280593	116.320280
1187.360301	115.869930
1189.439518	114.328671
1191.516352	114.383217
1193.590806	113.916084
1195.668552	106.546853
1197.742027	107.560839
1199.816904	108.963636
1201.887513	105.790210
1203.959523	107.928671
1206.029157	106.082517
1208.100192	102.447552
1210.170739	107.980420
1212.237025	107.758042
1214.304712	108.065734
1216.370027	111.534266
1218.436742	112.081119
1220.499201	111.854545
1222.564946	119.703497
1224.626436	120.120280
1226.689326	122.813986
1228.749849	120.612587
1230.809889	122.281119
1232.869445	117.805594
1234.926637	119.730070
1236.983346	116.802797
1239.037693	116.068531
1241.095320	112.485315
1243.150585	112.660140
1245.201609	109.681119
1247.254033	113.271329
1249.305978	116.030769
1251.355564	119.406993
1253.404671	118.647552
1255.453299	124.390210
1257.501449	119.928671
1259.549121	122.983217
1261.592562	118.836364
1263.639278	119.181818
1265.683642	113.032168
1267.727528	115.276923
1269.769064	111.786014
1271.808250	117.314685
1273.850708	117.883916
1275.888945	118.717483
1277.928579	122.360839
1279.967739	129.959441
1282.002681	129.927273
1284.039021	134.721678
1286.073016	134.795804
1288.108410	140.967832
1290.139590	140.769231
1292.172169	144.696503
1294.204275	149.341259
1296.234041	150.931469
1298.265205	152.144056
1300.292161	158.546853
1302.320515	162.794406
1304.344665	169.549650
1306.372080	172.716084
1308.395292	176.895105
1310.419902	180.897902
1312.442177	185.427972
1314.465850	187.302098
1316.487190	194.142657
1318.508063	202.202797
1320.528468	210.813986
1322.544679	223.593007
1324.562289	232.453147
1326.577570	238.481119
1328.596110	248.758042
1330.610460	259.285315
1332.622485	262.344056
1334.637768	262.907692
1336.648865	265.727273
1338.661358	263.250350
1340.669669	263.902098
1342.681236	263.641958
1344.686764	264.679720
1346.695546	259.363636
1348.700152	250.448951
1350.708011	243.806993
1352.715407	237.636364
1354.716773	229.402797
1356.719536	217.447552
1358.721839	209.530070
1360.723681	205.303497
1362.725065	194.289510
1364.724134	189.201399
1366.722745	181.110490
1368.720898	173.139860
1370.718593	163.394406
1372.712124	154.907692
1374.707052	149.532867
1376.701523	144.184615
1378.695537	137.697902
1380.687244	134.906294
1382.678495	130.261538
1384.667441	131.727273
1386.657782	130.718881
1388.647668	131.812587
1390.635251	128.688112
1392.622380	129.022378
1394.607207	123.542657
1396.593429	122.683916
1398.577350	123.811189
1400.560819	123.372028
1402.543836	122.521678
1404.524555	119.917483
1406.506668	121.433566
1408.486484	125.570629
1410.465850	127.461538
1412.441077	129.009790
1414.419542	125.995804
1416.395714	126.037762
1418.371436	120.931469
1420.346709	121.523077
1422.319691	119.602797
1424.292226	116.008392
1426.264312	112.137063
1428.235950	112.558042
1430.203461	114.910490
1432.176045	114.692308
1434.140823	113.865734
1436.110674	113.976224
1438.076400	108.461538
1440.043520	113.531469
1442.008356	116.040559
1443.969072	117.227972
1445.934856	112.591608
1447.894685	110.425175
1449.855907	104.837762
1451.818522	106.413986
1453.777022	102.311888
1455.735080	103.011189
1457.692695	97.707692
1459.649869	99.876923
1461.604767	96.006993
1463.561057	103.085315
1465.515073	104.279720
1467.468649	106.257343
1469.419952	105.124476
1471.372647	109.276923
1473.323071	104.682517
1475.273056	109.875524
1477.222601	106.769231
1479.169878	111.689510
1481.114888	110.050350
1483.061290	116.149650
1485.007254	114.600000
1486.952780	119.731469
1488.896042	119.293706
1490.838867	120.331469
1492.779429	120.204196
1494.721382	121.383217
1496.661074	116.321678
1498.600330	116.951049
1500.539152	111.703497
1502.475714	115.153846
1504.413666	110.653147
1506.349361	115.693706
1508.284622	120.093706
1510.217626	123.970629
1512.150198	123.422378
1514.082338	125.276923
1516.014046	127.061538
1517.943501	129.878322
1519.874345	131.448951
1521.804759	132.229371
1523.731100	131.418182
1525.658831	137.531469
1527.584312	133.401399
1529.509364	137.241958
1531.433987	137.447552
1533.358181	136.223776
1535.280128	134.558042
1537.203464	134.883916
1539.124555	133.404196
1541.043401	139.213986
1542.963637	144.839161
1544.881629	149.025175
1546.799195	154.503497
1548.714519	165.464336
1550.631233	169.055944
1552.543892	178.718881
1554.459755	183.593007
1556.373379	191.474126
1558.284764	198.879720
1560.197538	203.420979
1562.106263	206.027972
1564.016378	214.462937
1565.926069	217.379021
1567.835336	220.351049
1569.742370	224.074126
1571.647171	231.303497
1573.553361	232.530070
1575.457319	232.970629
1577.360857	228.363636
1579.263973	223.053147
1581.164861	218.446154
1583.067137	211.867133
1584.967184	204.186014
1586.868620	199.724476
1588.766021	190.074126
1590.663005	187.310490
1592.559570	186.994406
1594.457522	187.051748
1596.349640	181.545455
1598.244952	180.997203
1600.139845	174.805594
1602.032517	169.234965
1603.924773	165.386014
1605.814809	163.023776
1607.704429	157.142657
1609.593634	152.779021
1611.482423	147.911888
1613.368996	148.397203
1615.256955	145.646154
1617.140899	142.681119
1619.026229	138.169231
1620.911146	138.634965
1622.793849	132.981818
1624.677938	127.246154
1626.558017	125.539860
1628.439482	121.236364
1630.318737	112.910490
1632.199378	110.481119
1634.074215	104.180420
1635.954034	101.064336
1637.829847	99.360839
1639.705251	99.723077
1641.582040	97.464336
1643.453032	96.685315
1645.327206	92.991608
1647.197382	89.605594
1649.070738	91.867133
1650.941891	89.446154
1652.810842	87.331469
1654.681179	87.802797
1656.547522	84.241958
1658.415252	89.630769
1660.280782	90.895105
1662.147697	90.102098
1664.010624	89.658741
1665.874936	87.107692
1667.737053	86.279720
1669.598764	84.911888
1671.461860	83.707692
1673.322762	84.337063
1675.181470	83.482517
1677.039775	82.584615
1678.899465	80.455944
1680.753388	85.693706
1682.610483	81.836364
1684.467176	82.314685
1686.319893	86.934266
1688.175781	88.152448
1690.027695	91.793007
1691.879208	93.990210
1693.730320	91.872727
1695.581031	93.009790
1697.431342	89.434965
1699.279469	88.000000
1701.128979	89.443357
1702.972741	93.910490
1704.821453	89.058741
1706.664418	87.328671
1708.510549	87.742657
1710.352719	88.148252
1712.198053	88.413986
1714.037647	89.688112
1715.878625	84.180420
1717.720986	83.984615
1719.559391	81.848951
1721.399179	83.537063
1723.236792	82.433566
1725.074009	81.909091
1726.909053	78.097902
1728.745480	76.872727
1730.579735	81.292308
1732.413596	82.552448
1734.247062	83.425175
1736.076582	83.130070
1737.909261	82.718881
1739.737996	83.772028
1741.569889	81.601399
1743.397839	81.751049
1745.225397	78.805594
1747.052564	82.218182
1748.879338	80.085315
1750.705722	80.485315
1752.528169	81.897902
1754.353770	84.812587
1756.175437	82.595804
1757.998486	85.850350
1759.819374	86.475524
1761.639872	83.320280
1763.461752	78.850350
1765.277932	78.479720
1767.097264	75.541259
1768.912669	77.681119
1770.731225	74.648951
1772.545855	79.170629
1774.360098	78.310490
1776.173955	81.946853
1777.987425	81.267133
1779.798741	90.069930
1781.611439	86.229371
1783.423750	87.840559
1785.232144	87.451748
1787.041919	91.525874
1788.847778	91.295105
1790.656784	94.342657
1792.461876	91.711888
1794.268348	91.219580
1796.074437	84.131469
1797.876616	81.622378
1799.681938	78.822378
1801.483352	80.358042
1803.286146	75.544056
1805.085035	81.103497
1806.885303	83.128671
1808.685191	88.304895
1810.482936	86.304895
1812.280301	84.938462
1814.077285	83.911888
1815.873889	82.869930
1817.668354	79.946853
1819.464199	79.600000
1821.254388	78.812587
1823.049474	81.765035
1824.838907	81.005594
1826.631478	84.275524
1828.421913	85.847552
1830.210213	87.685315
1832.001649	84.850350
1833.787440	84.841958
1835.574609	85.611189
1837.359647	86.464336
1839.147819	81.103497
1840.932105	81.765035
1842.714262	81.285315
1844.497797	78.739860
1846.279205	75.180420
1848.061990	73.890909
1849.840896	74.606993
1851.621180	72.072727
1853.399339	69.269930
1855.178875	69.569231
1856.956287	68.654545
1858.731575	72.605594
1860.508242	70.718881
1862.282786	72.472727
1864.058707	72.148252
1865.829009	71.457343
1867.602438	75.169231
1869.373747	78.827972
1871.144685	82.598601
1872.917000	84.146853
1874.683703	83.907692
1876.453530	86.204196
1878.219494	88.388811
1879.988582	89.667133
1881.753808	87.728671
1883.518666	82.218182
1885.284900	80.916084
1887.047276	78.941259
1888.809285	77.295105
1890.570927	75.672727
1892.332201	77.047552
1894.093109	79.247552
1895.853649	79.816783
1897.612080	81.830769
1899.370146	80.675524
1901.126104	78.472727
1902.883438	76.002797
1904.640406	72.416783
1906.395269	74.418182
1908.148026	73.544056
1909.900420	70.429371
1911.654190	72.295105
1913.405856	73.772028
1915.155419	77.099301
1916.906359	81.230769
1918.656935	80.302098
1920.403673	81.377622
1922.151786	83.700699
1923.897800	83.040559
1925.645190	84.292308
1927.390481	86.644755
1929.133675	84.479720
1930.878245	81.335664
1932.620718	80.064336
1934.362831	80.372028
1936.104585	80.966434
1937.845978	79.454545
1939.585278	74.369231
1941.324219	74.948252
1943.062801	75.560839
1944.799291	74.531469
1946.535424	76.124476
1948.272931	77.983217
1950.006617	79.850350
1951.741677	79.107692
1953.474648	79.695105
1955.207263	76.716084
1956.939521	76.248951
1958.671423	72.626573
1960.401239	72.041958
1962.128971	69.727273
1963.858077	70.458741
1965.586827	70.825175
1967.313494	78.233566
1969.039807	83.453147
1970.767493	88.216783
1972.489643	85.102098
1974.214895	87.841958
1975.936339	82.200000
1977.660883	82.183217
1979.383348	79.131469
1981.102009	77.979021
1982.823769	74.693706
1984.541727	74.772028
1986.261059	71.426573
1987.976590	74.318881
1989.696943	74.751049
1991.413496	77.565035
1993.126254	77.788811
1994.842107	79.002797
1996.555888	76.453147
1998.269318	78.827972
1999.980678	78.972028
2001.693411	78.262937
2003.402352	79.173427
2005.114387	77.731469
2006.820912	71.613986
2008.530530	70.871329
2010.238080	72.193007
2011.945283	73.247552
2013.650420	74.244755
2015.355210	74.619580
2017.061372	75.567832
2018.763752	79.362238
2020.467504	77.046154
2022.169193	78.834965
2023.870536	82.618182
2025.571534	83.636364
2027.270472	83.639161
2028.970781	83.732867
2030.667314	82.310490
2032.365219	84.355245
2034.061066	84.349650
2035.759998	84.541259
2037.453444	80.910490
2039.148261	81.384615
2040.842735	76.855944
2042.533441	77.240559
2044.227231	78.874126
2045.917254	81.275524
2047.608648	81.215385
2049.297989	80.467133
2050.988700	82.233566
2052.675649	84.446154
2054.362257	83.253147
2056.050236	84.955245
2057.734455	85.051748
2059.420044	86.920280
2061.105294	82.597203
2062.788496	80.341259
2064.473068	76.886713
2066.152176	77.844755
2067.836070	71.257343
2069.514504	70.416783
2071.196015	74.302098
2072.873774	74.197203
2074.551197	75.952448
2076.229989	79.689510
2077.906738	82.237762
2079.581446	84.724476
2081.257523	80.783217
2082.931560	76.237762
2084.605261	75.053147
2086.278627	72.770629
2087.949955	64.047552
2089.620948	65.471329
2091.291607	66.944056
2092.961932	72.016783
2094.631922	73.051748
2096.299877	76.400000
2097.967499	77.162238
2099.633087	81.328671
2101.300043	80.040559
2102.964966	81.555245
2104.629556	85.560839
2106.292115	82.165035
2107.956043	80.979021
2109.617939	85.446154
2111.279504	85.167832
2112.940739	85.904895
2114.599944	82.260140
2116.258820	82.911888
2117.917365	80.124476
2119.575581	80.875524
2121.230074	76.897902
2122.887631	78.530070
2124.544858	79.570629
2126.198365	80.144056
2127.853239	80.107692
2129.504394	82.131469
2131.158612	78.781818
2132.809112	78.127273
2134.460980	78.523077
2136.107439	77.267133
2137.758652	75.832168
2139.406153	76.549650
2141.055020	77.492308
2142.701868	78.932867
2144.348391	81.388811
2145.994588	82.853147
2147.637076	77.258741
2149.282623	80.853147
2150.924463	78.334266
2152.569360	78.737063
2154.210552	73.026573
2155.851420	71.977622
2157.491965	71.302098
2159.130497	72.539860
2160.770395	74.565035
2162.406593	77.139860
2164.044157	81.248951
2165.681399	79.285315
2167.316631	77.844755
2168.951541	80.791608
2170.586130	79.349650
2172.220398	79.036364
2173.850972	74.022378
2175.484597	74.457343
2177.114531	72.903497
2178.745830	76.653147
2180.375125	76.295105
2182.004099	78.686713
2183.632755	78.758042
2185.261091	78.300699
2186.887424	78.156643
2188.513439	81.453147
2190.137453	84.406993
2191.762832	85.886713
2193.386210	82.099301
2195.010953	83.932867
2196.632014	85.000000
2198.252760	85.832168
2199.874869	86.620979
2201.494981	87.061538
2203.113097	89.109091
2204.730897	92.516084
2206.348381	91.553846
2207.965550	92.878322
2209.582404	88.488112
2211.198943	87.065734
2212.813488	81.714685
2214.426042	80.591608
2216.039959	73.055944
2217.651884	71.984615
2219.265174	75.653147
2220.876472	75.479720
2222.485782	75.616783
2224.096454	79.668531
2225.705138	79.019580
2227.313510	76.751049
2228.919894	72.460140
2230.527642	74.611189
2232.133403	69.741259
2233.738853	70.448951
2235.342319	67.802797
2236.947147	72.461538
2238.549991	71.437762
2240.150852	70.932867
2241.753076	69.895105
2243.353317	70.793007
2244.954922	66.211189
2246.552873	67.240559
2248.152187	67.875524
2249.749521	70.372028
2251.346547	71.874126
2252.944934	78.809790
2254.539673	80.660140
2256.132436	78.398601
2257.726560	77.180420
2259.322046	78.963636
2260.913888	74.576224
2262.505423	72.518881
2264.098319	66.669930
2265.685906	73.219580
2267.278190	71.763636
2268.865166	71.711888
2270.455171	75.335664
2272.039871	79.707692
2273.629265	79.535664
2275.213356	80.525874
2276.798809	85.339860
2278.382293	85.937063
2279.968802	82.527273
2281.551678	85.678322
2283.134250	82.548951
2284.716520	84.420979
2286.295159	78.662238
2287.876822	75.759441
2289.454858	75.821678
2291.035916	75.606993
2292.613347	71.688811
2294.188815	73.593007
2295.767305	74.933566
2297.342170	74.046154
2298.916735	77.004895
2300.491000	82.542657
2302.064964	80.302797
2303.638628	82.216783
2305.211991	79.432168
2306.781736	78.075524
2308.351182	78.765035
2309.923647	76.474126
2311.490837	76.632168
2313.061044	78.734266
2314.627637	75.289510
2316.195590	76.965035
2317.761588	79.083916
2319.327288	80.514685
2320.892690	79.206993
2322.456139	86.896503
2324.020947	86.104895
2325.582146	87.103497
2327.146360	89.772028
2328.705313	92.486713
2330.267279	91.082517
2331.827295	87.923077
2333.387015	81.646154
2334.944786	82.027972
2336.502263	79.836364
2338.059444	83.714685
2339.614679	84.918881
2341.169619	85.699301
2342.724266	83.025175
2344.278619	84.160839
2345.832678	81.688112
2347.386444	76.766434
2348.938265	69.404196
2350.488143	68.335664
2352.041029	65.539860
2353.588673	68.668531
2355.139324	73.580420
2356.686385	78.643357
2358.234803	80.195804
2359.782929	80.920280
2361.327468	83.718881
2362.873364	84.502098
2364.417321	79.158042
2365.962636	77.211189
2367.504366	77.437762
2369.047454	79.924476
2370.588605	80.060140
2372.129467	84.062937
2373.670040	83.023776
2375.210324	83.605594
2376.750319	83.907692
2378.286735	84.570629
2379.826153	84.745455
2381.361994	82.552448
2382.899191	83.267133
2384.432814	85.386014
2385.969436	82.942657
2387.504127	86.772028
2389.036889	87.299301
2390.569365	85.405594
2392.099912	81.262937
2393.633457	82.041958
2395.161791	79.390210
2396.691481	78.342657
2398.220886	74.253147
2399.750006	70.616783
2401.278840	68.651748
2402.802470	69.851748
2404.330735	68.139860
2405.853797	70.278322
2407.381494	69.813986
2408.902350	69.324476
2410.427840	69.910490
2411.949770	73.619580
2413.473054	75.227972
2414.994418	78.706294
2416.513862	76.113287
2418.034661	77.927273
2419.553541	79.700699
2421.072139	83.367832
2422.588820	85.106294
2424.106856	81.973427
2425.624610	79.890909
2427.138812	79.620979
2428.652734	76.654545
2430.166377	76.567832
2431.681373	76.092308
2433.192821	76.160839
2434.705624	75.474126
2436.216514	75.816783
2437.727124	76.405594
2439.235823	80.759441
2440.747509	84.562238
2442.255651	85.355245
2443.763514	88.416783
2445.271100	91.022378
2446.775146	92.282517
2448.282176	93.176224
2449.787298	91.384615
2451.292143	90.469930
2452.795081	86.973427
2454.297742	81.190210
2455.800127	81.918881
2457.300607	83.786014
2458.802440	81.316084
2460.302369	83.932867
2461.802022	81.876923
2463.301400	82.092308
2464.798875	80.002797
2466.294448	78.921678
2467.793001	75.425175
2469.288026	68.997203
2470.784403	68.016783
2472.277254	67.514685
2473.771457	74.573427
2475.265387	77.836364
2476.755794	82.391608
2478.249178	86.804196
2479.740663	86.864336
2481.230252	89.500699
2482.719570	90.193007
2484.206991	89.488112
2485.697388	83.289510
2487.184266	78.040559
2488.672496	76.149650
2490.157210	76.502098
2491.641653	80.868531
2493.127448	82.293706
2494.611350	85.295105
2496.096604	83.593007
2497.576724	84.633566
2499.059816	84.160839
2500.541018	86.053147
2502.021951	80.630769
2503.500995	76.206993
2504.979771	78.142657
2506.458278	75.446154
2507.936516	76.658741
2509.414486	76.086713
2510.888952	76.949650
2512.366386	76.822378
2513.840317	73.509091
2515.315599	68.662937
2516.790613	67.653147
2518.262126	64.646154
2519.734990	62.890909
2521.205971	67.725874
2522.678301	72.890909
2524.145519	72.966434
2525.615703	78.902098
2527.084005	84.800000
2528.552043	86.833566
2530.019816	86.836364
2531.487324	82.823776
2532.954567	81.532867
2534.418319	82.198601
2535.883420	78.545455
2537.346644	81.331469
2538.811217	84.327273
2540.272301	83.086713
2541.734736	85.058741
2543.196907	88.082517
2544.655591	86.170629
2546.118848	84.006993
2547.577008	82.033566
2549.036517	80.942657
2550.490933	86.251748
2551.949919	87.509091
2553.407032	88.440559
2554.862275	91.503497
2556.317257	88.409790
2557.770369	87.058741
2559.224830	85.622378
2560.677422	84.186014
2562.129754	83.739860
2563.580218	84.555245
2565.033638	81.858741
2566.481976	82.422378
2567.933270	83.006993
2569.382697	81.001399
2570.828653	78.837762
2572.277563	76.969231
2573.723002	70.481119
2575.169790	69.693706
2576.614714	68.489510
2578.059381	73.381818
2579.505395	77.127273
2580.947942	81.994406
2582.391837	82.411189
2583.832267	85.411189
2585.274045	84.559441
2586.713963	86.278322
2588.155228	87.265734
2589.593031	87.958042
2591.033784	85.667133
2592.469474	85.742657
2593.908114	79.558042
2595.344897	84.432168
2596.779823	84.806993
2598.217698	86.067133
2599.650515	83.753846
2601.084679	87.861538
2602.516988	85.572028
2603.950644	89.360839
2605.382447	92.124476
2606.813997	95.944056
2608.245293	97.353846
2609.674738	99.289510
2611.103930	94.606993
2612.531271	96.318881
2613.959959	94.647552
2615.388394	92.244755
2616.813383	91.671329
2618.239717	93.998601
2619.664203	90.158042
2621.090035	96.139860
2622.512423	97.006993
2623.936157	99.212587
2625.358045	99.730070
2626.779682	99.360839
2628.199474	97.672727
2629.620612	96.752448
2631.041500	94.718881
2632.458950	93.558042
2633.879339	95.699301
2635.296291	98.641958
2636.712995	98.916084
2638.129450	104.142657
2639.545657	100.016783
2640.961615	101.033566
2642.375733	98.085315
2643.789604	100.276923
2645.201635	104.864336
2646.615011	105.335664
2648.024957	104.643357
2649.437839	109.913287
2650.847292	110.580420
2652.256499	112.717483
2653.663870	108.615385
2655.074175	107.913287
2656.482644	104.397203
2657.889278	105.226573
2659.295667	103.387413
2660.700222	105.942657
2662.106121	107.272727
2663.510187	109.183217
2664.914009	110.212587
2666.317586	113.855944
2667.719331	111.370629
2669.122420	112.862937
2670.522092	110.632168
2671.923107	114.165035
2673.320705	116.839161
2674.721234	120.251748
2676.118348	116.352448
2677.516805	115.871329
2678.913434	111.103497
2680.309822	111.723077
2681.705967	107.481119
2683.100286	108.930070
2684.495948	105.243357
2685.888200	106.555245
2687.281796	105.577622
2688.673567	105.195804
2690.066680	104.695105
2691.457970	104.247552
2692.847437	104.206993
2694.236665	102.332867
2695.625652	102.618182
2697.015982	107.318881
2698.401327	109.744056
2699.789597	114.255944
2701.176046	109.986014
2702.562256	107.703497
2703.948227	103.152448
2705.330800	101.130070
2706.714714	98.062937
2708.098391	97.695105
2709.481830	94.573427
2710.861873	90.092308
2712.243258	93.535664
2713.622827	96.226573
2715.003738	97.412587
2716.382834	96.366434
2717.760115	93.504895
2719.138738	91.420979
2720.515548	89.730070
2721.892122	89.299301
2723.268460	86.752448
2724.642986	83.534266
2726.018853	78.064336
2727.391333	77.853147
2728.766730	77.130070
2730.137165	80.446154
2731.508942	78.173427
2732.880485	81.727273
2734.250219	83.138462
2735.621293	84.478322
2736.990560	82.307692
2738.359593	84.584615
2739.726819	85.897902
2741.093813	86.627972
2742.460574	90.521678
2743.827102	87.068531
2745.191826	82.820979
2746.556317	81.871329
2747.920576	74.558042
2749.284604	76.022378
2750.648399	73.474126
2752.008821	72.090909
2753.372154	71.693706
2754.730544	75.586014
2756.091844	80.265734
2757.449773	88.622378
2758.810612	91.756643
2760.169650	89.900699
2761.525320	85.661538
2762.883899	89.083916
2764.239110	86.816783
2765.594092	86.008392
2766.947277	81.200000
2768.303369	77.440559
2769.656097	73.848951
2771.008596	71.623776
2772.360867	74.654545
2773.714477	75.036364
2775.064725	70.885315
2776.413180	69.402797
2777.764539	65.633566
2779.112539	70.060140
2780.461878	72.991608
2781.809424	76.374825
2783.156743	79.720280
2784.503836	84.058741
2785.849138	79.258741
2787.194214	82.716084
2788.539064	81.864336
2789.883688	80.583217
2791.224959	74.847552
2792.567569	73.360839
2793.909954	69.602797
2795.252113	65.829371
2796.590923	68.917483
2797.932633	67.325874
2799.270994	68.289510
2800.610693	68.588811
2801.948606	63.316084
2803.284735	66.711888
2804.620641	63.853147
2805.957883	64.560839
2807.293342	64.229371
2808.628578	69.569231
2809.962032	71.861538
2811.296822	72.531469
2812.628271	75.502098
2813.962616	72.409790
2815.292063	71.953846
2816.622847	71.412587
2817.953409	68.450350
2819.282192	68.297902
2820.612312	66.200000
2821.940652	69.090909
2823.268772	71.054545
2824.595115	73.902098
2825.922793	74.344056
2827.247139	73.697902
2828.572820	72.075524
2829.896727	68.518881
2831.220413	69.555245
2832.545435	74.030769
2833.867128	71.760839
2835.188601	70.883916
2836.509856	73.672727
2837.830892	77.923077
2839.150156	74.320280
2840.470755	72.181818
2841.789582	67.162238
2843.108191	66.620979
2844.425030	65.619580
2845.741651	68.310490
2847.058054	76.388811
2848.372689	81.404196
2849.688658	78.780420
2851.001307	76.620979
2852.315292	75.801399
2853.629060	72.404196
2854.942611	69.794406
2856.254395	64.752448
2857.564414	65.033566
2858.875767	66.633566
2860.183804	66.020979
2861.493177	72.676923
2862.802334	77.746853
2864.111276	80.455944
2865.418455	74.857343
2866.723870	70.827972
2868.030620	69.650350
2869.335607	68.864336
2870.640381	67.044755
2871.943393	64.997203
2873.249287	68.420979
2874.550326	70.812587
2875.852698	71.696503
2877.153311	77.639161
2878.455258	78.759441
2879.756992	78.455944
2881.055422	73.237762
2882.355185	75.335664
2883.653191	78.495105
2884.950985	81.026573
2886.247022	79.220979
2887.544393	78.981818
2888.840008	74.727273
2890.135413	78.191608
2891.430606	76.524476
2892.722501	77.036364
2894.017273	75.090909
2895.308749	75.587413
2896.601557	69.707692
2897.894155	71.366434
2899.183458	69.748252
2900.474094	71.002797
2901.762980	69.023776
2903.053197	64.525874
2904.340123	60.806993
2905.628381	64.457343
2906.914890	65.271329
2908.201190	69.148252
2909.487282	71.018182
2910.771626	74.195804
2912.058842	67.847552
2913.341231	73.416783
2914.624952	71.517483
2915.906926	72.027972
2917.188694	73.013986
2918.468716	72.497902
2919.751608	69.700699
2921.032755	75.229371
2922.310620	77.418182
2923.591354	77.085315
2924.868807	72.756643
2926.146055	71.304895
2927.421560	66.662937
2928.699933	69.728671
2929.973491	68.732867
2931.249917	69.737063
2932.524602	72.169231
2933.797547	73.643357
2935.071822	74.187413
2936.344358	75.725874
2937.616690	71.717483
2938.885749	70.200000
2940.157673	66.079720
2941.427859	65.232168
2942.697841	63.295105
2943.967620	65.562238
2945.235662	67.257343
2946.501969	65.816783
2947.768073	69.332867
2949.035508	69.728671
2950.301207	67.979021
2951.566704	62.128671
2952.831999	60.317483
2954.094030	59.920280
2955.357390	59.307692
2956.620549	60.711888
2957.881975	62.956643
2959.144731	64.813986
2960.405756	64.304895
2961.665050	64.415385
2962.924143	68.034965
2964.183036	71.276923
2965.441729	68.679720
2966.700222	66.530070
2967.956986	64.531469
2969.213551	64.597203
2970.468387	66.013986
2971.724553	66.833566
2972.977463	68.888112
2974.231703	67.841958
2975.485744	66.966434
2976.738059	65.758042
2977.990176	69.251748
2979.240568	70.930070
2980.493815	63.627972
2981.742285	61.012587
2982.993609	57.717483
2984.241685	56.226573
2985.489563	55.051748
2986.737244	52.779021
2987.984729	54.229371
2989.230492	61.383217
2990.476058	63.916084
2991.722953	68.818182
2992.966602	75.700699
2994.211580	80.215385
2995.453315	79.765035
2996.697901	82.351049
2997.940768	79.991608
2999.180393	77.297902
3000.422870	70.062937
3001.662106	63.696503
3002.902670	62.903497
3004.141517	66.142657
3005.380170	59.593007
3006.617107	58.674126
3007.855371	57.983217
3009.091921	58.339860
3010.328277	53.555245
3011.564439	53.323077
3012.798887	52.711888
3014.033142	52.994406
3015.267204	49.218182
3016.499554	49.973427
3017.730192	52.123077
3018.963676	56.921678
3020.195449	55.544056
3021.425510	60.855944
3022.655380	63.387413
3023.883540	63.044755
3025.113027	63.386014
3026.340804	66.990210
3027.568390	67.274126
3028.797302	68.267133
3030.021472	64.116084
3031.248485	62.202797
3032.472275	61.609790
3033.697390	60.176224
3034.920799	59.223776
3036.144019	63.018182
3037.365533	61.405594
3038.589888	62.990210
3039.809508	63.528671
3041.030454	66.731469
3042.251210	67.762238
3043.470263	71.118881
3044.690642	70.179021
3045.907804	70.248951
3047.126291	70.360839
3048.343077	68.587413
3049.559674	65.337063
3050.776084	63.234965
3051.989280	56.220979
3053.205314	54.797203
3054.418136	50.737063
3055.633795	51.102098
3056.844731	50.531469
3058.056993	51.977622
3059.269067	53.030769
3060.480955	56.152448
3061.691145	58.258741
3062.901150	59.772727
3064.110968	60.324476
3065.319090	66.055245
3066.527026	61.904895
3067.733268	58.806294
3068.940834	55.394406
3070.146705	58.953147
3071.352391	57.896503
3072.557893	58.571329
3073.761701	55.332867
3074.966833	60.719580
3076.170272	57.548252
3077.372019	60.555944
3078.573583	64.194406
3079.774963	67.502098
3080.976159	61.075524
3082.175665	58.987413
3083.374987	59.352448
3084.575633	65.439161
3085.774590	61.977622
3086.970351	62.415385
3088.168942	58.430769
3089.364339	60.601399
3090.561060	53.351049
3091.754588	54.783217
3092.950944	55.295105
3094.145613	54.794406
3095.337092	51.156643
3096.532902	57.137063
3097.724019	58.116084
3098.916459	58.015385
3100.105710	57.763636
3101.297788	60.584615
3102.488182	60.248951
3103.675389	63.253147
3104.863920	58.864336
3106.053773	58.776224
3107.240441	58.527273
3108.426930	57.427972
3109.613239	55.415385
3110.800871	59.742657
3111.985320	54.155245
3113.168089	53.619580
3114.353682	52.156643
3115.537594	53.672727
3116.719828	52.707692
3117.901884	58.758042
3119.083761	59.131469
3120.265460	61.558042
3121.445482	61.941259
3122.623826	62.026573
3123.804992	61.619580
3124.982982	63.695105
3126.160795	61.690909
3127.338431	63.142657
3128.514392	59.544056
3129.690177	61.123077
3130.867282	57.962238
3132.042714	63.556643
3133.216472	63.172028
3134.388557	61.844755
3135.561963	62.425175
3136.735194	66.118881
3137.906752	66.586014
3139.079632	71.264336
3140.249344	70.854545
3141.420377	72.337063
3142.589739	72.949650
3143.757432	70.637762
3144.927940	66.464336
3146.093789	61.046154
3147.263948	57.181818
3148.429449	61.037762
3149.594777	61.942657
3150.759931	62.979021
3151.924912	59.489510
3153.091212	61.193007
3154.252859	58.846154
3155.415827	63.373427
3156.578621	58.776224
3157.741243	56.079720
3158.902200	53.127273
3160.062984	53.600000
3161.223597	57.272727
3162.382545	62.605594
3163.541321	60.345455
3164.699926	60.897902
3165.858359	61.674126
3167.016620	61.809790
3168.173219	62.215385
3169.328157	63.111888
3170.484414	54.598601
3171.639011	57.433566
3172.793436	54.744056
3173.946202	55.583217
3175.098798	54.433566
3176.251224	57.156643
3177.403479	56.548252
3178.555565	59.630769
3179.704504	61.191608
3180.856250	59.909091
3182.006339	58.826573
3183.154770	56.811189
3184.303033	55.923077
3185.451127	59.450350
3186.599052	57.205594
3187.745321	57.514685
3188.891422	60.234965
3190.035869	64.257343
3191.180147	64.532867
3192.324258	65.925874
3193.469687	62.860140
3194.611977	60.794406
3195.754099	57.495105
3196.896055	54.037762
3198.037843	52.478322
3199.179464	53.826573
3200.317949	52.998601
3201.457753	52.429371
3202.598873	55.967832
3203.736859	60.296503
3204.873196	61.216783
3206.009367	62.767832
3207.146856	62.000000
3208.282696	64.746853
3209.419852	65.629371
3210.552397	63.969231
3211.689222	63.707692
3212.821436	67.356643
3213.954968	65.174825
3215.088334	65.300699
3216.218573	64.219580
3217.351611	61.629371
3218.481521	54.402797
3219.612749	51.618182
3220.740851	48.211189
3221.871751	45.697902
3223.001006	44.043357
3224.128617	46.124476
3225.253107	45.379021
3226.381872	49.741259
3227.507515	49.664336
3228.632995	55.700699
3229.756834	53.051748
3230.883468	54.000000
3232.005503	52.261538
3233.128855	52.539860
3234.252045	54.244755
3235.375073	54.131469
3236.496461	55.406993
3237.617688	61.676923
3238.737276	56.899301
3239.856703	61.030769
3240.974493	62.497902
3242.095074	66.605594
3243.212542	62.412587
3244.329849	61.230769
3245.446995	57.195804
3246.562506	53.046154
3247.679332	52.583217
3248.793047	50.953846
3249.909553	48.068531
3251.024423	52.372028
3252.136185	51.219580
3253.247788	56.078322
3254.360706	56.475524
3255.473464	56.794406
3256.583116	52.702098
3257.694083	51.023776
3258.804891	48.181818
3259.914067	45.439161
3261.021612	48.406993
3262.130472	49.655944
3263.239173	48.995804
3264.344772	49.769231
3265.451686	47.504895
3266.556970	48.993007
3267.663568	48.697902
3268.767066	50.662937
3269.871878	48.432168
3270.976533	54.773427
3272.078090	56.858741
3273.179490	63.620979
3274.282204	69.085315
3275.384761	67.864336
3276.484223	63.151049
3277.586467	57.330070
3278.685617	51.000000
3279.783141	49.390210
3280.880510	48.381818
3281.980662	47.530070
3283.077720	43.411189
3284.174624	48.046154
3285.271372	52.268531
3286.363561	58.693706
3287.460000	56.788811
3288.554816	55.748252
3289.649477	57.372028
3290.742517	57.057343
3291.835403	50.751049
3292.926668	49.292308
3294.019246	51.960839
3295.110204	53.815385
3296.199542	48.331469
3297.288727	49.474126
3298.379224	53.429371
3299.466637	53.165035
3300.553898	49.979021
3301.642471	49.606993
3302.730891	48.395804
3303.814764	42.538462
3304.902879	35.925874
3305.987913	36.068531
3307.071331	36.962238
3308.156061	42.690909
3309.239175	42.373427
3310.323601	49.704895
3311.404949	51.432168
3312.487609	52.506294
3313.568655	50.615385
3314.649550	51.860140
3315.728832	48.517483
3316.807963	46.247552
3317.888406	46.180420
3318.965774	48.398601
3320.044454	47.440559
3321.121522	54.539860
3322.198440	54.966434
3323.273748	57.765035
3324.348906	53.924476
3325.425375	56.787413
3326.498773	53.693706
3327.572023	54.215385
3328.646584	47.567832
3329.719535	47.661538
3330.790879	48.100699
3331.863533	48.062937
3332.933120	43.581818
3334.004018	42.040559
3335.073309	40.625175
3336.143911	45.816783
3337.212906	44.061538
3338.280295	46.716084
3339.346079	48.655944
3340.416089	52.359441
3341.483036	50.875524
3342.546921	57.495105
3343.613574	59.054545
3344.678623	58.949650
3345.742068	53.495105
3346.805366	52.067133
3347.868519	51.355245
3348.931525	50.914685
3349.994384	44.299301
3351.055642	46.044755
3352.113843	46.952448
3353.176265	46.068531
3354.235630	41.869930
3355.294851	44.634965
3356.355380	43.695105
3357.411400	46.762238
3358.470185	47.215385
3359.524462	47.879720
3360.581503	45.496503
3361.636945	46.703497
3362.693696	45.967832
3363.748850	47.229371
3364.802406	46.253147
3365.854365	48.956643
3366.909086	43.560839
3367.960759	48.404196
3369.012287	51.195804
3370.065125	55.781818
3371.114915	59.567832
3372.166014	56.015385
3373.214066	55.013986
3374.264879	53.679720
3375.312646	49.034965
3376.360271	46.793007
3377.407754	46.117483
3378.453643	45.760839
3379.500842	39.051748
3380.544997	41.398601
3381.591911	40.425175
3382.637233	45.076923
3383.679515	52.226573
3384.721655	50.844755
3385.765104	51.689510
3386.808411	48.633566
3387.850128	46.149650
3388.891704	47.755245
3389.933140	47.200000
3390.972987	44.654545
3392.011245	43.588811
3393.050811	43.239161
3394.090237	43.069930
3395.128075	50.721678
3396.164326	49.739860
3397.200437	50.545455
3398.237856	50.413986
3399.272242	48.945455
3400.307936	46.316084
3401.343490	49.716084
3402.376012	44.674126
3403.411288	43.932867
3404.443533	40.640559
3405.475640	40.590210
3406.506163	42.728671
3407.537994	45.502098
3408.569686	43.892308
3409.598350	48.602797
3410.626877	48.483916
3411.656710	48.650350
3412.686406	47.381818
3413.713075	52.152448
3414.741052	51.753846
3415.766004	54.525874
3416.793706	52.864336
3417.818385	55.227972
3418.844370	52.337063
3419.868776	49.937063
3420.893044	46.781818
3421.915734	42.061538
3422.938289	38.018182
3423.962148	36.496503
3424.982989	34.502098
3426.003693	37.996004
3427.025703	42.379970
3428.044695	46.987213
3429.063552	51.150949
3430.083715	54.204396
3431.100860	55.480769
