-118.155753	-0.400000
-115.486152	-0.400000
-112.819487	-14.000000
-110.153575	-4.600000
-107.490594	2.600000
-104.826183	-0.400000
-102.164703	-1.200000
-99.501794	10.400000
-96.843992	-18.200000
-94.184759	16.200000
-91.526275	0.600000
-88.870716	20.800000
-86.213728	-2.200000
-83.561837	-0.800000
-80.908517	19.000000
-78.258117	13.600000
-75.606287	-15.400000
-72.959548	0.400000
-70.311379	-1.200000
-67.663954	2.600000
-65.019442	-1.000000
-62.373501	7.000000
-59.732643	19.400000
-57.090354	6.800000
-54.450975	23.600000
-51.810167	-3.200000
-49.170098	0.000000
-46.535103	-14.200000
-43.898678	-14.800000
-41.265157	16.400000
-38.630206	7.200000
-36.000322	4.000000
-33.366844	-22.800000
-30.738429	2.800000
-28.110748	3.800000
-25.481639	7.600000
-22.857586	24.800000
-20.229944	2.800000
-17.607355	10.400000
-14.985497	25.600000
-12.364370	10.600000
-9.743974	79.000000
-7.126465	214.000000
-4.507528	668.400000
-1.891477	1729.400000
0.723846	2207.200000
3.338442	1338.400000
5.950156	220.400000
8.563297	15.400000
11.171405	32.800000
13.783095	23.400000
16.389754	10.200000
18.997841	5.600000
21.605204	7.800000
24.207542	-13.400000
26.813458	22.600000
29.414353	8.000000
32.016675	9.000000
34.613979	3.000000
37.214859	6.400000
39.810725	-6.600000
42.408018	5.000000
45.004592	-11.600000
47.596157	30.800000
50.189150	-11.800000
52.779282	19.200000
55.370842	-15.000000
57.959542	5.400000
60.549670	11.000000
63.134798	4.400000
65.721354	-10.000000
68.307195	-2.600000
70.890183	4.000000
73.474598	-9.400000
76.051883	16.200000
78.632735	8.600000
81.210738	12.200000
83.788031	24.400000
86.366750	9.200000
88.940488	-9.000000
91.515652	23.800000
94.087973	8.200000
96.659587	7.400000
99.228360	24.200000
101.798560	-2.200000
104.365921	27.200000
106.934709	9.400000
109.500659	2.200000
112.063775	-19.600000
114.630448	5.400000
117.187898	31.600000
119.751034	1.600000
122.309211	2.800000
124.870942	3.000000
127.427716	0.600000
129.985916	8.400000
132.539164	41.400000
135.091713	48.400000
137.647814	108.600000
140.198966	74.800000
142.749420	119.600000
145.299178	139.800000
147.846116	156.400000
150.392358	190.800000
152.940027	169.800000
155.486999	176.200000
158.029035	180.200000
160.570378	169.600000
163.111029	165.000000
165.653104	154.200000
168.192369	160.600000
170.728824	177.000000
173.264589	168.800000
175.801779	189.800000
178.338277	168.000000
180.871971	175.200000
183.402860	174.000000
185.933061	160.600000
188.464687	174.600000
190.993513	169.600000
193.519539	158.800000
196.044879	161.200000
198.571644	202.600000
201.095613	165.000000
203.618896	153.800000
206.141495	183.000000
208.661301	173.000000
211.180424	198.000000
213.698864	179.200000
216.218728	182.800000
218.731591	164.200000
221.247985	179.000000
223.763698	172.400000
226.274520	177.000000
228.786767	176.800000
231.296231	166.600000
233.805017	165.600000
236.313125	193.000000
238.822657	176.000000
241.327308	188.800000
243.831283	159.200000
246.336682	140.600000
248.837206	193.200000
251.341253	180.400000
253.838330	191.600000
256.338929	180.800000
258.836757	179.600000
261.333912	212.200000
263.830394	180.200000
266.322014	170.400000
268.817152	221.200000
271.309525	172.400000
273.801227	174.000000
276.290166	172.000000
278.780528	188.600000
281.268129	199.000000
283.752970	190.800000
286.241325	182.400000
288.722742	172.800000
291.207672	176.800000
293.687756	200.000000
296.171353	200.200000
298.650108	193.200000
301.130285	193.200000
303.607711	188.600000
306.084473	174.600000
308.560571	166.400000
311.033921	169.800000
313.506610	198.200000
315.978637	201.200000
318.450002	251.600000
320.918624	274.200000
323.386586	260.800000
325.855971	225.600000
328.320533	226.600000
330.788598	222.600000
333.251844	200.000000
335.714433	208.000000
338.176364	190.600000
340.637639	223.200000
343.096180	204.400000
345.556143	199.800000
348.013374	223.800000
350.469950	185.600000
352.925871	182.200000
355.379064	191.800000
357.833679	180.600000
360.283492	200.000000
362.736801	169.000000
365.185311	214.600000
367.633171	204.600000
370.082452	186.200000
372.526940	184.800000
374.972850	217.000000
377.418111	218.200000
379.860653	208.200000
382.302547	169.400000
384.743793	213.200000
387.182324	203.400000
389.622277	213.600000
392.059516	213.400000
394.494043	184.600000
396.932058	167.400000
399.365296	208.200000
401.799956	215.200000
404.229843	204.200000
406.663215	197.800000
409.091816	175.400000
411.519777	196.800000
413.949158	215.200000
416.373775	204.600000
418.799812	209.400000
421.225210	184.400000
423.649967	180.200000
426.069965	202.400000
428.491385	233.800000
430.910108	193.800000
433.330252	185.200000
435.747701	195.800000
438.166570	194.400000
440.582746	197.000000
442.994175	224.400000
445.409080	224.400000
447.821295	219.800000
450.232876	177.600000
452.643823	196.200000
455.052084	210.000000
457.459713	195.000000
459.866709	223.000000
462.273073	214.000000
464.676756	195.600000
467.079808	204.400000
469.482230	195.400000
471.884022	200.000000
474.283136	171.400000
476.683670	194.200000
479.083575	166.800000
481.478757	193.600000
483.877406	189.800000
486.271335	194.600000
488.664638	211.800000
491.057315	173.600000
493.449367	169.200000
495.842838	162.400000
498.231596	175.000000
500.617688	184.600000
503.005200	177.400000
505.392088	174.400000
507.776313	130.000000
510.161957	144.400000
512.544938	145.000000
514.925259	157.800000
517.306999	145.200000
519.686080	133.200000
522.066580	123.600000
524.444422	139.800000
526.819609	151.200000
529.194178	126.600000
531.570166	104.200000
533.943500	146.800000
536.318253	122.600000
538.688319	93.200000
541.057770	132.400000
543.428640	128.800000
545.794828	128.400000
548.162435	132.400000
550.527396	118.000000
552.891744	114.800000
555.255480	94.800000
557.620633	114.000000
559.981114	106.000000
562.343012	112.800000
564.702271	120.400000
567.058891	113.200000
569.418957	105.000000
571.772331	113.200000
574.129150	106.800000
576.483334	114.800000
578.836909	121.400000
581.189876	102.800000
583.540212	91.400000
585.891964	122.600000
588.237040	96.600000
590.587580	108.000000
592.931447	100.600000
595.280775	113.600000
597.625454	103.400000
599.967509	83.000000
602.310981	96.200000
604.651830	113.000000
606.992076	81.000000
609.329702	124.200000
611.670763	119.000000
614.007187	114.600000
616.345027	100.200000
618.680249	96.200000
621.012856	92.000000
623.346880	108.600000
625.678289	90.600000
628.009100	99.600000
630.339313	94.400000
632.668929	83.800000
634.993921	76.800000
637.324355	114.600000
639.650167	128.000000
641.973373	111.600000
644.297995	101.000000
646.620011	103.200000
648.941433	92.000000
651.260252	107.400000
653.580487	98.800000
655.900129	101.800000
658.217170	92.600000
660.533620	84.600000
662.847471	93.800000
665.162737	93.400000
667.475407	94.200000
669.789492	95.800000
672.098978	112.000000
674.409878	91.400000
676.718186	83.000000
679.025906	78.600000
681.335041	94.400000
683.639583	107.000000
685.943539	79.400000
688.246908	92.800000
690.551692	78.000000
692.851890	107.400000
695.153503	107.000000
697.454530	103.000000
699.750976	94.200000
702.048836	94.200000
704.346114	97.800000
706.642807	86.400000
708.934925	67.800000
711.230454	94.800000
713.521410	107.000000
715.813780	92.200000
718.103574	75.000000
720.392789	69.800000
722.681423	73.200000
724.967486	87.000000
727.254962	83.400000
729.539868	79.600000
731.824195	86.800000
734.105955	77.400000
736.389128	95.800000
738.671724	84.600000
740.949764	85.200000
743.229218	86.200000
745.508097	100.400000
747.786400	87.600000
750.060154	103.400000
752.335322	65.800000
754.609916	72.600000
756.881951	63.200000
759.155399	96.200000
761.426289	84.800000
763.694622	82.000000
765.964370	99.400000
768.231562	96.400000
770.498184	109.400000
772.764237	77.600000
775.027738	79.000000
777.292651	98.200000
779.556996	133.800000
781.816810	78.800000
784.078038	113.400000
786.338698	97.200000
788.596811	89.600000
790.852380	118.000000
793.111340	77.800000
795.363801	96.800000
797.621629	106.200000
799.874938	97.400000
802.125706	84.000000
804.377887	92.000000
806.627530	105.600000
808.878584	95.800000
811.125127	94.800000
813.373083	76.600000
815.618503	91.400000
817.865336	85.000000
820.111606	87.200000
822.353373	62.400000
824.598522	110.400000
826.837199	119.400000
829.079259	77.200000
831.316820	88.000000
833.555792	97.400000
835.792238	60.000000
838.030096	107.000000
840.265428	84.800000
842.498236	86.000000
844.732456	85.800000
846.964154	78.400000
849.195297	101.800000
851.425885	70.600000
853.655919	89.600000
855.885398	75.600000
858.110397	100.000000
860.338769	102.600000
862.562663	86.800000
864.787967	84.200000
867.008796	90.000000
869.232997	82.000000
871.452725	90.400000
873.673864	88.400000
875.894452	106.000000
878.112531	90.600000
880.332019	74.200000
882.547041	106.200000
884.761515	95.000000
886.975442	91.200000
889.188821	76.400000
891.401654	71.400000
893.613939	85.400000
895.823723	105.400000
898.032961	89.600000
900.241653	103.400000
902.447847	72.600000
904.655450	76.000000
906.860556	81.200000
909.065118	102.800000
911.267185	84.200000
913.470661	100.800000
915.671643	82.800000
917.872083	89.400000
920.073932	68.800000
922.269390	66.200000
924.468206	102.200000
926.662585	92.800000
928.860321	99.600000
931.053621	103.600000
933.248329	84.600000
935.440552	109.600000
937.632237	84.800000
939.823384	77.800000
942.012048	72.000000
944.200175	118.800000
946.385822	106.800000
948.574821	93.400000
950.759397	95.400000
952.943438	106.600000
955.130829	85.600000
957.309917	128.800000
959.492354	82.800000
961.674258	112.600000
963.853688	95.400000
966.030645	121.800000
968.209010	120.600000
970.388781	105.200000
972.562204	95.400000
974.738973	98.600000
976.911336	96.000000
979.085106	110.000000
981.254472	120.800000
983.427182	116.200000
985.597426	117.800000
987.767142	143.400000
989.936329	115.800000
992.101119	107.400000
994.269251	101.600000
996.432987	122.800000
998.598131	131.200000
1000.760815	118.800000
1002.922974	112.400000
1005.082675	129.600000
1007.241853	119.200000
1009.402437	126.400000
1011.560566	122.400000
1013.718171	106.800000
1015.875253	114.200000
1018.031812	114.800000
1020.183991	115.000000
1022.337577	141.000000
1024.490640	145.400000
1026.641256	133.600000
1028.793277	156.000000
1030.940925	134.800000
1033.091905	136.000000
1035.238515	150.800000
1037.384605	109.400000
1039.530177	132.200000
1041.677153	150.400000
1043.817842	136.800000
1045.961859	126.000000
1048.103437	135.000000
1050.244497	162.600000
1052.386962	164.200000
1054.523148	135.400000
1056.662660	151.400000
1058.797816	122.200000
1060.936297	142.600000
1063.070425	129.600000
1065.204039	151.000000
1067.339057	143.600000
1069.469726	155.400000
1071.601801	126.400000
1073.731445	148.400000
1075.860578	132.000000
1077.989200	154.800000
1080.117310	125.800000
1082.242994	114.600000
1084.368168	143.200000
1086.494745	153.600000
1088.616986	135.800000
1090.740631	136.000000
1092.859941	153.200000
1094.984480	106.800000
1097.102775	138.400000
1099.222473	112.400000
1101.339753	125.000000
1103.456527	123.000000
1105.572794	149.800000
1107.686646	145.800000
1109.801901	114.400000
1111.912834	146.200000
1114.027078	136.000000
1116.137003	126.000000
1118.248330	126.400000
1120.359154	109.000000
1122.465661	113.600000
1124.575477	122.200000
1126.680979	113.600000
1128.787885	113.200000
1130.888574	109.400000
1132.994476	130.400000
1135.096069	111.400000
1137.199065	139.800000
1139.301560	109.000000
1141.397849	116.800000
1143.499344	97.000000
1145.596537	123.400000
1147.693231	92.800000
1149.789428	120.400000
1151.885126	103.600000
1153.980327	105.000000
1156.073131	106.000000
1158.167337	110.200000
1160.255352	105.600000
1162.348565	112.600000
1164.435590	106.800000
1166.525915	123.200000
1168.611951	101.400000
1170.701285	113.200000
1172.784438	89.200000
1174.868994	94.200000
1176.954950	105.800000
1179.036625	114.600000
1181.119702	96.000000
1183.200393	99.000000
1185.280593	124.000000
1187.360301	117.600000
1189.439518	124.600000
1191.516352	119.800000
1193.590806	113.400000
1195.668552	128.800000
1197.742027	95.600000
1199.816904	97.200000
1201.887513	106.200000
1203.959523	120.000000
1206.029157	144.000000
1208.100192	121.600000
1210.170739	84.000000
1212.237025	111.000000
1214.304712	102.200000
1216.370027	115.000000
1218.436742	105.800000
1220.499201	114.600000
1222.564946	156.800000
1224.626436	121.200000
1226.689326	124.000000
1228.749849	110.200000
1230.809889	131.200000
1232.869445	106.600000
1234.926637	117.800000
1236.983346	126.400000
1239.037693	129.200000
1241.095320	125.200000
1243.150585	114.800000
1245.201609	137.200000
1247.254033	127.200000
1249.305978	125.000000
1251.355564	83.000000
1253.404671	138.800000
1255.453299	116.200000
1257.501449	131.200000
1259.549121	117.200000
1261.592562	122.000000
1263.639278	117.800000
1265.683642	137.000000
1267.727528	113.200000
1269.769064	139.200000
1271.808250	114.000000
1273.850708	148.000000
1275.888945	110.600000
1277.928579	143.200000
1279.967739	160.600000
1282.002681	139.800000
1284.039021	141.600000
1286.073016	144.000000
1288.108410	145.000000
1290.139590	155.000000
1292.172169	129.400000
1294.204275	165.600000
1296.234041	196.000000
1298.265205	159.000000
1300.292161	188.200000
1302.320515	162.000000
1304.344665	165.000000
1306.372080	166.000000
1308.395292	221.600000
1310.419902	234.800000
1312.442177	213.000000
1314.465850	228.400000
1316.487190	231.600000
1318.508063	243.400000
1320.528468	240.400000
1322.544679	247.800000
1324.562289	228.400000
1326.577570	255.400000
1328.596110	255.400000
1330.610460	279.200000
1332.622485	272.600000
1334.637768	256.800000
1336.648865	285.200000
1338.661358	298.400000
1340.669669	290.400000
1342.681236	267.000000
1344.686764	277.600000
1346.695546	248.600000
1348.700152	243.400000
1350.708011	252.800000
1352.715407	230.600000
1354.716773	222.800000
1356.719536	206.400000
1358.721839	196.200000
1360.723681	199.000000
1362.725065	195.000000
1364.724134	178.600000
1366.722745	186.400000
1368.720898	194.400000
1370.718593	146.000000
1372.712124	155.800000
1374.707052	145.000000
1376.701523	142.600000
1378.695537	154.400000
1380.687244	158.600000
1382.678495	150.800000
1384.667441	162.200000
1386.657782	124.000000
1388.647668	138.200000
1390.635251	122.000000
1392.622380	108.200000
1394.607207	142.600000
1396.593429	119.400000
1398.577350	115.200000
1400.560819	149.800000
1402.543836	117.800000
1404.524555	124.800000
1406.506668	136.800000
1408.486484	110.600000
1410.465850	120.000000
1412.441077	141.200000
1414.419542	119.200000
1416.395714	119.600000
1418.371436	103.200000
1420.346709	108.000000
1422.319691	122.000000
1424.292226	117.400000
1426.264312	136.800000
1428.235950	130.800000
1430.203461	114.000000
1432.176045	114.400000
1434.140823	114.400000
1436.110674	136.800000
1438.076400	103.800000
1440.043520	121.200000
1442.008356	126.000000
1443.969072	115.400000
1445.934856	132.600000
1447.894685	127.000000
1449.855907	114.000000
1451.818522	100.600000
1453.777022	100.600000
1455.735080	128.200000
1457.692695	129.200000
1459.649869	98.200000
1461.604767	146.200000
1463.561057	118.600000
1465.515073	127.800000
1467.468649	109.200000
1469.419952	107.000000
1471.372647	104.600000
1473.323071	120.800000
1475.273056	121.000000
1477.222601	113.800000
1479.169878	106.600000
1481.114888	142.800000
1483.061290	121.000000
1485.007254	126.600000
1486.952780	109.400000
1488.896042	140.800000
1490.838867	99.200000
1492.779429	117.600000
1494.721382	131.400000
1496.661074	142.600000
1498.600330	120.400000
1500.539152	142.800000
1502.475714	125.400000
1504.413666	127.400000
1506.349361	140.800000
1508.284622	124.600000
1510.217626	104.400000
1512.150198	123.400000
1514.082338	132.600000
1516.014046	133.800000
1517.943501	140.600000
1519.874345	111.000000
1521.804759	147.200000
1523.731100	137.600000
1525.658831	159.800000
1527.584312	147.400000
1529.509364	148.000000
1531.433987	126.400000
1533.358181	154.400000
1535.280128	137.200000
1537.203464	164.000000
1539.124555	153.600000
1541.043401	171.800000
1542.963637	170.800000
1544.881629	186.600000
1546.799195	169.200000
1548.714519	176.600000
1550.631233	188.200000
1552.543892	218.800000
1554.459755	231.600000
1556.373379	226.200000
1558.284764	240.000000
1560.197538	223.400000
1562.106263	239.800000
1564.016378	257.200000
1565.926069	228.800000
1567.835336	239.400000
1569.742370	238.800000
1571.647171	239.400000
1573.553361	224.400000
1575.457319	250.000000
1577.360857	236.200000
1579.263973	227.400000
1581.164861	233.800000
1583.067137	203.200000
1584.967184	204.200000
1586.868620	203.200000
1588.766021	210.400000
1590.663005	194.400000
1592.559570	220.200000
1594.457522	196.600000
1596.349640	181.200000
1598.244952	193.400000
1600.139845	175.800000
1602.032517	178.800000
1603.924773	185.800000
1605.814809	180.600000
1607.704429	179.600000
1609.593634	155.800000
1611.482423	143.400000
1613.368996	145.600000
1615.256955	149.600000
1617.140899	125.800000
1619.026229	144.200000
1620.911146	147.600000
1622.793849	122.000000
1624.677938	111.200000
1626.558017	125.000000
1628.439482	111.600000
1630.318737	131.000000
1632.199378	94.800000
1634.074215	136.000000
1635.954034	106.400000
1637.829847	66.600000
1639.705251	109.000000
1641.582040	125.400000
1643.453032	80.200000
1645.327206	133.400000
1647.197382	93.400000
1649.070738	119.800000
1650.941891	110.200000
1652.810842	75.400000
1654.681179	90.600000
1656.547522	129.200000
1658.415252	126.600000
1660.280782	113.200000
1662.147697	86.600000
1664.010624	110.000000
1665.874936	105.200000
1667.737053	107.200000
1669.598764	81.000000
1671.461860	89.200000
1673.322762	108.400000
1675.181470	109.400000
1677.039775	81.200000
1678.899465	80.400000
1680.753388	95.600000
1682.610483	111.200000
1684.467176	79.400000
1686.319893	95.800000
1688.175781	106.200000
1690.027695	95.000000
1691.879208	95.800000
1693.730320	88.200000
1695.581031	100.200000
1697.431342	110.000000
1699.279469	95.000000
1701.128979	96.800000
1702.972741	92.800000
1704.821453	100.000000
1706.664418	116.200000
1708.510549	93.200000
1710.352719	92.400000
1712.198053	91.800000
1714.037647	66.600000
1715.878625	110.600000
1717.720986	82.600000
1719.559391	82.200000
1721.399179	80.800000
1723.236792	103.800000
1725.074009	83.200000
1726.909053	104.000000
1728.745480	80.800000
1730.579735	90.200000
1732.413596	84.200000
1734.247062	97.000000
1736.076582	93.400000
1737.909261	93.200000
1739.737996	96.200000
1741.569889	68.000000
1743.397839	90.600000
1745.225397	92.400000
1747.052564	80.400000
1748.879338	83.000000
1750.705722	73.800000
1752.528169	107.800000
1754.353770	103.200000
1756.175437	100.800000
1757.998486	68.200000
1759.819374	72.200000
1761.639872	86.000000
1763.461752	118.200000
1765.277932	94.800000
1767.097264	74.600000
1768.912669	52.800000
1770.731225	103.200000
1772.545855	98.800000
1774.360098	76.400000
1776.173955	99.400000
1777.987425	106.400000
1779.798741	107.400000
1781.611439	102.000000
1783.423750	66.000000
1785.232144	72.800000
1787.041919	103.800000
1788.847778	111.400000
1790.656784	83.600000
1792.461876	108.400000
1794.268348	74.800000
1796.074437	87.200000
1797.876616	55.000000
1799.681938	84.400000
1801.483352	58.600000
1803.286146	101.800000
1805.085035	88.400000
1806.885303	100.400000
1808.685191	91.600000
1810.482936	111.000000
1812.280301	65.600000
1814.077285	88.600000
1815.873889	100.000000
1817.668354	95.800000
1819.464199	74.400000
1821.254388	77.200000
1823.049474	98.600000
1824.838907	80.000000
1826.631478	89.600000
1828.421913	128.800000
1830.210213	97.000000
1832.001649	88.800000
1833.787440	64.400000
1835.574609	69.400000
1837.359647	86.800000
1839.147819	106.200000
1840.932105	100.800000
1842.714262	86.600000
1844.497797	100.200000
1846.279205	54.800000
1848.061990	72.000000
1849.840896	76.800000
1851.621180	71.400000
1853.399339	54.400000
1855.178875	84.400000
1856.956287	97.600000
1858.731575	78.400000
1860.508242	84.600000
1862.282786	93.000000
1864.058707	100.200000
1865.829009	88.200000
1867.602438	70.400000
1869.373747	82.400000
1871.144685	69.400000
1872.917000	108.200000
1874.683703	90.600000
1876.453530	79.400000
1878.219494	92.000000
1879.988582	94.400000
1881.753808	105.600000
1883.518666	58.600000
1885.284900	93.000000
1887.047276	86.800000
1888.809285	67.600000
1890.570927	79.600000
1892.332201	64.600000
1894.093109	107.400000
1895.853649	79.200000
1897.612080	71.400000
1899.370146	86.400000
1901.126104	92.800000
1902.883438	74.800000
1904.640406	84.600000
1906.395269	106.400000
1908.148026	82.000000
1909.900420	97.400000
1911.654190	69.600000
1913.405856	85.600000
1915.155419	78.600000
1916.906359	83.600000
1918.656935	91.600000
1920.403673	93.200000
1922.151786	89.600000
1923.897800	102.000000
1925.645190	95.400000
1927.390481	96.400000
1929.133675	84.800000
1930.878245	76.000000
1932.620718	73.600000
1934.362831	95.000000
1936.104585	85.800000
1937.845978	103.600000
1939.585278	96.600000
1941.324219	87.600000
1943.062801	94.400000
1944.799291	69.000000
1946.535424	76.800000
1948.272931	84.600000
1950.006617	91.000000
1951.741677	84.200000
1953.474648	87.800000
1955.207263	98.200000
1956.939521	101.800000
1958.671423	92.000000
1960.401239	59.400000
1962.128971	72.600000
1963.858077	82.000000
1965.586827	116.200000
1967.313494	81.400000
1969.039807	94.400000
1970.767493	72.200000
1972.489643	98.000000
1974.214895	88.000000
1975.936339	118.600000
1977.660883	91.400000
1979.383348	70.400000
1981.102009	67.400000
1982.823769	99.800000
1984.541727	74.800000
1986.261059	82.400000
1987.976590	78.200000
1989.696943	96.600000
1991.413496	85.800000
1993.126254	85.800000
1994.842107	68.600000
1996.555888	96.800000
1998.269318	89.400000
1999.980678	91.400000
2001.693411	76.600000
2003.402352	83.800000
2005.114387	107.400000
2006.820912	94.200000
2008.530530	69.000000
2010.238080	88.800000
2011.945283	74.200000
2013.650420	76.200000
2015.355210	96.800000
2017.061372	79.800000
2018.763752	92.200000
2020.467504	118.600000
2022.169193	87.800000
2023.870536	90.800000
2025.571534	80.600000
2027.270472	88.400000
2028.970781	74.400000
2030.667314	91.800000
2032.365219	111.800000
2034.061066	76.400000
2035.759998	91.000000
2037.453444	55.400000
2039.148261	86.400000
2040.842735	105.400000
2042.533441	102.200000
2044.227231	91.800000
2045.917254	74.600000
2047.608648	94.800000
2049.297989	77.000000
2050.988700	103.000000
2052.675649	93.800000
2054.362257	95.000000
2056.050236	89.400000
2057.734455	102.000000
2059.420044	79.400000
2061.105294	63.600000
2062.788496	103.400000
2064.473068	90.800000
2066.152176	105.800000
2067.836070	95.800000
2069.514504	72.400000
2071.196015	86.200000
2072.873774	81.400000
2074.551197	113.800000
2076.229989	83.400000
2077.906738	116.200000
2079.581446	113.800000
2081.257523	98.400000
2082.931560	82.200000
2084.605261	88.000000
2086.278627	74.200000
2087.949955	97.400000
2089.620948	83.600000
2091.291607	76.600000
2092.961932	70.600000
2094.631922	56.800000
2096.299877	87.800000
2097.967499	100.400000
2099.633087	74.800000
2101.300043	93.600000
2102.964966	94.400000
2104.629556	103.400000
2106.292115	70.200000
2107.956043	118.200000
2109.617939	73.800000
2111.279504	113.200000
2112.940739	105.800000
2114.599944	91.400000
2116.258820	114.600000
2117.917365	79.600000
2119.575581	88.600000
2121.230074	51.600000
2122.887631	90.800000
2124.544858	87.800000
2126.198365	93.800000
2127.853239	98.200000
2129.504394	83.800000
2131.158612	102.600000
2132.809112	81.400000
2134.460980	98.000000
2136.107439	69.400000
2137.758652	83.200000
2139.406153	81.800000
2141.055020	96.000000
2142.701868	98.000000
2144.348391	132.400000
2145.994588	83.800000
2147.637076	104.800000
2149.282623	102.600000
2150.924463	85.400000
2152.569360	102.000000
2154.210552	95.200000
2155.851420	88.600000
2157.491965	108.000000
2159.130497	69.000000
2160.770395	85.400000
2162.406593	94.400000
2164.044157	110.400000
2165.681399	65.400000
2167.316631	110.200000
2168.951541	86.600000
2170.586130	108.800000
2172.220398	70.600000
2173.850972	76.400000
2175.484597	99.600000
2177.114531	84.400000
2178.745830	93.000000
2180.375125	97.600000
2182.004099	64.000000
2183.632755	98.200000
2185.261091	105.600000
2186.887424	68.200000
2188.513439	89.800000
2190.137453	93.600000
2191.762832	79.000000
2193.386210	100.200000
2195.010953	82.000000
2196.632014	85.000000
2198.252760	80.200000
2199.874869	108.000000
2201.494981	97.000000
2203.113097	95.600000
2204.730897	84.800000
2206.348381	90.000000
2207.965550	112.600000
2209.582404	106.400000
2211.198943	94.200000
2212.813488	92.400000
2214.426042	88.800000
2216.039959	79.400000
2217.651884	95.400000
2219.265174	85.000000
2220.876472	87.000000
2222.485782	99.200000
2224.096454	67.800000
2225.705138	91.800000
2227.313510	113.800000
2228.919894	75.800000
2230.527642	76.600000
2232.133403	98.600000
2233.738853	71.800000
2235.342319	69.400000
2236.947147	98.200000
2238.549991	113.200000
2240.150852	77.400000
2241.753076	82.800000
2243.353317	74.400000
2244.954922	96.600000
2246.552873	66.800000
2248.152187	84.000000
2249.749521	82.600000
2251.346547	93.800000
2252.944934	73.200000
2254.539673	82.000000
2256.132436	89.000000
2257.726560	82.800000
2259.322046	90.600000
2260.913888	100.200000
2262.505423	76.400000
2264.098319	110.200000
2265.685906	109.800000
2267.278190	76.200000
2268.865166	84.600000
2270.455171	102.200000
2272.039871	96.600000
2273.629265	108.400000
2275.213356	49.800000
2276.798809	102.800000
2278.382293	86.200000
2279.968802	111.400000
2281.551678	83.800000
2283.134250	100.600000
2284.716520	96.600000
2286.295159	89.600000
2287.876822	76.600000
2289.454858	84.400000
2291.035916	93.800000
2292.613347	90.100000
2294.188815	86.400000
2295.767305	72.200000
2297.342170	113.800000
2298.916735	74.600000
2300.491000	97.400000
2302.064964	100.000000
2303.638628	89.000000
2305.211991	86.200000
2306.781736	107.000000
2308.351182	78.000000
2309.923647	89.000000
2311.490837	97.600000
2313.061044	71.600000
2314.627637	111.400000
2316.195590	68.000000
2317.761588	120.200000
2319.327288	93.800000
2320.892690	82.400000
2322.456139	80.600000
2324.020947	114.800000
2325.582146	94.800000
2327.146360	102.600000
2328.705313	105.000000
2330.267279	101.400000
2331.827295	99.000000
2333.387015	83.200000
2334.944786	101.000000
2336.502263	85.200000
2338.059444	69.000000
2339.614679	86.200000
2341.169619	107.200000
2342.724266	109.600000
2344.278619	95.800000
2345.832678	104.400000
2347.386444	81.800000
2348.938265	71.800000
2350.488143	88.600000
2352.041029	74.000000
2353.588673	80.600000
2355.139324	73.000000
2356.686385	94.600000
2358.234803	94.800000
2359.782929	101.000000
2361.327468	77.800000
2362.873364	97.600000
2364.417321	74.400000
2365.962636	115.800000
2367.504366	103.600000
2369.047454	99.000000
2370.588605	77.200000
2372.129467	90.800000
2373.670040	110.600000
2375.210324	96.600000
2376.750319	83.200000
2378.286735	106.600000
2379.826153	93.400000
2381.361994	90.400000
2382.899191	89.400000
2384.432814	110.400000
2385.969436	104.400000
2387.504127	89.000000
2389.036889	97.000000
2390.569365	101.200000
2392.099912	96.400000
2393.633457	76.600000
2395.161791	98.200000
2396.691481	93.400000
2398.220886	86.800000
2399.750006	95.800000
2401.278840	98.600000
2402.802470	79.600000
2404.330735	103.200000
2405.853797	101.400000
2407.381494	107.400000
2408.902350	83.200000
2410.427840	103.400000
2411.949770	87.800000
2413.473054	86.600000
2414.994418	98.200000
2416.513862	91.800000
2418.034661	102.400000
2419.553541	111.400000
2421.072139	88.200000
2422.588820	93.200000
2424.106856	99.000000
2425.624610	99.200000
2427.138812	112.600000
2428.652734	92.800000
2430.166377	96.400000
2431.681373	96.800000
2433.192821	108.200000
2434.705624	91.400000
2436.216514	77.800000
2437.727124	118.400000
2439.235823	92.600000
2440.747509	104.800000
2442.255651	67.400000
2443.763514	99.800000
2445.271100	100.600000
2446.775146	116.000000
2448.282176	101.000000
2449.787298	95.800000
2451.292143	107.600000
2452.795081	86.200000
2454.297742	97.400000
2455.800127	97.800000
2457.300607	85.400000
2458.802440	97.200000
2460.302369	92.800000
2461.802022	100.800000
2463.301400	107.000000
2464.798875	110.400000
2466.294448	94.400000
2467.793001	97.200000
2469.288026	92.800000
2470.784403	91.600000
2472.277254	75.000000
2473.771457	105.600000
2475.265387	93.600000
2476.755794	98.600000
2478.249178	112.800000
2479.740663	96.000000
2481.230252	120.200000
2482.719570	98.200000
2484.206991	98.600000
2485.697388	83.400000
2487.184266	96.600000
2488.672496	99.200000
2490.157210	95.000000
2491.641653	77.200000
2493.127448	85.600000
2494.611350	96.400000
2496.096604	98.000000
2497.576724	124.600000
2499.059816	117.000000
2500.541018	80.400000
2502.021951	77.800000
2503.500995	77.000000
2504.979771	92.400000
2506.458278	86.200000
2507.936516	87.000000
2509.414486	104.200000
2510.888952	107.000000
2512.366386	120.200000
2513.840317	89.800000
2515.315599	78.000000
2516.790613	82.400000
2518.262126	106.200000
2519.734990	79.800000
2521.205971	88.800000
2522.678301	82.600000
2524.145519	102.400000
2525.615703	96.600000
2527.084005	100.800000
2528.552043	98.600000
2530.019816	94.000000
2531.487324	108.800000
2532.954567	112.200000
2534.418319	98.600000
2535.883420	77.000000
2537.346644	89.000000
2538.811217	121.000000
2540.272301	111.800000
2541.734736	83.600000
2543.196907	107.800000
2544.655591	95.800000
2546.118848	86.200000
2547.577008	106.400000
2549.036517	108.000000
2550.490933	116.200000
2551.949919	114.800000
2553.407032	110.200000
2554.862275	91.400000
2556.317257	106.800000
2557.770369	123.200000
2559.224830	99.600000
2560.677422	108.000000
2562.129754	96.000000
2563.580218	98.200000
2565.033638	110.600000
2566.481976	107.200000
2567.933270	111.200000
2569.382697	109.000000
2570.828653	102.600000
2572.277563	101.000000
2573.723002	103.600000
2575.169790	103.800000
2576.614714	101.000000
2578.059381	114.800000
2579.505395	101.600000
2580.947942	99.200000
2582.391837	98.200000
2583.832267	90.200000
2585.274045	102.400000
2586.713963	96.600000
2588.155228	107.400000
2589.593031	91.200000
2591.033784	104.000000
2592.469474	116.200000
2593.908114	122.600000
2595.344897	118.800000
2596.779823	108.800000
2598.217698	103.000000
2599.650515	115.200000
2601.084679	83.400000
2602.516988	149.600000
2603.950644	72.400000
2605.382447	130.400000
2606.813997	90.200000
2608.245293	117.000000
2609.674738	120.600000
2611.103930	120.800000
2612.531271	108.800000
2613.959959	98.000000
2615.388394	102.000000
2616.813383	120.200000
2618.239717	105.000000
2619.664203	125.000000
2621.090035	138.600000
2622.512423	105.200000
2623.936157	157.000000
2625.358045	121.600000
2626.779682	108.200000
2628.199474	114.000000
2629.620612	84.200000
2631.041500	120.600000
2632.458950	123.200000
2633.879339	114.800000
2635.296291	116.200000
2636.712995	144.400000
2638.129450	112.800000
2639.545657	135.200000
2640.961615	98.800000
2642.375733	152.400000
2643.789604	118.000000
2645.201635	129.600000
2646.615011	145.400000
2648.024957	132.800000
2649.437839	137.600000
2650.847292	123.600000
2652.256499	117.000000
2653.663870	113.200000
2655.074175	131.000000
2656.482644	131.600000
2657.889278	131.200000
2659.295667	164.800000
2660.700222	134.000000
2662.106121	133.400000
2663.510187	139.400000
2664.914009	125.600000
2666.317586	134.200000
2667.719331	117.400000
2669.122420	127.000000
2670.522092	154.000000
2671.923107	138.600000
2673.320705	141.800000
2674.721234	119.000000
2676.118348	142.600000
2677.516805	168.000000
2678.913434	128.200000
2680.309822	122.200000
2681.705967	143.200000
2683.100286	133.600000
2684.495948	135.800000
2685.888200	121.600000
2687.281796	154.000000
2688.673567	133.000000
2690.066680	113.200000
2691.457970	131.000000
2692.847437	142.000000
2694.236665	130.800000
2695.625652	131.800000
2697.015982	113.400000
2698.401327	141.800000
2699.789597	144.400000
2701.176046	113.200000
2702.562256	127.000000
2703.948227	126.200000
2705.330800	116.000000
2706.714714	117.800000
2708.098391	100.000000
2709.481830	141.000000
2710.861873	114.200000
2712.243258	128.200000
2713.622827	120.000000
2715.003738	111.000000
2716.382834	88.200000
2717.760115	135.000000
2719.138738	127.000000
2720.515548	123.400000
2721.892122	101.200000
2723.268460	113.600000
2724.642986	107.000000
2726.018853	105.000000
2727.391333	110.000000
2728.766730	93.200000
2730.137165	102.000000
2731.508942	94.800000
2732.880485	99.800000
2734.250219	87.200000
2735.621293	123.400000
2736.990560	93.400000
2738.359593	108.400000
2739.726819	112.800000
2741.093813	109.400000
2742.460574	109.200000
2743.827102	92.000000
2745.191826	125.000000
2746.556317	94.200000
2747.920576	105.600000
2749.284604	97.000000
2750.648399	94.600000
2752.008821	107.600000
2753.372154	92.400000
2754.730544	89.800000
2756.091844	127.200000
2757.449773	101.400000
2758.810612	102.400000
2760.169650	134.000000
2761.525320	82.200000
2762.883899	114.800000
2764.239110	115.000000
2765.594092	107.600000
2766.947277	115.400000
2768.303369	99.800000
2769.656097	136.400000
2771.008596	103.800000
2772.360867	103.000000
2773.714477	64.200000
2775.064725	98.600000
2776.413180	111.600000
2777.764539	68.600000
2779.112539	80.600000
2780.461878	89.000000
2781.809424	84.600000
2783.156743	106.400000
2784.503836	96.600000
2785.849138	89.400000
2787.194214	112.400000
2788.539064	84.400000
2789.883688	95.400000
2791.224959	95.800000
2792.567569	74.200000
2793.909954	110.800000
2795.252113	85.200000
2796.590923	103.600000
2797.932633	73.400000
2799.270994	103.000000
2800.610693	79.400000
2801.948606	85.400000
2803.284735	87.600000
2804.620641	70.200000
2805.957883	92.800000
2807.293342	88.600000
2808.628578	91.800000
2809.962032	107.200000
2811.296822	67.400000
2812.628271	97.200000
2813.962616	102.600000
2815.292063	102.200000
2816.622847	82.200000
2817.953409	96.400000
2819.282192	93.400000
2820.612312	84.400000
2821.940652	100.800000
2823.268772	105.200000
2824.595115	91.200000
2825.922793	82.000000
2827.247139	106.800000
2828.572820	106.800000
2829.896727	71.600000
2831.220413	104.600000
2832.545435	71.600000
2833.867128	120.200000
2835.188601	82.800000
2836.509856	89.600000
2837.830892	79.000000
2839.150156	89.000000
2840.470755	92.200000
2841.789582	113.200000
2843.108191	88.000000
2844.425030	106.200000
2845.741651	77.200000
2847.058054	85.600000
2848.372689	109.400000
2849.688658	93.200000
2851.001307	93.000000
2852.315292	110.000000
2853.629060	83.000000
2854.942611	80.200000
2856.254395	84.600000
2857.564414	80.200000
2858.875767	88.600000
2860.183804	102.000000
2861.493177	99.400000
2862.802334	94.800000
2864.111276	90.000000
2865.418455	90.200000
2866.723870	109.000000
2868.030620	121.600000
2869.335607	93.200000
2870.640381	94.800000
2871.943393	67.200000
2873.249287	97.400000
2874.550326	97.800000
2875.852698	82.200000
2877.153311	77.800000
2878.455258	117.800000
2879.756992	79.600000
2881.055422	123.600000
2882.355185	100.000000
2883.653191	117.400000
2884.950985	79.200000
2886.247022	111.000000
2887.544393	83.800000
2888.840008	130.800000
2890.135413	85.000000
2891.430606	104.800000
2892.722501	85.000000
2894.017273	77.800000
2895.308749	79.200000
2896.601557	107.000000
2897.894155	83.600000
2899.183458	116.800000
2900.474094	114.200000
2901.762980	89.600000
2903.053197	64.800000
2904.340123	114.400000
2905.628381	71.400000
2906.914890	93.800000
2908.201190	101.600000
2909.487282	106.400000
2910.771626	95.600000
2912.058842	81.600000
2913.341231	85.800000
2914.624952	75.600000
2915.906926	77.400000
2917.188694	105.000000
2918.468716	72.600000
2919.751608	114.000000
2921.032755	94.800000
2922.310620	85.400000
2923.591354	79.400000
2924.868807	87.800000
2926.146055	120.000000
2927.421560	112.200000
2928.699933	73.400000
2929.973491	89.800000
2931.249917	92.600000
2932.524602	92.000000
2933.797547	88.000000
2935.071822	100.000000
2936.344358	112.600000
2937.616690	91.600000
2938.885749	86.800000
2940.157673	95.400000
2941.427859	93.600000
2942.697841	73.400000
2943.967620	91.200000
2945.235662	97.000000
2946.501969	85.600000
2947.768073	84.400000
2949.035508	92.000000
2950.301207	103.400000
2951.566704	66.400000
2952.831999	90.800000
2954.094030	101.200000
2955.357390	85.000000
2956.620549	79.800000
2957.881975	90.000000
2959.144731	92.600000
2960.405756	100.800000
2961.665050	92.800000
2962.924143	74.800000
2964.183036	80.000000
2965.441729	97.400000
2966.700222	98.200000
2967.956986	86.600000
2969.213551	81.800000
2970.468387	94.400000
2971.724553	80.400000
2972.977463	77.200000
2974.231703	86.000000
2975.485744	84.600000
2976.738059	109.200000
2977.990176	125.200000
2979.240568	115.800000
2980.493815	94.600000
2981.742285	88.400000
2982.993609	104.000000
2984.241685	103.600000
2985.489563	66.200000
2986.737244	66.600000
2987.984729	65.600000
2989.230492	67.800000
2990.476058	95.600000
2991.722953	81.400000
2992.966602	74.800000
2994.211580	106.000000
2995.453315	104.400000
2996.697901	97.000000
2997.940768	109.600000
2999.180393	91.200000
3000.422870	85.600000
3001.662106	85.400000
3002.902670	86.800000
3004.141517	56.200000
3005.380170	67.800000
3006.617107	57.400000
3007.855371	76.000000
3009.091921	77.400000
3010.328277	90.800000
3011.564439	50.000000
3012.798887	77.600000
3014.033142	72.000000
3015.267204	77.800000
3016.499554	54.200000
3017.730192	80.800000
3018.963676	71.200000
3020.195449	62.400000
3021.425510	84.200000
3022.655380	81.200000
3023.883540	89.600000
3025.113027	106.600000
3026.340804	66.200000
3027.568390	84.800000
3028.797302	75.600000
3030.021472	86.200000
3031.248485	84.400000
3032.472275	86.600000
3033.697390	80.400000
3034.920799	91.600000
3036.144019	81.400000
3037.365533	71.600000
3038.589888	75.400000
3039.809508	97.200000
3041.030454	98.200000
3042.251210	58.400000
3043.470263	96.000000
3044.690642	101.800000
3045.907804	71.200000
3047.126291	110.400000
3048.343077	72.400000
3049.559674	68.600000
3050.776084	95.000000
3051.989280	70.600000
3053.205314	94.000000
3054.418136	90.200000
3055.633795	53.200000
3056.844731	67.400000
3058.056993	55.800000
3059.269067	88.000000
3060.480955	77.600000
3061.691145	96.200000
3062.901150	71.000000
3064.110968	87.800000
3065.319090	80.800000
3066.527026	82.000000
3067.733268	73.600000
3068.940834	72.400000
3070.146705	69.300000
3071.352391	66.200000
3072.557893	35.400000
3073.761701	80.200000
3074.966833	104.400000
3076.170272	65.200000
3077.372019	54.800000
3078.573583	68.000000
3079.774963	74.800000
3080.976159	97.400000
3082.175665	73.200000
3083.374987	92.800000
3084.575633	65.400000
3085.774590	73.000000
3086.970351	79.600000
3088.168942	68.600000
3089.364339	78.000000
3090.561060	85.600000
3091.754588	77.200000
3092.950944	76.800000
3094.145613	63.200000
3095.337092	71.800000
3096.532902	84.400000
3097.724019	81.600000
3098.916459	74.000000
3100.105710	84.600000
3101.297788	99.200000
3102.488182	94.800000
3103.675389	62.000000
3104.863920	79.400000
3106.053773	82.200000
3107.240441	79.600000
3108.426930	75.800000
3109.613239	92.200000
3110.800871	60.200000
3111.985320	92.800000
3113.168089	89.800000
3114.353682	51.000000
3115.537594	58.400000
3116.719828	81.400000
3117.901884	78.800000
3119.083761	74.200000
3120.265460	69.400000
3121.445482	93.600000
3122.623826	55.800000
3123.804992	110.600000
3124.982982	50.800000
3126.160795	49.200000
3127.338431	63.800000
3128.514392	65.000000
3129.690177	95.200000
3130.867282	74.400000
3132.042714	94.800000
3133.216472	110.600000
3134.388557	79.400000
3135.561963	93.800000
3136.735194	94.800000
3137.906752	98.400000
3139.079632	106.600000
3140.249344	90.200000
3141.420377	81.800000
3142.589739	97.000000
3143.757432	70.800000
3144.927940	96.800000
3146.093789	87.000000
3147.263948	88.200000
3148.429449	86.200000
3149.594777	84.600000
3150.759931	75.400000
3151.924912	87.200000
3153.091212	82.600000
3154.252859	86.400000
3155.415827	63.000000
3156.578621	86.000000
3157.741243	59.600000
3158.902200	77.600000
3160.062984	96.800000
3161.223597	53.600000
3162.382545	69.200000
3163.541321	81.600000
3164.699926	99.800000
3165.858359	90.800000
3167.016620	88.400000
3168.173219	91.400000
3169.328157	56.000000
3170.484414	83.600000
3171.639011	95.000000
3172.793436	60.800000
3173.946202	103.200000
3175.098798	71.800000
3176.251224	77.000000
3177.403479	77.600000
3178.555565	81.000000
3179.704504	84.800000
3180.856250	67.200000
3182.006339	87.600000
3183.154770	73.400000
3184.303033	80.400000
3185.451127	87.400000
3186.599052	75.000000
3187.745321	71.000000
3188.891422	85.000000
3190.035869	113.600000
3191.180147	82.600000
3192.324258	84.600000
3193.469687	97.000000
3194.611977	76.600000
3195.754099	67.000000
3196.896055	75.800000
3198.037843	63.000000
3199.179464	87.800000
3200.317949	107.000000
3201.457753	82.400000
3202.598873	60.200000
3203.736859	90.200000
3204.873196	75.600000
3206.009367	79.800000
3207.146856	72.400000
3208.282696	103.200000
3209.419852	80.600000
3210.552397	78.400000
3211.689222	89.000000
3212.821436	78.800000
3213.954968	98.600000
3215.088334	69.600000
3216.218573	79.400000
3217.351611	79.000000
3218.481521	82.800000
3219.612749	44.200000
3220.740851	61.800000
3221.871751	66.200000
3223.001006	85.800000
3224.128617	89.400000
3225.253107	69.400000
3226.381872	86.400000
3227.507515	41.400000
3228.632995	76.200000
3229.756834	79.400000
3230.883468	66.600000
3232.005503	77.600000
3233.128855	69.000000
3234.252045	93.400000
3235.375073	64.200000
3236.496461	76.000000
3237.617688	66.800000
3238.737276	82.800000
3239.856703	82.400000
3240.974493	70.400000
3242.095074	85.800000
3243.212542	79.800000
3244.329849	71.400000
3245.446995	90.600000
3246.562506	50.400000
3247.679332	72.600000
3248.793047	60.200000
3249.909553	73.000000
3251.024423	60.400000
3252.136185	83.800000
3253.247788	66.600000
3254.360706	80.000000
3255.473464	74.200000
3256.583116	66.800000
3257.694083	73.800000
3258.804891	69.800000
3259.914067	68.400000
3261.021612	75.200000
3262.130472	96.000000
3263.239173	68.400000
3264.344772	82.600000
3265.451686	50.600000
3266.556970	112.400000
3267.663568	81.200000
3268.767066	64.800000
3269.871878	51.400000
3270.976533	83.200000
3272.078090	81.000000
3273.179490	84.600000
3274.282204	87.200000
3275.384761	66.000000
3276.484223	82.600000
3277.586467	60.600000
3278.685617	71.000000
3279.783141	75.800000
3280.880510	50.000000
3281.980662	66.800000
3283.077720	107.800000
3284.174624	81.400000
3285.271372	82.800000
3286.363561	75.200000
3287.460000	63.800000
3288.554816	98.400000
3289.649477	100.400000
3290.742517	70.600000
3291.835403	59.600000
3292.926668	46.400000
3294.019246	93.200000
3295.110204	73.000000
3296.199542	50.000000
3297.288727	89.800000
3298.379224	80.200000
3299.466637	72.400000
3300.553898	92.200000
3301.642471	60.000000
3302.730891	101.600000
3303.814764	67.400000
3304.902879	75.600000
3305.987913	72.800000
3307.071331	46.600000
3308.156061	63.600000
3309.239175	80.600000
3310.323601	60.800000
3311.404949	72.600000
3312.487609	66.200000
3313.568655	89.400000
3314.649550	81.000000
3315.728832	63.400000
3316.807963	45.400000
3317.888406	70.400000
3318.965774	71.200000
3320.044454	91.800000
3321.121522	90.000000
3322.198440	70.600000
3323.273748	78.200000
3324.348906	82.600000
3325.425375	62.000000
3326.498773	61.000000
3327.572023	75.400000
3328.646584	90.600000
3329.719535	63.000000
3330.790879	68.600000
3331.863533	62.200000
3332.933120	62.400000
3334.004018	40.400000
3335.073309	63.200000
3336.143911	77.800000
3337.212906	56.400000
3338.280295	79.800000
3339.346079	73.000000
3340.416089	73.800000
3341.483036	87.600000
3342.546921	61.600000
3343.613574	63.400000
3344.678623	77.400000
3345.742068	74.800000
3346.805366	74.600000
3347.868519	72.000000
3348.931525	88.000000
3349.994384	85.400000
3351.055642	71.800000
3352.113843	82.000000
3353.176265	77.800000
3354.235630	72.200000
3355.294851	62.600000
3356.355380	71.200000
3357.411400	61.600000
3358.470185	51.200000
3359.524462	80.000000
3360.581503	98.600000
3361.636945	73.600000
3362.693696	85.400000
3363.748850	48.800000
3364.802406	62.800000
3365.854365	64.400000
3366.909086	88.200000
3367.960759	81.600000
3369.012287	58.600000
3370.065125	99.400000
3371.114915	75.600000
3372.166014	70.200000
3373.214066	83.400000
3374.264879	56.400000
3375.312646	69.000000
3376.360271	83.400000
3377.407754	63.000000
3378.453643	55.200000
3379.500842	73.200000
3380.544997	65.600000
3381.591911	74.800000
3382.637233	74.600000
3383.679515	73.200000
3384.721655	73.800000
3385.765104	80.800000
3386.808411	80.800000
3387.850128	62.600000
3388.891704	65.200000
3389.933140	72.000000
3390.972987	81.800000
3392.011245	40.000000
3393.050811	80.600000
3394.090237	82.600000
3395.128075	78.200000
3396.164326	61.400000
3397.200437	80.200000
3398.237856	55.400000
3399.272242	71.800000
3400.307936	78.400000
3401.343490	75.600000
3402.376012	78.800000
3403.411288	64.400000
3404.443533	77.800000
3405.475640	56.800000
3406.506163	41.400000
3407.537994	70.800000
3408.569686	92.400000
3409.598350	74.200000
3410.626877	85.000000
3411.656710	67.800000
3412.686406	59.000000
3413.713075	77.800000
3414.741052	65.000000
3415.766004	72.800000
3416.793706	67.000000
3417.818385	57.600000
3418.844370	89.000000
3419.868776	77.800000
3420.893044	34.200000
3421.915734	53.000000
3422.938289	69.600000
3423.962148	68.800000
3424.982989	66.400000
3426.003693	55.000000
3427.025703	45.600000
3428.044695	50.200000
3429.063552	93.200000
3430.083715	67.600000
3431.100860	73.800000
