-118.155753	12.200000
-115.486152	14.200000
-112.819487	9.200000
-110.153575	21.000000
-107.490594	21.400000
-104.826183	30.600000
-102.164703	1.000000
-99.501794	41.600000
-96.843992	8.600000
-94.184759	28.600000
-91.526275	14.200000
-88.870716	-2.200000
-86.213728	6.600000
-83.561837	46.600000
-80.908517	-19.000000
-78.258117	27.200000
-75.606287	24.200000
-72.959548	41.000000
-70.311379	24.400000
-67.663954	24.800000
-65.019442	-16.000000
-62.373501	12.200000
-59.732643	27.200000
-57.090354	36.400000
-54.450975	-10.400000
-51.810167	58.600000
-49.170098	-6.000000
-46.535103	21.600000
-43.898678	13.600000
-41.265157	29.200000
-38.630206	23.600000
-36.000322	57.800000
-33.366844	56.600000
-30.738429	76.200000
-28.110748	67.600000
-25.481639	47.400000
-22.857586	71.600000
-20.229944	139.200000
-17.607355	167.200000
-14.985497	284.200000
-12.364370	463.200000
-9.743974	1073.600000
-7.126465	3860.600000
-4.507528	13259.600000
-1.891477	27840.000000
0.723846	55185.000000
3.338442	39649.000000
5.950156	5589.200000
8.563297	509.200000
11.171405	267.800000
13.783095	189.800000
16.389754	128.200000
18.997841	115.200000
21.605204	82.400000
24.207542	78.200000
26.813458	48.000000
29.414353	62.200000
32.016675	61.800000
34.613979	5.400000
37.214859	53.400000
39.810725	43.400000
42.408018	56.400000
45.004592	17.200000
47.596157	54.200000
50.189150	19.600000
52.779282	39.400000
55.370842	20.000000
57.959542	37.400000
60.549670	14.600000
63.134798	26.600000
65.721354	-0.200000
68.307195	22.600000
70.890183	23.400000
73.474598	54.800000
76.051883	45.400000
78.632735	41.200000
81.210738	45.600000
83.788031	33.400000
86.366750	18.200000
88.940488	35.000000
91.515652	17.800000
94.087973	5.000000
96.659587	22.800000
99.228360	7.600000
101.798560	23.000000
104.365921	52.200000
106.934709	50.400000
109.500659	44.000000
112.063775	13.400000
114.630448	72.800000
117.187898	48.400000
119.751034	98.400000
122.309211	68.000000
124.870942	139.000000
127.427716	213.600000
129.985916	302.800000
132.539164	416.000000
135.091713	668.400000
137.647814	939.200000
140.198966	1319.400000
142.749420	1607.000000
145.299178	1848.800000
147.846116	2090.400000
150.392358	2220.600000
152.940027	2323.000000
155.486999	2288.000000
158.029035	2331.600000
160.570378	2271.600000
163.111029	2213.200000
165.653104	2211.600000
168.192369	2175.200000
170.728824	2172.200000
173.264589	2193.600000
175.801779	2180.000000
178.338277	2192.000000
180.871971	2193.600000
183.402860	2146.400000
185.933061	2147.800000
188.464687	2151.400000
190.993513	2123.000000
193.519539	2092.400000
196.044879	2084.000000
198.571644	2074.200000
201.095613	2110.600000
203.618896	2069.000000
206.141495	2122.200000
208.661301	2066.200000
211.180424	2127.400000
213.698864	2075.000000
216.218728	2104.000000
218.731591	2154.800000
221.247985	2170.200000
223.763698	2199.200000
226.274520	2321.600000
228.786767	2307.200000
231.296231	2345.400000
233.805017	2322.600000
236.313125	2371.400000
238.822657	2342.400000
241.327308	2342.000000
243.831283	2320.200000
246.336682	2328.800000
248.837206	2341.000000
251.341253	2346.400000
253.838330	2379.600000
256.338929	2337.600000
258.836757	2363.000000
261.333912	2343.400000
263.830394	2346.800000
266.322014	2287.000000
268.817152	2289.600000
271.309525	2350.000000
273.801227	2331.800000
276.290166	2339.000000
278.780528	2370.400000
281.268129	2437.400000
283.752970	2382.600000
286.241325	2412.800000
288.722742	2471.000000
291.207672	2520.800000
293.687756	2523.000000
296.171353	2536.400000
298.650108	2598.800000
301.130285	2682.200000
303.607711	2732.600000
306.084473	2658.400000
308.560571	2564.400000
311.033921	2500.800000
313.506610	2517.400000
315.978637	2483.600000
318.450002	2645.600000
320.918624	2676.600000
323.386586	2672.200000
325.855971	2571.400000
328.320533	2508.400000
330.788598	2396.000000
333.251844	2364.000000
335.714433	2347.000000
338.176364	2357.600000
340.637639	2297.000000
343.096180	2316.800000
345.556143	2287.200000
348.013374	2301.000000
350.469950	2254.400000
352.925871	2191.600000
355.379064	2156.600000
357.833679	2146.600000
360.283492	2119.400000
362.736801	2087.400000
365.185311	2115.200000
367.633171	2140.600000
370.082452	2085.000000
372.526940	2032.000000
374.972850	1995.800000
377.418111	1992.600000
379.860653	1994.400000
382.302547	1951.800000
384.743793	1952.400000
387.182324	1973.800000
389.622277	1907.600000
392.059516	1894.800000
394.494043	1896.800000
396.932058	1891.800000
399.365296	1884.600000
401.799956	1875.200000
404.229843	1901.400000
406.663215	1839.600000
409.091816	1891.000000
411.519777	1866.200000
413.949158	1914.000000
416.373775	1922.400000
418.799812	1867.600000
421.225210	1855.600000
423.649967	1817.400000
426.069965	1838.800000
428.491385	1853.400000
430.910108	1828.400000
433.330252	1842.600000
435.747701	1766.400000
438.166570	1744.400000
440.582746	1707.400000
442.994175	1656.400000
445.409080	1648.000000
447.821295	1633.600000
450.232876	1566.600000
452.643823	1563.600000
455.052084	1487.600000
457.459713	1523.400000
459.866709	1505.000000
462.273073	1454.800000
464.676756	1411.200000
467.079808	1461.000000
469.482230	1476.600000
471.884022	1437.600000
474.283136	1468.800000
476.683670	1505.200000
479.083575	1482.800000
481.478757	1516.400000
483.877406	1555.400000
486.271335	1576.400000
488.664638	1640.600000
491.057315	1729.400000
493.449367	1725.200000
495.842838	1929.000000
498.231596	2032.400000
500.617688	2416.800000
503.005200	2815.400000
505.392088	3657.000000
507.776313	4800.000000
510.161957	6711.400000
512.544938	9523.000000
514.925259	13153.800000
517.306999	16733.400000
519.686080	18047.800000
522.066580	16884.200000
524.444422	14203.000000
526.819609	11557.400000
529.194178	9350.800000
531.570166	7936.000000
533.943500	6765.800000
536.318253	5908.200000
538.688319	5249.400000
541.057770	4851.000000
543.428640	4383.800000
545.794828	4089.600000
548.162435	3810.600000
550.527396	3546.600000
552.891744	3371.400000
555.255480	3144.400000
557.620633	3028.000000
559.981114	2914.000000
562.343012	2815.400000
564.702271	2679.600000
567.058891	2659.600000
569.418957	2552.000000
571.772331	2434.200000
574.129150	2361.600000
576.483334	2329.000000
578.836909	2215.600000
581.189876	2210.400000
583.540212	2170.600000
585.891964	2103.800000
588.237040	2088.600000
590.587580	2056.800000
592.931447	1990.000000
595.280775	1975.400000
597.625454	1898.200000
599.967509	1940.600000
602.310981	1904.000000
604.651830	1893.200000
606.992076	1891.800000
609.329702	2008.400000
611.670763	2001.400000
614.007187	2150.800000
616.345027	2213.600000
618.680249	2220.600000
621.012856	2098.200000
623.346880	2087.600000
625.678289	1993.200000
628.009100	1937.200000
630.339313	1901.400000
632.668929	1847.800000
634.993921	1823.600000
637.324355	1860.000000
639.650167	1787.000000
641.973373	1804.400000
644.297995	1767.000000
646.620011	1741.400000
648.941433	1715.000000
651.260252	1735.600000
653.580487	1715.800000
655.900129	1703.600000
658.217170	1670.400000
660.533620	1673.400000
662.847471	1684.600000
665.162737	1701.600000
667.475407	1651.600000
669.789492	1619.800000
672.098978	1629.000000
674.409878	1652.200000
676.718186	1620.200000
679.025906	1641.600000
681.335041	1552.200000
683.639583	1571.200000
685.943539	1579.200000
688.246908	1522.400000
690.551692	1502.000000
692.851890	1542.200000
695.153503	1483.800000
697.454530	1471.000000
699.750976	1416.200000
702.048836	1405.600000
704.346114	1407.600000
706.642807	1358.400000
708.934925	1346.000000
711.230454	1381.400000
713.521410	1339.800000
715.813780	1377.000000
718.103574	1351.400000
720.392789	1380.200000
722.681423	1366.600000
724.967486	1348.000000
727.254962	1379.600000
729.539868	1413.200000
731.824195	1340.000000
734.105955	1400.000000
736.389128	1370.800000
738.671724	1341.200000
740.949764	1352.800000
743.229218	1366.400000
745.508097	1367.000000
747.786400	1334.800000
750.060154	1296.000000
752.335322	1296.400000
754.609916	1324.600000
756.881951	1311.600000
759.155399	1276.800000
761.426289	1283.200000
763.694622	1295.400000
765.964370	1299.600000
768.231562	1336.400000
770.498184	1308.600000
772.764237	1308.400000
775.027738	1303.200000
777.292651	1310.200000
779.556996	1353.200000
781.816810	1359.600000
784.078038	1330.200000
786.338698	1308.000000
788.596811	1314.200000
790.852380	1331.200000
793.111340	1320.600000
795.363801	1281.000000
797.621629	1349.800000
799.874938	1285.600000
802.125706	1341.200000
804.377887	1302.600000
806.627530	1322.200000
808.878584	1278.400000
811.125127	1279.600000
813.373083	1293.800000
815.618503	1277.800000
817.865336	1274.000000
820.111606	1274.600000
822.353373	1235.600000
824.598522	1259.800000
826.837199	1268.400000
829.079259	1241.400000
831.316820	1223.200000
833.555792	1236.600000
835.792238	1229.200000
838.030096	1188.400000
840.265428	1163.000000
842.498236	1215.600000
844.732456	1182.400000
846.964154	1178.000000
849.195297	1194.600000
851.425885	1190.000000
853.655919	1216.400000
855.885398	1182.800000
858.110397	1186.800000
860.338769	1183.600000
862.562663	1171.600000
864.787967	1154.400000
867.008796	1214.000000
869.232997	1215.800000
871.452725	1140.200000
873.673864	1170.800000
875.894452	1142.600000
878.112531	1168.400000
880.332019	1208.200000
882.547041	1257.200000
884.761515	1182.600000
886.975442	1216.200000
889.188821	1189.200000
891.401654	1207.000000
893.613939	1192.400000
895.823723	1169.200000
898.032961	1165.000000
900.241653	1177.800000
902.447847	1191.200000
904.655450	1200.400000
906.860556	1209.200000
909.065118	1237.800000
911.267185	1207.600000
913.470661	1229.800000
915.671643	1283.600000
917.872083	1260.000000
920.073932	1283.000000
922.269390	1347.000000
924.468206	1374.000000
926.662585	1510.400000
928.860321	1635.000000
931.053621	1808.400000
933.248329	1965.000000
935.440552	2135.800000
937.632237	2283.200000
939.823384	2486.200000
942.012048	2509.000000
944.200175	2546.200000
946.385822	2532.000000
948.574821	2528.400000
950.759397	2538.400000
952.943438	2561.200000
955.130829	2535.400000
957.309917	2591.200000
959.492354	2594.800000
961.674258	2599.200000
963.853688	2548.200000
966.030645	2578.600000
968.209010	2619.600000
970.388781	2660.000000
972.562204	2647.600000
974.738973	2653.200000
976.911336	2677.200000
979.085106	2643.400000
981.254472	2568.600000
983.427182	2537.800000
985.597426	2475.600000
987.767142	2337.800000
989.936329	2139.600000
992.101119	1994.400000
994.269251	1869.400000
996.432987	1782.000000
998.598131	1671.800000
1000.760815	1633.000000
1002.922974	1605.400000
1005.082675	1561.800000
1007.241853	1534.800000
1009.402437	1518.400000
1011.560566	1477.800000
1013.718171	1452.800000
1015.875253	1431.600000
1018.031812	1409.600000
1020.183991	1395.400000
1022.337577	1334.600000
1024.490640	1339.200000
1026.641256	1304.800000
1028.793277	1299.000000
1030.940925	1242.800000
1033.091905	1240.600000
1035.238515	1282.200000
1037.384605	1197.800000
1039.530177	1223.400000
1041.677153	1239.600000
1043.817842	1216.600000
1045.961859	1205.400000
1048.103437	1245.000000
1050.244497	1199.000000
1052.386962	1209.000000
1054.523148	1199.800000
1056.662660	1223.200000
1058.797816	1218.800000
1060.936297	1210.200000
1063.070425	1196.400000
1065.204039	1192.000000
1067.339057	1230.200000
1069.469726	1243.200000
1071.601801	1234.800000
1073.731445	1182.000000
1075.860578	1170.000000
1077.989200	1209.000000
1080.117310	1171.800000
1082.242994	1190.600000
1084.368168	1154.200000
1086.494745	1181.800000
1088.616986	1157.000000
1090.740631	1173.800000
1092.859941	1161.600000
1094.984480	1159.600000
1097.102775	1169.200000
1099.222473	1180.200000
1101.339753	1120.800000
1103.456527	1158.000000
1105.572794	1085.000000
1107.686646	1133.400000
1109.801901	1119.600000
1111.912834	1134.600000
1114.027078	1150.000000
1116.137003	1136.200000
1118.248330	1156.800000
1120.359154	1105.600000
1122.465661	1140.800000
1124.575477	1126.800000
1126.680979	1097.800000
1128.787885	1111.200000
1130.888574	1114.800000
1132.994476	1117.400000
1135.096069	1101.200000
1137.199065	1103.400000
1139.301560	1061.400000
1141.397849	1130.000000
1143.499344	1109.800000
1145.596537	1072.000000
1147.693231	1071.600000
1149.789428	1063.000000
1151.885126	1060.800000
1153.980327	1068.800000
1156.073131	1034.400000
1158.167337	1095.800000
1160.255352	1069.400000
1162.348565	1090.000000
1164.435590	1084.200000
1166.525915	1050.600000
1168.611951	1047.400000
1170.701285	1083.000000
1172.784438	1068.600000
1174.868994	1059.000000
1176.954950	1034.400000
1179.036625	1067.800000
1181.119702	1029.600000
1183.200393	1101.600000
1185.280593	1096.400000
1187.360301	1092.200000
1189.439518	1063.600000
1191.516352	1092.800000
1193.590806	1063.200000
1195.668552	1074.200000
1197.742027	1028.400000
1199.816904	1078.600000
1201.887513	1065.000000
1203.959523	1099.200000
1206.029157	1046.200000
1208.100192	1034.200000
1210.170739	1049.200000
1212.237025	1043.400000
1214.304712	999.000000
1216.370027	1038.200000
1218.436742	1024.800000
1220.499201	1052.200000
1222.564946	1042.600000
1224.626436	1069.400000
1226.689326	1062.600000
1228.749849	1015.400000
1230.809889	1026.600000
1232.869445	1025.600000
1234.926637	1029.600000
1236.983346	1065.000000
1239.037693	1018.600000
1241.095320	1038.400000
1243.150585	1039.600000
1245.201609	1076.400000
1247.254033	1025.200000
1249.305978	1036.600000
1251.355564	1063.600000
1253.404671	1019.800000
1255.453299	1038.400000
1257.501449	1036.200000
1259.549121	1072.400000
1261.592562	1055.600000
1263.639278	1054.600000
1265.683642	1057.000000
1267.727528	1081.200000
1269.769064	1093.200000
1271.808250	1019.600000
1273.850708	1079.800000
1275.888945	1060.000000
1277.928579	1132.400000
1279.967739	1069.400000
1282.002681	1081.800000
1284.039021	1075.400000
1286.073016	1069.800000
1288.108410	1091.400000
1290.139590	1074.800000
1292.172169	1094.000000
1294.204275	1113.600000
1296.234041	1093.600000
1298.265205	1065.200000
1300.292161	1078.200000
1302.320515	1080.800000
1304.344665	1052.200000
1306.372080	1067.400000
1308.395292	1037.600000
1310.419902	1061.600000
1312.442177	1047.200000
1314.465850	1072.400000
1316.487190	1081.400000
1318.508063	1082.400000
1320.528468	1090.400000
1322.544679	1111.000000
1324.562289	1091.200000
1326.577570	1088.800000
1328.596110	1129.400000
1330.610460	1151.000000
1332.622485	1149.200000
1334.637768	1112.000000
1336.648865	1162.200000
1338.661358	1189.600000
1340.669669	1184.000000
1342.681236	1169.800000
1344.686764	1186.200000
1346.695546	1129.400000
1348.700152	1158.600000
1350.708011	1156.200000
1352.715407	1116.000000
1354.716773	1108.800000
1356.719536	1063.800000
1358.721839	1101.000000
1360.723681	1131.800000
1362.725065	1078.600000
1364.724134	1139.200000
1366.722745	1127.800000
1368.720898	1099.600000
1370.718593	1085.800000
1372.712124	1044.000000
1374.707052	1098.000000
1376.701523	1060.800000
1378.695537	1082.800000
1380.687244	1053.200000
1382.678495	1080.600000
1384.667441	1029.600000
1386.657782	1045.000000
1388.647668	982.200000
1390.635251	1001.600000
1392.622380	1007.200000
1394.607207	1017.400000
1396.593429	987.000000
1398.577350	997.200000
1400.560819	981.600000
1402.543836	1012.800000
1404.524555	992.600000
1406.506668	1010.600000
1408.486484	994.200000
1410.465850	993.000000
1412.441077	977.800000
1414.419542	1041.200000
1416.395714	1026.600000
1418.371436	996.600000
1420.346709	986.200000
1422.319691	1005.000000
1424.292226	961.200000
1426.264312	1002.400000
1428.235950	962.400000
1430.203461	1027.200000
1432.176045	966.800000
1434.140823	991.400000
1436.110674	1028.200000
1438.076400	977.000000
1440.043520	981.800000
1442.008356	979.400000
1443.969072	949.400000
1445.934856	1013.600000
1447.894685	994.600000
1449.855907	1018.400000
1451.818522	1017.800000
1453.777022	1032.200000
1455.735080	994.800000
1457.692695	1053.600000
1459.649869	1060.800000
1461.604767	1033.800000
1463.561057	1045.800000
1465.515073	1069.800000
1467.468649	1067.400000
1469.419952	1086.800000
1471.372647	1045.400000
1473.323071	1075.400000
1475.273056	1082.800000
1477.222601	1050.400000
1479.169878	1022.600000
1481.114888	1051.600000
1483.061290	1026.800000
1485.007254	1039.800000
1486.952780	1036.800000
1488.896042	1021.200000
1490.838867	996.800000
1492.779429	1072.400000
1494.721382	1037.400000
1496.661074	1031.800000
1498.600330	1031.600000
1500.539152	1049.600000
1502.475714	1019.400000
1504.413666	1088.800000
1506.349361	1025.000000
1508.284622	1070.800000
1510.217626	1036.000000
1512.150198	1108.800000
1514.082338	1084.800000
1516.014046	1119.400000
1517.943501	1064.400000
1519.874345	1138.800000
1521.804759	1113.600000
1523.731100	1151.400000
1525.658831	1141.600000
1527.584312	1138.600000
1529.509364	1143.600000
1531.433987	1173.400000
1533.358181	1141.800000
1535.280128	1179.800000
1537.203464	1173.000000
1539.124555	1248.400000
1541.043401	1218.400000
1542.963637	1247.200000
1544.881629	1250.000000
1546.799195	1270.600000
1548.714519	1342.200000
1550.631233	1408.400000
1552.543892	1419.600000
1554.459755	1501.200000
1556.373379	1514.800000
1558.284764	1566.800000
1560.197538	1643.200000
1562.106263	1776.600000
1564.016378	1878.600000
1565.926069	2005.600000
1567.835336	2133.600000
1569.742370	2374.400000
1571.647171	2557.400000
1573.553361	2834.000000
1575.457319	3090.400000
1577.360857	3306.800000
1579.263973	3596.800000
1581.164861	3836.800000
1583.067137	3983.000000
1584.967184	4007.200000
1586.868620	3894.000000
1588.766021	3705.200000
1590.663005	3393.800000
1592.559570	3091.000000
1594.457522	2820.200000
1596.349640	2494.800000
1598.244952	2220.400000
1600.139845	2032.200000
1602.032517	1811.600000
1603.924773	1652.400000
1605.814809	1568.200000
1607.704429	1535.800000
1609.593634	1431.000000
1611.482423	1410.000000
1613.368996	1325.800000
1615.256955	1308.200000
1617.140899	1306.000000
1619.026229	1272.800000
1620.911146	1256.000000
1622.793849	1206.600000
1624.677938	1186.200000
1626.558017	1138.600000
1628.439482	1134.000000
1630.318737	1075.200000
1632.199378	1044.600000
1634.074215	989.200000
1635.954034	984.200000
1637.829847	978.800000
1639.705251	937.400000
1641.582040	970.600000
1643.453032	937.200000
1645.327206	956.600000
1647.197382	901.600000
1649.070738	893.600000
1650.941891	879.000000
1652.810842	889.600000
1654.681179	844.400000
1656.547522	865.000000
1658.415252	837.200000
1660.280782	852.000000
1662.147697	819.000000
1664.010624	853.600000
1665.874936	824.200000
1667.737053	812.000000
1669.598764	806.600000
1671.461860	825.200000
1673.322762	824.000000
1675.181470	819.000000
1677.039775	817.800000
1678.899465	809.600000
1680.753388	805.000000
1682.610483	801.400000
1684.467176	786.400000
1686.319893	782.600000
1688.175781	762.200000
1690.027695	809.800000
1691.879208	767.600000
1693.730320	739.800000
1695.581031	781.600000
1697.431342	772.200000
1699.279469	771.200000
1701.128979	770.600000
1702.972741	700.000000
1704.821453	756.200000
1706.664418	771.800000
1708.510549	772.400000
1710.352719	773.000000
1712.198053	778.000000
1714.037647	715.200000
1715.878625	754.200000
1717.720986	751.400000
1719.559391	755.400000
1721.399179	751.600000
1723.236792	772.200000
1725.074009	773.600000
1726.909053	762.600000
1728.745480	731.200000
1730.579735	761.200000
1732.413596	726.200000
1734.247062	701.400000
1736.076582	701.800000
1737.909261	680.800000
1739.737996	725.000000
1741.569889	696.800000
1743.397839	687.000000
1745.225397	744.400000
1747.052564	702.000000
1748.879338	720.600000
1750.705722	664.400000
1752.528169	731.600000
1754.353770	669.600000
1756.175437	736.200000
1757.998486	686.200000
1759.819374	724.400000
1761.639872	698.200000
1763.461752	710.600000
1765.277932	715.000000
1767.097264	722.000000
1768.912669	689.000000
1770.731225	735.000000
1772.545855	743.600000
1774.360098	735.200000
1776.173955	705.000000
1777.987425	701.200000
1779.798741	669.600000
1781.611439	718.800000
1783.423750	704.200000
1785.232144	699.600000
1787.041919	706.400000
1788.847778	701.400000
1790.656784	701.600000
1792.461876	725.000000
1794.268348	683.800000
1796.074437	723.200000
1797.876616	708.200000
1799.681938	694.600000
1801.483352	665.600000
1803.286146	711.000000
1805.085035	652.600000
1806.885303	685.200000
1808.685191	673.200000
1810.482936	705.000000
1812.280301	722.400000
1814.077285	691.600000
1815.873889	692.400000
1817.668354	663.400000
1819.464199	684.800000
1821.254388	705.600000
1823.049474	705.800000
1824.838907	689.800000
1826.631478	709.600000
1828.421913	696.600000
1830.210213	682.800000
1832.001649	719.600000
1833.787440	713.200000
1835.574609	733.400000
1837.359647	698.400000
1839.147819	704.600000
1840.932105	715.200000
1842.714262	683.800000
1844.497797	696.000000
1846.279205	750.600000
1848.061990	699.400000
1849.840896	725.000000
1851.621180	715.600000
1853.399339	736.600000
1855.178875	700.200000
1856.956287	742.800000
1858.731575	718.800000
1860.508242	717.000000
1862.282786	727.200000
1864.058707	728.800000
1865.829009	727.600000
1867.602438	741.000000
1869.373747	695.000000
1871.144685	727.400000
1872.917000	694.600000
1874.683703	699.200000
1876.453530	704.800000
1878.219494	745.200000
1879.988582	734.200000
1881.753808	726.400000
1883.518666	723.000000
1885.284900	741.600000
1887.047276	700.400000
1888.809285	700.800000
1890.570927	703.000000
1892.332201	697.400000
1894.093109	701.200000
1895.853649	705.800000
1897.612080	691.400000
1899.370146	684.600000
1901.126104	686.400000
1902.883438	689.400000
1904.640406	643.800000
1906.395269	654.800000
1908.148026	657.800000
1909.900420	649.600000
1911.654190	646.000000
1913.405856	684.400000
1915.155419	669.400000
1916.906359	663.600000
1918.656935	673.800000
1920.403673	683.800000
1922.151786	637.000000
1923.897800	670.400000
1925.645190	650.000000
1927.390481	664.800000
1929.133675	637.800000
1930.878245	647.600000
1932.620718	626.800000
1934.362831	656.600000
1936.104585	655.600000
1937.845978	687.200000
1939.585278	666.600000
1941.324219	678.600000
1943.062801	662.800000
1944.799291	664.200000
1946.535424	675.700000
1948.272931	687.200000
1950.006617	640.800000
1951.741677	686.400000
1953.474648	631.000000
1955.207263	671.000000
1956.939521	667.800000
1958.671423	679.000000
1960.401239	680.600000
1962.128971	660.400000
1963.858077	643.800000
1965.586827	686.800000
1967.313494	656.600000
1969.039807	641.000000
1970.767493	682.800000
1972.489643	669.000000
1974.214895	638.400000
1975.936339	675.400000
1977.660883	650.400000
1979.383348	652.800000
1981.102009	642.000000
1982.823769	667.000000
1984.541727	645.000000
1986.261059	660.600000
1987.976590	672.200000
1989.696943	655.400000
1991.413496	673.800000
1993.126254	661.600000
1994.842107	670.200000
1996.555888	676.600000
1998.269318	637.600000
1999.980678	697.200000
2001.693411	674.400000
2003.402352	666.000000
2005.114387	651.000000
2006.820912	655.800000
2008.530530	642.400000
2010.238080	657.800000
2011.945283	621.800000
2013.650420	673.200000
2015.355210	641.800000
2017.061372	681.800000
2018.763752	637.800000
2020.467504	680.000000
2022.169193	667.400000
2023.870536	683.600000
2025.571534	621.600000
2027.270472	639.000000
2028.970781	660.400000
2030.667314	652.000000
2032.365219	643.600000
2034.061066	672.600000
2035.759998	601.600000
2037.453444	634.000000
2039.148261	625.400000
2040.842735	673.000000
2042.533441	603.400000
2044.227231	644.400000
2045.917254	624.000000
2047.608648	653.400000
2049.297989	622.800000
2050.988700	640.200000
2052.675649	615.600000
2054.362257	649.800000
2056.050236	629.000000
2057.734455	672.400000
2059.420044	637.600000
2061.105294	643.200000
2062.788496	596.400000
2064.473068	682.200000
2066.152176	626.400000
2067.836070	621.400000
2069.514504	603.400000
2071.196015	594.000000
2072.873774	650.800000
2074.551197	648.200000
2076.229989	596.800000
2077.906738	648.400000
2079.581446	618.200000
2081.257523	643.600000
2082.931560	602.600000
2084.605261	629.000000
2086.278627	630.000000
2087.949955	650.800000
2089.620948	616.600000
2091.291607	640.000000
2092.961932	646.000000
2094.631922	667.400000
2096.299877	641.800000
2097.967499	642.000000
2099.633087	586.400000
2101.300043	625.600000
2102.964966	627.200000
2104.629556	620.000000
2106.292115	632.400000
2107.956043	626.200000
2109.617939	624.200000
2111.279504	647.400000
2112.940739	632.800000
2114.599944	635.000000
2116.258820	624.000000
2117.917365	628.200000
2119.575581	635.000000
2121.230074	627.800000
2122.887631	638.000000
2124.544858	602.400000
2126.198365	622.400000
2127.853239	653.800000
2129.504394	642.400000
2131.158612	658.200000
2132.809112	595.800000
2134.460980	603.400000
2136.107439	600.200000
2137.758652	607.600000
2139.406153	623.600000
2141.055020	643.800000
2142.701868	599.600000
2144.348391	611.600000
2145.994588	588.600000
2147.637076	643.600000
2149.282623	631.800000
2150.924463	619.400000
2152.569360	605.400000
2154.210552	605.600000
2155.851420	588.000000
2157.491965	639.200000
2159.130497	646.200000
2160.770395	624.000000
2162.406593	603.800000
2164.044157	636.400000
2165.681399	633.200000
2167.316631	600.400000
2168.951541	628.400000
2170.586130	663.600000
2172.220398	639.200000
2173.850972	614.000000
2175.484597	621.400000
2177.114531	636.600000
2178.745830	632.000000
2180.375125	629.400000
2182.004099	594.000000
2183.632755	633.000000
2185.261091	616.600000
2186.887424	615.800000
2188.513439	625.000000
2190.137453	636.800000
2191.762832	645.000000
2193.386210	655.200000
2195.010953	599.000000
2196.632014	639.400000
2198.252760	629.000000
2199.874869	595.600000
2201.494981	624.000000
2203.113097	620.800000
2204.730897	620.400000
2206.348381	648.200000
2207.965550	629.200000
2209.582404	657.400000
2211.198943	626.600000
2212.813488	650.800000
2214.426042	609.200000
2216.039959	621.400000
2217.651884	641.800000
2219.265174	648.400000
2220.876472	619.600000
2222.485782	631.200000
2224.096454	641.200000
2225.705138	605.600000
2227.313510	678.400000
2228.919894	644.400000
2230.527642	615.800000
2232.133403	663.400000
2233.738853	646.200000
2235.342319	626.800000
2236.947147	613.400000
2238.549991	606.000000
2240.150852	627.200000
2241.753076	642.400000
2243.353317	613.600000
2244.954922	613.600000
2246.552873	613.200000
2248.152187	593.400000
2249.749521	615.400000
2251.346547	629.000000
2252.944934	599.400000
2254.539673	621.400000
2256.132436	610.200000
2257.726560	607.600000
2259.322046	631.600000
2260.913888	621.400000
2262.505423	622.000000
2264.098319	629.400000
2265.685906	618.200000
2267.278190	580.400000
2268.865166	598.600000
2270.455171	655.600000
2272.039871	602.400000
2273.629265	628.400000
2275.213356	616.000000
2276.798809	615.600000
2278.382293	610.000000
2279.968802	630.200000
2281.551678	607.200000
2283.134250	594.800000
2284.716520	599.400000
2286.295159	630.400000
2287.876822	586.400000
2289.454858	619.400000
2291.035916	581.600000
2292.613347	586.900000
2294.188815	592.200000
2295.767305	602.200000
2297.342170	572.800000
2298.916735	563.200000
2300.491000	612.800000
2302.064964	586.600000
2303.638628	591.600000
2305.211991	540.000000
2306.781736	552.000000
2308.351182	578.000000
2309.923647	591.600000
2311.490837	564.600000
2313.061044	574.000000
2314.627637	571.200000
2316.195590	589.600000
2317.761588	579.400000
2319.327288	564.800000
2320.892690	623.800000
2322.456139	620.800000
2324.020947	606.600000
2325.582146	586.800000
2327.146360	663.000000
2328.705313	649.600000
2330.267279	684.400000
2331.827295	584.400000
2333.387015	607.200000
2334.944786	559.400000
2336.502263	568.800000
2338.059444	558.800000
2339.614679	580.200000
2341.169619	578.200000
2342.724266	603.000000
2344.278619	584.800000
2345.832678	587.600000
2347.386444	582.400000
2348.938265	605.800000
2350.488143	571.000000
2352.041029	568.000000
2353.588673	586.800000
2355.139324	602.000000
2356.686385	564.600000
2358.234803	579.600000
2359.782929	595.400000
2361.327468	589.600000
2362.873364	580.600000
2364.417321	593.800000
2365.962636	576.200000
2367.504366	629.400000
2369.047454	580.600000
2370.588605	591.400000
2372.129467	584.400000
2373.670040	635.000000
2375.210324	546.200000
2376.750319	611.600000
2378.286735	558.200000
2379.826153	584.000000
2381.361994	574.200000
2382.899191	587.600000
2384.432814	575.000000
2385.969436	625.000000
2387.504127	601.800000
2389.036889	601.200000
2390.569365	586.200000
2392.099912	634.600000
2393.633457	613.400000
2395.161791	574.800000
2396.691481	569.400000
2398.220886	618.200000
2399.750006	593.000000
2401.278840	598.600000
2402.802470	597.200000
2404.330735	623.400000
2405.853797	605.000000
2407.381494	610.600000
2408.902350	602.800000
2410.427840	632.600000
2411.949770	581.600000
2413.473054	613.600000
2414.994418	615.400000
2416.513862	624.400000
2418.034661	620.200000
2419.553541	641.000000
2421.072139	614.600000
2422.588820	664.800000
2424.106856	635.200000
2425.624610	636.600000
2427.138812	644.200000
2428.652734	675.200000
2430.166377	664.000000
2431.681373	695.000000
2433.192821	700.600000
2434.705624	713.000000
2436.216514	667.800000
2437.727124	682.200000
2439.235823	666.400000
2440.747509	696.400000
2442.255651	714.200000
2443.763514	722.600000
2445.271100	717.800000
2446.775146	760.600000
2448.282176	720.400000
2449.787298	736.200000
2451.292143	713.400000
2452.795081	716.200000
2454.297742	725.400000
2455.800127	742.000000
2457.300607	730.200000
2458.802440	705.400000
2460.302369	749.000000
2461.802022	722.600000
2463.301400	721.800000
2464.798875	684.600000
2466.294448	693.800000
2467.793001	680.400000
2469.288026	675.200000
2470.784403	694.200000
2472.277254	693.800000
2473.771457	684.800000
2475.265387	660.000000
2476.755794	681.200000
2478.249178	676.600000
2479.740663	663.800000
2481.230252	679.400000
2482.719570	679.000000
2484.206991	667.600000
2485.697388	679.200000
2487.184266	655.600000
2488.672496	681.600000
2490.157210	666.400000
2491.641653	667.400000
2493.127448	695.000000
2494.611350	606.600000
2496.096604	650.800000
2497.576724	628.200000
2499.059816	638.000000
2500.541018	657.200000
2502.021951	634.200000
2503.500995	608.600000
2504.979771	608.200000
2506.458278	601.800000
2507.936516	608.600000
2509.414486	626.400000
2510.888952	571.400000
2512.366386	640.000000
2513.840317	613.800000
2515.315599	643.400000
2516.790613	602.200000
2518.262126	616.400000
2519.734990	600.600000
2521.205971	583.800000
2522.678301	598.000000
2524.145519	593.200000
2525.615703	599.400000
2527.084005	570.000000
2528.552043	613.000000
2530.019816	605.800000
2531.487324	613.400000
2532.954567	585.800000
2534.418319	597.200000
2535.883420	589.200000
2537.346644	596.200000
2538.811217	611.800000
2540.272301	563.200000
2541.734736	606.400000
2543.196907	581.600000
2544.655591	598.000000
2546.118848	589.000000
2547.577008	626.600000
2549.036517	608.200000
2550.490933	625.200000
2551.949919	630.800000
2553.407032	603.000000
2554.862275	607.600000
2556.317257	598.000000
2557.770369	610.800000
2559.224830	643.800000
2560.677422	635.400000
2562.129754	646.600000
2563.580218	599.800000
2565.033638	609.800000
2566.481976	608.600000
2567.933270	654.400000
2569.382697	611.600000
2570.828653	622.000000
2572.277563	626.400000
2573.723002	633.200000
2575.169790	615.800000
2576.614714	621.400000
2578.059381	650.600000
2579.505395	638.400000
2580.947942	641.400000
2582.391837	645.200000
2583.832267	653.400000
2585.274045	651.400000
2586.713963	636.800000
2588.155228	665.400000
2589.593031	643.000000
2591.033784	684.400000
2592.469474	665.800000
2593.908114	696.000000
2595.344897	670.000000
2596.779823	651.400000
2598.217698	605.200000
2599.650515	673.200000
2601.084679	658.600000
2602.516988	702.000000
2603.950644	680.000000
2605.382447	670.600000
2606.813997	675.800000
2608.245293	700.000000
2609.674738	677.400000
2611.103930	694.000000
2612.531271	716.000000
2613.959959	735.600000
2615.388394	769.400000
2616.813383	741.400000
2618.239717	752.400000
2619.664203	803.400000
2621.090035	802.400000
2622.512423	809.800000
2623.936157	844.400000
2625.358045	855.200000
2626.779682	876.400000
2628.199474	877.800000
2629.620612	913.200000
2631.041500	920.200000
2632.458950	956.800000
2633.879339	1015.000000
2635.296291	1006.400000
2636.712995	1093.800000
2638.129450	1103.400000
2639.545657	1176.600000
2640.961615	1169.600000
2642.375733	1266.400000
2643.789604	1234.400000
2645.201635	1328.800000
2646.615011	1394.200000
2648.024957	1438.400000
2649.437839	1516.800000
2650.847292	1545.800000
2652.256499	1619.400000
2653.663870	1660.400000
2655.074175	1761.000000
2656.482644	1848.200000
2657.889278	1931.000000
2659.295667	1988.400000
2660.700222	2092.000000
2662.106121	2182.800000
2663.510187	2246.200000
2664.914009	2414.000000
2666.317586	2491.800000
2667.719331	2614.000000
2669.122420	2693.200000
2670.522092	2820.000000
2671.923107	2883.400000
2673.320705	2960.400000
2674.721234	3008.200000
2676.118348	3147.400000
2677.516805	3221.400000
2678.913434	3205.800000
2680.309822	3259.200000
2681.705967	3334.600000
2683.100286	3269.400000
2684.495948	3230.200000
2685.888200	3223.200000
2687.281796	3160.200000
2688.673567	3110.600000
2690.066680	3016.000000
2691.457970	2963.400000
2692.847437	2816.000000
2694.236665	2718.200000
2695.625652	2589.000000
2697.015982	2561.400000
2698.401327	2501.600000
2699.789597	2325.600000
2701.176046	2201.200000
2702.562256	2181.000000
2703.948227	2003.000000
2705.330800	1936.600000
2706.714714	1872.200000
2708.098391	1745.800000
2709.481830	1720.200000
2710.861873	1626.600000
2712.243258	1549.800000
2713.622827	1506.400000
2715.003738	1392.400000
2716.382834	1367.000000
2717.760115	1330.600000
2719.138738	1259.600000
2720.515548	1223.000000
2721.892122	1211.200000
2723.268460	1159.600000
2724.642986	1091.400000
2726.018853	1064.600000
2727.391333	1036.200000
2728.766730	1030.400000
2730.137165	943.800000
2731.508942	926.800000
2732.880485	901.400000
2734.250219	902.000000
2735.621293	832.600000
2736.990560	863.800000
2738.359593	826.000000
2739.726819	853.400000
2741.093813	769.600000
2742.460574	788.200000
2743.827102	767.000000
2745.191826	717.200000
2746.556317	683.600000
2747.920576	726.800000
2749.284604	728.000000
2750.648399	723.800000
2752.008821	659.800000
2753.372154	674.200000
2754.730544	652.000000
2756.091844	644.800000
2757.449773	658.200000
2758.810612	617.600000
2760.169650	633.200000
2761.525320	607.600000
2762.883899	557.400000
2764.239110	623.600000
2765.594092	578.200000
2766.947277	589.400000
2768.303369	602.000000
2769.656097	625.800000
2771.008596	582.600000
2772.360867	591.200000
2773.714477	570.400000
2775.064725	600.600000
2776.413180	568.200000
2777.764539	588.400000
2779.112539	538.800000
2780.461878	541.200000
2781.809424	545.800000
2783.156743	576.000000
2784.503836	537.800000
2785.849138	545.200000
2787.194214	539.200000
2788.539064	545.800000
2789.883688	522.000000
2791.224959	558.400000
2792.567569	577.800000
2793.909954	549.000000
2795.252113	521.400000
2796.590923	525.400000
2797.932633	555.200000
2799.270994	529.400000
2800.610693	533.600000
2801.948606	568.600000
2803.284735	533.400000
2804.620641	548.200000
2805.957883	561.800000
2807.293342	537.400000
2808.628578	541.000000
2809.962032	570.400000
2811.296822	537.000000
2812.628271	575.800000
2813.962616	539.000000
2815.292063	520.400000
2816.622847	511.200000
2817.953409	573.000000
2819.282192	558.000000
2820.612312	539.400000
2821.940652	536.000000
2823.268772	560.400000
2824.595115	526.200000
2825.922793	529.800000
2827.247139	495.400000
2828.572820	519.400000
2829.896727	497.000000
2831.220413	522.000000
2832.545435	482.400000
2833.867128	510.000000
2835.188601	506.800000
2836.509856	500.600000
2837.830892	502.800000
2839.150156	516.400000
2840.470755	460.000000
2841.789582	514.200000
2843.108191	503.400000
2844.425030	524.800000
2845.741651	502.200000
2847.058054	477.800000
2848.372689	484.400000
2849.688658	504.000000
2851.001307	483.800000
2852.315292	517.800000
2853.629060	497.200000
2854.942611	510.000000
2856.254395	467.400000
2857.564414	475.400000
2858.875767	477.600000
2860.183804	471.600000
2861.493177	492.200000
2862.802334	504.400000
2864.111276	483.600000
2865.418455	494.000000
2866.723870	473.600000
2868.030620	490.200000
2869.335607	449.400000
2870.640381	453.600000
2871.943393	489.800000
2873.249287	486.200000
2874.550326	478.800000
2875.852698	513.400000
2877.153311	505.200000
2878.455258	506.400000
2879.756992	447.200000
2881.055422	476.800000
2882.355185	462.000000
2883.653191	479.200000
2884.950985	442.400000
2886.247022	497.200000
2887.544393	451.200000
2888.840008	468.800000
2890.135413	464.000000
2891.430606	477.000000
2892.722501	466.800000
2894.017273	442.800000
2895.308749	490.000000
2896.601557	480.400000
2897.894155	464.200000
2899.183458	491.800000
2900.474094	434.800000
2901.762980	476.200000
2903.053197	464.400000
2904.340123	445.800000
2905.628381	474.200000
2906.914890	479.800000
2908.201190	452.600000
2909.487282	453.800000
2910.771626	459.600000
2912.058842	472.200000
2913.341231	451.200000
2914.624952	458.200000
2915.906926	452.000000
2917.188694	467.400000
2918.468716	446.000000
2919.751608	488.400000
2921.032755	498.800000
2922.310620	444.600000
2923.591354	481.800000
2924.868807	468.600000
2926.146055	465.800000
2927.421560	470.400000
2928.699933	459.600000
2929.973491	472.600000
2931.249917	474.600000
2932.524602	466.400000
2933.797547	436.000000
2935.071822	461.200000
2936.344358	481.200000
2937.616690	443.000000
2938.885749	425.000000
2940.157673	436.600000
2941.427859	450.600000
2942.697841	462.800000
2943.967620	412.600000
2945.235662	484.000000
2946.501969	457.400000
2947.768073	430.600000
2949.035508	450.600000
2950.301207	458.400000
2951.566704	463.800000
2952.831999	494.000000
2954.094030	451.200000
2955.357390	442.000000
2956.620549	423.800000
2957.881975	426.600000
2959.144731	436.600000
2960.405756	437.800000
2961.665050	439.800000
2962.924143	426.400000
2964.183036	422.000000
2965.441729	458.800000
2966.700222	439.800000
2967.956986	433.600000
2969.213551	421.600000
2970.468387	434.800000
2971.724553	467.600000
2972.977463	420.800000
2974.231703	448.200000
2975.485744	436.200000
2976.738059	423.400000
2977.990176	444.000000
2979.240568	419.600000
2980.493815	441.200000
2981.742285	409.600000
2982.993609	445.600000
2984.241685	430.600000
2985.489563	423.600000
2986.737244	409.000000
2987.984729	394.600000
2989.230492	429.200000
2990.476058	421.600000
2991.722953	419.800000
2992.966602	416.800000
2994.211580	381.000000
2995.453315	413.800000
2996.697901	392.400000
2997.940768	425.600000
2999.180393	406.000000
3000.422870	427.800000
3001.662106	389.400000
3002.902670	438.000000
3004.141517	443.800000
3005.380170	449.600000
3006.617107	387.800000
3007.855371	413.600000
3009.091921	428.400000
3010.328277	419.000000
3011.564439	398.200000
3012.798887	415.400000
3014.033142	413.000000
3015.267204	394.200000
3016.499554	426.000000
3017.730192	420.000000
3018.963676	404.400000
3020.195449	442.200000
3021.425510	370.200000
3022.655380	409.800000
3023.883540	432.800000
3025.113027	396.000000
3026.340804	384.200000
3027.568390	420.400000
3028.797302	400.600000
3030.021472	414.600000
3031.248485	397.200000
3032.472275	449.200000
3033.697390	403.800000
3034.920799	410.000000
3036.144019	398.000000
3037.365533	416.600000
3038.589888	398.600000
3039.809508	430.400000
3041.030454	400.400000
3042.251210	418.200000
3043.470263	398.200000
3044.690642	388.000000
3045.907804	430.200000
3047.126291	397.600000
3048.343077	399.000000
3049.559674	387.200000
3050.776084	411.400000
3051.989280	398.400000
3053.205314	395.600000
3054.418136	421.400000
3055.633795	395.400000
3056.844731	401.400000
3058.056993	397.600000
3059.269067	425.200000
3060.480955	418.800000
3061.691145	403.400000
3062.901150	426.400000
3064.110968	376.600000
3065.319090	414.600000
3066.527026	422.200000
3067.733268	402.200000
3068.940834	393.400000
3070.146705	390.600000
3071.352391	387.800000
3072.557893	393.600000
3073.761701	402.000000
3074.966833	377.400000
3076.170272	376.400000
3077.372019	371.000000
3078.573583	410.400000
3079.774963	380.000000
3080.976159	375.000000
3082.175665	386.600000
3083.374987	396.800000
3084.575633	355.800000
3085.774590	390.000000
3086.970351	370.200000
3088.168942	412.000000
3089.364339	383.600000
3090.561060	370.800000
3091.754588	376.800000
3092.950944	375.600000
3094.145613	346.000000
3095.337092	365.000000
3096.532902	346.800000
3097.724019	365.400000
3098.916459	383.000000
3100.105710	381.600000
3101.297788	392.800000
3102.488182	381.400000
3103.675389	368.600000
3104.863920	382.400000
3106.053773	377.600000
3107.240441	363.400000
3108.426930	338.600000
3109.613239	391.800000
3110.800871	350.800000
3111.985320	400.400000
3113.168089	335.000000
3114.353682	346.000000
3115.537594	363.600000
3116.719828	358.800000
3117.901884	373.600000
3119.083761	378.600000
3120.265460	391.200000
3121.445482	360.800000
3122.623826	372.000000
3123.804992	380.800000
3124.982982	384.800000
3126.160795	367.800000
3127.338431	349.800000
3128.514392	367.000000
3129.690177	369.000000
3130.867282	411.000000
3132.042714	359.400000
3133.216472	385.400000
3134.388557	342.200000
3135.561963	361.600000
3136.735194	341.800000
3137.906752	371.200000
3139.079632	330.800000
3140.249344	355.800000
3141.420377	334.000000
3142.589739	343.600000
3143.757432	355.200000
3144.927940	345.600000
3146.093789	353.600000
3147.263948	364.200000
3148.429449	346.200000
3149.594777	351.000000
3150.759931	356.000000
3151.924912	360.800000
3153.091212	371.400000
3154.252859	368.400000
3155.415827	386.800000
3156.578621	361.400000
3157.741243	351.200000
3158.902200	375.800000
3160.062984	356.000000
3161.223597	353.200000
3162.382545	327.600000
3163.541321	340.800000
3164.699926	339.200000
3165.858359	369.400000
3167.016620	354.800000
3168.173219	374.600000
3169.328157	338.600000
3170.484414	343.800000
3171.639011	343.600000
3172.793436	380.000000
3173.946202	326.200000
3175.098798	344.000000
3176.251224	340.200000
3177.403479	375.600000
3178.555565	317.200000
3179.704504	389.800000
3180.856250	348.000000
3182.006339	311.800000
3183.154770	373.600000
3184.303033	373.200000
3185.451127	336.200000
3186.599052	360.200000
3187.745321	345.800000
3188.891422	356.600000
3190.035869	329.600000
3191.180147	375.600000
3192.324258	322.400000
3193.469687	352.000000
3194.611977	326.000000
3195.754099	358.000000
3196.896055	348.600000
3198.037843	360.800000
3199.179464	337.600000
3200.317949	341.400000
3201.457753	303.800000
3202.598873	343.600000
3203.736859	330.800000
3204.873196	343.400000
3206.009367	337.200000
3207.146856	334.400000
3208.282696	335.000000
3209.419852	365.800000
3210.552397	310.800000
3211.689222	367.200000
3212.821436	335.000000
3213.954968	335.800000
3215.088334	326.200000
3216.218573	370.800000
3217.351611	330.600000
3218.481521	363.000000
3219.612749	331.600000
3220.740851	358.200000
3221.871751	351.400000
3223.001006	382.200000
3224.128617	374.400000
3225.253107	316.200000
3226.381872	360.600000
3227.507515	378.200000
3228.632995	371.800000
3229.756834	377.800000
3230.883468	384.000000
3232.005503	399.400000
3233.128855	365.600000
3234.252045	406.800000
3235.375073	404.400000
3236.496461	410.800000
3237.617688	406.800000
3238.737276	406.400000
3239.856703	415.400000
3240.974493	405.600000
3242.095074	418.000000
3243.212542	417.000000
3244.329849	419.200000
3245.446995	420.200000
3246.562506	405.200000
3247.679332	400.400000
3248.793047	369.800000
3249.909553	384.200000
3251.024423	363.200000
3252.136185	383.600000
3253.247788	393.200000
3254.360706	381.400000
3255.473464	371.000000
3256.583116	357.800000
3257.694083	329.400000
3258.804891	332.600000
3259.914067	331.800000
3261.021612	345.400000
3262.130472	329.200000
3263.239173	348.600000
3264.344772	319.000000
3265.451686	336.600000
3266.556970	316.800000
3267.663568	353.000000
3268.767066	303.200000
3269.871878	339.600000
3270.976533	317.400000
3272.078090	323.400000
3273.179490	304.400000
3274.282204	311.200000
3275.384761	326.800000
3276.484223	300.000000
3277.586467	290.200000
3278.685617	334.000000
3279.783141	310.200000
3280.880510	283.200000
3281.980662	290.000000
3283.077720	277.400000
3284.174624	296.000000
3285.271372	339.400000
3286.363561	305.400000
3287.460000	293.000000
3288.554816	273.200000
3289.649477	288.800000
3290.742517	292.200000
3291.835403	301.400000
3292.926668	266.200000
3294.019246	290.200000
3295.110204	285.200000
3296.199542	303.200000
3297.288727	259.600000
3298.379224	314.000000
3299.466637	229.800000
3300.553898	278.600000
3301.642471	287.800000
3302.730891	277.000000
3303.814764	285.000000
3304.902879	280.800000
3305.987913	289.600000
3307.071331	285.800000
3308.156061	296.800000
3309.239175	297.600000
3310.323601	275.200000
3311.404949	304.000000
3312.487609	246.200000
3313.568655	283.200000
3314.649550	282.000000
3315.728832	296.000000
3316.807963	269.400000
3317.888406	271.800000
3318.965774	293.800000
3320.044454	283.200000
3321.121522	278.200000
3322.198440	288.600000
3323.273748	269.400000
3324.348906	286.400000
3325.425375	265.800000
3326.498773	307.400000
3327.572023	299.200000
3328.646584	306.000000
3329.719535	261.000000
3330.790879	291.800000
3331.863533	269.200000
3332.933120	287.800000
3334.004018	275.800000
3335.073309	284.200000
3336.143911	283.000000
3337.212906	293.000000
3338.280295	289.600000
3339.346079	283.200000
3340.416089	255.800000
3341.483036	284.800000
3342.546921	277.800000
3343.613574	264.400000
3344.678623	264.000000
3345.742068	295.000000
3346.805366	263.000000
3347.868519	259.600000
3348.931525	253.600000
3349.994384	287.000000
3351.055642	284.000000
3352.113843	274.000000
3353.176265	268.400000
3354.235630	314.800000
3355.294851	282.400000
3356.355380	272.200000
3357.411400	258.800000
3358.470185	297.600000
3359.524462	263.600000
3360.581503	285.800000
3361.636945	259.000000
3362.693696	280.000000
3363.748850	268.400000
3364.802406	301.800000
3365.854365	277.800000
3366.909086	307.200000
3367.960759	262.800000
3369.012287	286.200000
3370.065125	310.600000
3371.114915	280.200000
3372.166014	269.800000
3373.214066	269.400000
3374.264879	261.200000
3375.312646	290.600000
3376.360271	289.400000
3377.407754	280.600000
3378.453643	258.800000
3379.500842	288.400000
3380.544997	252.800000
3381.591911	271.400000
3382.637233	252.200000
3383.679515	266.800000
3384.721655	259.400000
3385.765104	271.400000
3386.808411	264.600000
3387.850128	255.400000
3388.891704	283.400000
3389.933140	290.200000
3390.972987	261.800000
3392.011245	269.000000
3393.050811	272.600000
3394.090237	274.000000
3395.128075	261.200000
3396.164326	276.600000
3397.200437	263.400000
3398.237856	283.400000
3399.272242	272.400000
3400.307936	271.600000
3401.343490	288.200000
3402.376012	240.000000
3403.411288	258.200000
3404.443533	250.400000
3405.475640	274.600000
3406.506163	259.400000
3407.537994	274.400000
3408.569686	250.600000
3409.598350	262.600000
3410.626877	283.400000
3411.656710	251.600000
3412.686406	251.000000
3413.713075	270.000000
3414.741052	252.600000
3415.766004	256.400000
3416.793706	293.200000
3417.818385	253.800000
3418.844370	257.800000
3419.868776	288.200000
3420.893044	256.400000
3421.915734	230.200000
3422.938289	264.000000
3423.962148	266.400000
3424.982989	264.200000
3426.003693	227.000000
3427.025703	272.400000
3428.044695	265.000000
3429.063552	279.400000
3430.083715	247.200000
3431.100860	255.800000
