-118.155753	-6.637363
-115.486152	0.006593
-112.819487	3.831169
-110.153575	5.356643
-107.490594	5.103297
-104.826183	3.591409
-102.164703	1.341259
-99.501794	1.386014
-96.843992	-1.311888
-94.184759	-6.320280
-91.526275	-0.958042
-88.870716	-4.296503
-86.213728	-5.528671
-83.561837	-4.128671
-80.908517	-4.818182
-78.258117	-7.450350
-75.606287	-6.205594
-72.959548	-4.493706
-70.311379	-1.616783
-67.663954	1.644755
-65.019442	5.731469
-62.373501	5.502098
-59.732643	10.068531
-57.090354	8.591608
-54.450975	13.711888
-51.810167	15.718881
-49.170098	15.254545
-46.535103	13.289510
-43.898678	14.900699
-41.265157	12.791608
-38.630206	14.076923
-36.000322	13.521678
-33.366844	13.588811
-30.738429	7.812587
-28.110748	8.142657
-25.481639	5.447552
-22.857586	-18.594406
-20.229944	-126.584615
-17.607355	-310.661538
-14.985497	-494.374825
-12.364370	333.008392
-9.743974	1748.586014
-7.126465	2931.769231
-4.507528	3754.573427
-1.891477	4214.809790
0.723846	4314.102098
3.338442	4057.913287
5.950156	3449.037762
8.563297	2504.590210
11.171405	1294.923077
13.783095	79.637762
16.389754	-716.071329
18.997841	-434.555245
21.605204	-41.862937
24.207542	12.167832
26.813458	6.834965
29.414353	3.633566
32.016675	2.289510
34.613979	2.040559
37.214859	0.892308
39.810725	-1.530070
42.408018	-3.458741
45.004592	-4.241958
47.596157	-7.141259
50.189150	-1.103497
52.779282	0.488112
55.370842	1.532867
57.959542	3.205594
60.549670	8.962238
63.134798	10.558042
65.721354	10.001399
68.307195	6.900699
70.890183	3.400000
73.474598	4.588811
76.051883	3.548252
78.632735	3.766434
81.210738	8.798601
83.788031	7.132867
86.366750	8.797203
88.940488	10.306294
91.515652	8.153846
94.087973	5.429371
96.659587	5.246154
99.228360	3.118881
101.798560	1.302098
104.365921	5.594406
106.934709	6.763636
109.500659	6.047552
112.063775	11.132867
114.630448	10.963636
117.187898	11.744056
119.751034	10.591608
122.309211	14.616783
124.870942	23.538462
127.427716	47.434965
129.985916	70.327273
132.539164	105.383217
135.091713	150.805594
137.647814	203.275524
140.198966	257.260140
142.749420	313.338462
145.299178	362.204196
147.846116	400.833566
150.392358	429.155245
152.940027	451.401399
155.486999	459.874126
158.029035	469.391608
160.570378	460.902098
163.111029	457.479720
165.653104	454.138462
168.192369	453.286713
170.728824	449.914685
173.264589	446.339860
175.801779	443.190210
178.338277	438.612587
180.871971	435.626573
183.402860	432.269930
185.933061	427.128671
188.464687	426.552448
190.993513	418.467133
193.519539	420.548252
196.044879	417.331469
198.571644	418.692308
201.095613	415.860140
203.618896	417.948252
206.141495	417.346853
208.661301	419.026573
211.180424	417.278322
213.698864	420.535664
216.218728	425.716084
218.731591	432.159441
221.247985	429.558042
223.763698	439.206993
226.274520	443.528671
228.786767	454.019580
231.296231	454.546853
233.805017	464.342657
236.313125	464.265734
238.822657	468.248951
241.327308	464.588811
243.831283	469.423776
246.336682	471.629371
248.837206	473.128671
251.341253	469.760839
253.838330	472.874126
256.338929	469.916084
258.836757	468.806993
261.333912	460.453147
263.830394	463.779021
266.322014	463.601399
268.817152	464.388811
271.309525	461.226573
273.801227	469.837762
276.290166	467.903497
278.780528	471.737063
281.268129	475.895105
283.752970	474.629371
286.241325	472.313287
288.722742	481.065734
291.207672	487.851748
293.687756	504.015385
296.171353	512.730070
298.650108	519.770629
301.130285	526.591608
303.607711	527.521678
306.084473	521.097902
308.560571	525.393007
311.033921	526.720280
313.506610	526.450350
315.978637	526.311888
318.450002	533.916084
320.918624	533.037762
323.386586	530.839161
325.855971	519.148252
328.320533	507.987413
330.788598	494.572028
333.251844	481.699301
335.714433	474.404196
338.176364	466.834965
340.637639	462.534266
343.096180	460.815385
345.556143	454.310490
348.013374	452.669930
350.469950	447.767832
352.925871	440.503497
355.379064	437.331469
357.833679	433.804196
360.283492	428.734266
362.736801	428.197203
365.185311	425.523077
367.633171	418.611189
370.082452	414.387413
372.526940	407.990210
374.972850	399.636364
377.418111	398.138462
379.860653	390.065734
382.302547	387.774825
384.743793	391.665734
387.182324	393.907692
389.622277	386.783217
392.059516	387.820979
394.494043	383.036364
396.932058	382.036364
399.365296	381.651748
401.799956	378.387413
404.229843	374.219580
406.663215	374.579021
409.091816	371.668531
411.519777	377.748252
413.949158	378.661538
416.373775	381.027972
418.799812	373.265734
421.225210	375.479720
423.649967	369.158042
426.069965	371.404196
428.491385	368.600000
430.910108	366.131469
433.330252	356.839161
435.747701	357.036364
438.166570	356.626573
440.582746	352.958042
442.994175	342.544056
445.409080	337.296503
447.821295	327.903497
450.232876	318.125874
452.643823	305.447552
455.052084	298.372028
457.459713	290.423776
459.866709	288.334266
462.273073	283.093706
464.676756	289.360839
467.079808	290.420979
469.482230	290.741259
471.884022	289.453147
474.283136	293.394406
476.683670	294.334266
479.083575	296.913287
481.478757	297.089510
483.877406	300.688112
486.271335	307.362238
488.664638	322.095105
491.057315	334.123077
493.449367	347.173427
495.842838	362.481119
498.231596	394.893706
500.617688	451.902098
503.005200	567.139860
505.392088	803.882517
507.776313	1172.211189
510.161957	1627.917483
512.544938	2101.558042
514.925259	2525.658741
517.306999	2835.406993
519.686080	2980.853147
522.066580	2958.721678
524.444422	2780.620979
526.819609	2464.909091
529.194178	2069.951049
531.570166	1678.097902
533.943500	1373.574825
536.318253	1165.436364
538.688319	1029.581818
541.057770	934.303497
543.428640	866.682517
545.794828	807.069930
548.162435	748.190210
550.527396	704.588811
552.891744	670.121678
555.255480	636.029371
557.620633	609.240559
559.981114	589.492308
562.343012	567.488112
564.702271	552.142657
567.058891	534.048951
569.418957	520.742657
571.772331	505.258741
574.129150	490.285315
576.483334	472.911888
578.836909	461.725874
581.189876	451.285315
583.540212	443.748252
585.891964	433.415385
588.237040	426.106294
590.587580	414.328671
592.931447	410.854545
595.280775	400.365035
597.625454	398.184615
599.967509	386.177622
602.310981	381.011189
604.651830	386.738462
606.992076	393.777622
609.329702	404.469930
611.670763	412.889510
614.007187	421.506294
616.345027	432.471329
618.680249	434.069930
621.012856	434.560839
623.346880	423.555245
625.678289	421.047552
628.009100	403.223776
630.339313	390.290909
632.668929	382.580420
634.993921	369.809790
637.324355	361.804196
639.650167	357.674126
641.973373	351.475524
644.297995	350.574825
646.620011	340.236364
648.941433	339.027972
651.260252	335.966434
653.580487	335.633566
655.900129	328.081119
658.217170	330.268531
660.533620	331.366434
662.847471	331.899301
665.162737	335.155245
667.475407	339.629371
669.789492	334.565035
672.098978	336.083916
674.409878	326.625175
676.718186	329.713287
679.025906	327.409790
681.335041	321.918881
683.639583	316.534266
685.943539	317.170629
688.246908	309.149650
690.551692	302.369231
692.851890	298.717483
695.153503	296.518881
697.454530	286.609790
699.750976	281.804196
702.048836	279.299301
704.346114	285.528671
706.642807	289.282517
708.934925	287.549650
711.230454	284.311888
713.521410	285.969231
715.813780	280.839161
718.103574	278.920280
720.392789	280.433566
722.681423	279.801399
724.967486	276.307692
727.254962	281.372028
729.539868	282.226573
731.824195	284.709091
734.105955	280.292308
736.389128	280.420979
738.671724	280.377622
740.949764	281.415385
743.229218	277.994406
745.508097	278.163636
747.786400	278.134266
750.060154	276.468531
752.335322	277.700699
754.609916	278.527273
756.881951	269.553846
759.155399	267.142657
761.426289	259.664336
763.694622	262.504895
765.964370	264.008392
768.231562	268.113287
770.498184	268.321678
772.764237	269.860140
775.027738	266.895105
777.292651	270.440559
779.556996	271.776224
781.816810	270.306294
784.078038	266.279720
786.338698	262.742657
788.596811	257.914685
790.852380	256.952448
793.111340	262.555245
795.363801	264.040559
797.621629	263.054545
799.874938	262.359441
802.125706	264.009790
804.377887	270.135664
806.627530	270.148252
808.878584	266.664336
811.125127	263.500699
813.373083	259.591608
815.618503	254.689510
817.865336	253.402797
820.111606	251.095105
822.353373	245.963636
824.598522	242.720280
826.837199	239.402797
829.079259	242.981818
831.316820	244.451748
833.555792	242.818182
835.792238	241.176224
838.030096	240.008392
840.265428	241.486713
842.498236	239.054545
844.732456	243.118881
846.964154	237.181818
849.195297	241.409790
851.425885	238.579021
853.655919	239.503497
855.885398	238.320280
858.110397	236.265734
860.338769	232.657343
862.562663	235.373427
864.787967	235.328671
867.008796	241.015385
869.232997	245.067133
871.452725	250.588811
873.673864	248.590210
875.894452	257.194406
878.112531	252.366434
880.332019	252.125874
882.547041	247.650350
884.761515	244.952448
886.975442	240.795804
889.188821	242.053147
891.401654	237.853147
893.613939	238.489510
895.823723	235.946853
898.032961	233.239161
900.241653	231.597203
902.447847	233.071329
904.655450	231.204196
906.860556	236.358042
909.065118	238.465734
911.267185	240.320280
913.470661	243.613986
915.671643	249.860140
917.872083	252.272727
920.073932	261.318881
922.269390	269.588811
924.468206	286.191608
926.662585	304.194406
928.860321	332.355245
931.053621	363.857343
933.248329	400.471329
935.440552	428.720280
937.632237	456.690909
939.823384	478.134266
942.012048	492.893706
944.200175	499.009790
946.385822	505.251748
948.574821	505.348252
950.759397	507.731469
952.943438	509.514685
955.130829	515.032168
957.309917	518.113287
959.492354	526.013986
961.674258	527.351049
963.853688	532.655944
966.030645	529.630769
968.209010	529.844755
970.388781	529.264336
972.562204	530.179021
974.738973	529.569231
976.911336	527.339860
979.085106	519.022378
981.254472	510.125874
983.427182	495.450350
985.597426	475.269930
987.767142	451.606993
989.936329	425.874126
992.101119	392.746853
994.269251	371.657343
996.432987	348.773427
998.598131	329.860140
1000.760815	318.296503
1002.922974	307.753846
1005.082675	300.485315
1007.241853	302.434965
1009.402437	300.685315
1011.560566	301.944056
1013.718171	299.728671
1015.875253	293.987413
1018.031812	292.538462
1020.183991	298.008392
1022.337577	286.843357
1024.490640	281.272727
1026.641256	275.973427
1028.793277	269.972028
1030.940925	264.160839
1033.091905	261.386014
1035.238515	258.331469
1037.384605	260.896503
1039.530177	253.806993
1041.677153	254.377622
1043.817842	257.833566
1045.961859	259.653147
1048.103437	252.711888
1050.244497	254.583217
1052.386962	251.109091
1054.523148	248.172028
1056.662660	246.606993
1058.797816	245.979021
1060.936297	244.874126
1063.070425	245.279720
1065.204039	244.090909
1067.339057	249.720280
1069.469726	251.742657
1071.601801	257.732867
1073.731445	259.593007
1075.860578	258.921678
1077.989200	258.043357
1080.117310	254.019580
1082.242994	254.479720
1084.368168	248.047552
1086.494745	242.728671
1088.616986	236.994406
1090.740631	231.451748
1092.859941	230.296503
1094.984480	227.318881
1097.102775	231.541259
1099.222473	226.921678
1101.339753	225.225175
1103.456527	226.381818
1105.572794	223.258741
1107.686646	227.233566
1109.801901	229.813986
1111.912834	231.739860
1114.027078	232.577622
1116.137003	226.737063
1118.248330	229.843357
1120.359154	231.811189
1122.465661	234.482517
1124.575477	228.727273
1126.680979	228.605594
1128.787885	225.804196
1130.888574	225.699301
1132.994476	227.970629
1135.096069	231.432168
1137.199065	229.980420
1139.301560	232.820979
1141.397849	231.535664
1143.499344	237.278322
1145.596537	236.865734
1147.693231	236.753846
1149.789428	233.881119
1151.885126	230.222378
1153.980327	227.331469
1156.073131	227.991608
1158.167337	224.226573
1160.255352	223.299301
1162.348565	219.295105
1164.435590	219.572028
1166.525915	216.634965
1168.611951	217.062937
1170.701285	212.360839
1172.784438	210.363636
1174.868994	207.609790
1176.954950	206.485315
1179.036625	209.793007
1181.119702	216.738462
1183.200393	218.781818
1185.280593	223.082517
1187.360301	221.583217
1189.439518	225.910490
1191.516352	226.478322
1193.590806	231.444755
1195.668552	229.282517
1197.742027	224.262937
1199.816904	220.829371
1201.887513	216.518881
1203.959523	214.829371
1206.029157	214.583217
1208.100192	209.415385
1210.170739	209.902098
1212.237025	206.664336
1214.304712	210.151049
1216.370027	213.015385
1218.436742	216.486713
1220.499201	218.963636
1222.564946	216.043357
1224.626436	216.545455
1226.689326	212.306294
1228.749849	211.963636
1230.809889	208.257343
1232.869445	207.538462
1234.926637	213.296503
1236.983346	216.844755
1239.037693	225.850350
1241.095320	226.379021
1243.150585	228.226573
1245.201609	229.832168
1247.254033	226.665734
1249.305978	225.011189
1251.355564	218.998601
1253.404671	214.160839
1255.453299	209.215385
1257.501449	207.118881
1259.549121	213.460140
1261.592562	213.664336
1263.639278	217.755245
1265.683642	214.524476
1267.727528	221.674126
1269.769064	220.850350
1271.808250	225.630769
1273.850708	229.055944
1275.888945	229.353846
1277.928579	234.395804
1279.967739	235.268531
1282.002681	232.064336
1284.039021	232.560839
1286.073016	225.040559
1288.108410	228.489510
1290.139590	227.123077
1292.172169	223.962238
1294.204275	215.520280
1296.234041	218.598601
1298.265205	217.030769
1300.292161	218.976224
1302.320515	219.558042
1304.344665	219.732867
1306.372080	218.191608
1308.395292	217.696503
1310.419902	218.320280
1312.442177	225.802797
1314.465850	223.925874
1316.487190	220.549650
1318.508063	220.716084
1320.528468	229.597203
1322.544679	229.651748
1324.562289	234.078322
1326.577570	232.352448
1328.596110	233.334266
1330.610460	230.815385
1332.622485	232.760839
1334.637768	231.983217
1336.648865	238.071329
1338.661358	234.490909
1340.669669	235.475524
1342.681236	237.068531
1344.686764	239.665734
1346.695546	237.876923
1348.700152	236.285315
1350.708011	230.510490
1352.715407	223.987413
1354.716773	226.229371
1356.719536	228.377622
1358.721839	225.255944
1360.723681	228.730070
1362.725065	228.958042
1364.724134	231.478322
1366.722745	231.180420
1368.720898	229.390210
1370.718593	228.618182
1372.712124	223.993007
1374.707052	223.019580
1376.701523	224.075524
1378.695537	224.229371
1380.687244	219.801399
1382.678495	213.114685
1384.667441	208.418182
1386.657782	204.278322
1388.647668	200.055944
1390.635251	196.423776
1392.622380	194.201399
1394.607207	196.634965
1396.593429	198.448951
1398.577350	200.869930
1400.560819	204.012587
1402.543836	202.191608
1404.524555	203.904895
1406.506668	198.980420
1408.486484	198.325874
1410.465850	198.604196
1412.441077	200.373427
1414.419542	200.753846
1416.395714	201.137063
1418.371436	204.541259
1420.346709	202.422378
1422.319691	204.009790
1424.292226	206.230769
1426.264312	204.695105
1428.235950	203.285315
1430.203461	200.504895
1432.176045	203.226573
1434.140823	202.349650
1436.110674	200.569231
1438.076400	196.299301
1440.043520	194.802797
1442.008356	195.753846
1443.969072	198.563636
1445.934856	203.420979
1447.894685	204.939860
1449.855907	204.984615
1451.818522	206.159441
1453.777022	208.710490
1455.735080	212.165035
1457.692695	209.572028
1459.649869	212.504895
1461.604767	212.447552
1463.561057	213.366434
1465.515073	215.437762
1467.468649	219.149650
1469.419952	216.921678
1471.372647	221.395804
1473.323071	220.075524
1475.273056	221.572028
1477.222601	222.258741
1479.169878	226.111888
1481.114888	224.289510
1483.061290	226.668531
1485.007254	223.355245
1486.952780	219.855944
1488.896042	219.572028
1490.838867	214.665734
1492.779429	211.330070
1494.721382	214.800000
1496.661074	212.109091
1498.600330	214.693706
1500.539152	222.869930
1502.475714	227.036364
1504.413666	228.444755
1506.349361	227.825175
1508.284622	222.432168
1510.217626	220.100699
1512.150198	218.330070
1514.082338	211.904895
1516.014046	211.538462
1517.943501	213.654545
1519.874345	212.798601
1521.804759	219.060140
1523.731100	227.791608
1525.658831	229.372028
1527.584312	235.321678
1529.509364	235.250350
1531.433987	236.665734
1533.358181	241.511888
1535.280128	247.686713
1537.203464	251.832168
1539.124555	254.506294
1541.043401	256.921678
1542.963637	257.655944
1544.881629	263.604196
1546.799195	268.402797
1548.714519	273.509091
1550.631233	283.155245
1552.543892	291.227972
1554.459755	303.131469
1556.373379	316.076923
1558.284764	329.032168
1560.197538	343.064336
1562.106263	360.479720
1564.016378	383.135664
1565.926069	410.730070
1567.835336	447.577622
1569.742370	489.984615
1571.647171	539.668531
1573.553361	593.030769
1575.457319	650.318881
1577.360857	699.910490
1579.263973	746.447552
1581.164861	775.304895
1583.067137	794.387413
1584.967184	794.226573
1586.868620	780.183217
1588.766021	743.693706
1590.663005	698.745455
1592.559570	640.174825
1594.457522	579.283916
1596.349640	516.511888
1598.244952	464.451748
1600.139845	415.938462
1602.032517	380.500699
1603.924773	349.739860
1605.814809	329.297902
1607.704429	307.198601
1609.593634	296.972028
1611.482423	279.184615
1613.368996	275.565035
1615.256955	267.967832
1617.140899	264.496503
1619.026229	259.044755
1620.911146	257.707692
1622.793849	254.048951
1624.677938	250.398601
1626.558017	244.089510
1628.439482	236.593007
1630.318737	223.258741
1632.199378	216.054545
1634.074215	204.903497
1635.954034	203.979021
1637.829847	200.952448
1639.705251	199.706294
1641.582040	196.453147
1643.453032	193.437762
1645.327206	193.609790
1647.197382	191.395804
1649.070738	184.516084
1650.941891	183.218182
1652.810842	174.874126
1654.681179	173.711888
1656.547522	169.980420
1658.415252	172.741259
1660.280782	172.176224
1662.147697	170.153846
1664.010624	168.671329
1665.874936	171.146853
1667.737053	175.744056
1669.598764	176.893706
1671.461860	173.016783
1673.322762	172.465734
1675.181470	166.836364
1677.039775	168.107692
1678.899465	165.418182
1680.753388	166.861538
1682.610483	165.923077
1684.467176	162.958042
1686.319893	162.183217
1688.175781	162.209790
1690.027695	163.559441
1691.879208	164.847552
1693.730320	162.555245
1695.581031	159.581818
1697.431342	156.997203
1699.279469	159.917483
1701.128979	160.061538
1702.972741	160.942657
1704.821453	160.816783
1706.664418	161.275524
1708.510549	159.769231
1710.352719	160.009790
1712.198053	158.138462
1714.037647	154.240559
1715.878625	151.346853
1717.720986	151.096503
1719.559391	148.269930
1721.399179	148.234965
1723.236792	148.383217
1725.074009	149.427972
1726.909053	151.257343
1728.745480	152.510490
1730.579735	152.114685
1732.413596	155.545455
1734.247062	152.015385
1736.076582	152.022378
1737.909261	151.439161
1739.737996	152.772028
1741.569889	147.780420
1743.397839	147.576224
1745.225397	150.446154
1747.052564	155.946853
1748.879338	155.413986
1750.705722	152.790210
1752.528169	156.429371
1754.353770	162.001399
1756.175437	159.703497
1757.998486	161.662937
1759.819374	158.373427
1761.639872	153.867133
1763.461752	152.128671
1765.277932	150.934266
1767.097264	150.759441
1768.912669	153.422378
1770.731225	146.023776
1772.545855	144.772028
1774.360098	146.131469
1776.173955	148.713287
1777.987425	146.489510
1779.798741	151.335664
1781.611439	149.134266
1783.423750	151.613986
1785.232144	155.581818
1787.041919	155.198601
1788.847778	153.370629
1790.656784	152.279720
1792.461876	145.844755
1794.268348	145.918881
1796.074437	143.990210
1797.876616	144.156643
1799.681938	141.888112
1801.483352	145.819580
1803.286146	145.022378
1805.085035	149.061538
1806.885303	147.183217
1808.685191	145.788811
1810.482936	141.794406
1812.280301	146.001399
1814.077285	143.724476
1815.873889	145.956643
1817.668354	145.020979
1819.464199	142.264336
1821.254388	140.751049
1823.049474	144.391608
1824.838907	143.071329
1826.631478	146.453147
1828.421913	147.636364
1830.210213	150.202797
1832.001649	148.855944
1833.787440	154.173427
1835.574609	154.132867
1837.359647	150.697902
1839.147819	145.398601
1840.932105	143.337063
1842.714262	138.717483
1844.497797	136.328671
1846.279205	135.802797
1848.061990	137.345455
1849.840896	142.662937
1851.621180	146.462937
1853.399339	146.744056
1855.178875	150.688112
1856.956287	154.977622
1858.731575	155.790210
1860.508242	154.204196
1862.282786	157.311888
1864.058707	153.411189
1865.829009	154.840559
1867.602438	152.925874
1869.373747	152.583217
1871.144685	155.032168
1872.917000	152.509091
1874.683703	151.325874
1876.453530	153.632168
1878.219494	156.595804
1879.988582	157.243357
1881.753808	150.316084
1883.518666	148.613986
1885.284900	148.160839
1887.047276	148.725874
1888.809285	145.218182
1890.570927	148.780420
1892.332201	145.829371
1894.093109	147.032168
1895.853649	149.779021
1897.612080	150.847552
1899.370146	148.660140
1901.126104	144.188811
1902.883438	136.513287
1904.640406	133.553846
1906.395269	133.756643
1908.148026	134.811189
1909.900420	133.618182
1911.654190	136.939860
1913.405856	134.387413
1915.155419	136.004196
1916.906359	133.759441
1918.656935	134.085315
1920.403673	130.317483
1922.151786	126.820979
1923.897800	124.962238
1925.645190	128.728671
1927.390481	126.486713
1929.133675	128.843357
1930.878245	127.302098
1932.620718	128.602797
1934.362831	127.809790
1936.104585	127.020280
1937.845978	126.097902
1939.585278	131.130769
1941.324219	130.339860
1943.062801	134.000699
1944.799291	133.369231
1946.535424	137.181119
1948.272931	135.779021
1950.006617	136.516783
1951.741677	136.734266
1953.474648	137.028671
1955.207263	133.074126
1956.939521	133.252448
1958.671423	128.562238
1960.401239	129.386014
1962.128971	132.448951
1963.858077	137.090909
1965.586827	132.930070
1967.313494	139.478322
1969.039807	142.861538
1970.767493	145.511888
1972.489643	149.626573
1974.214895	149.679720
1975.936339	148.401399
1977.660883	147.579021
1979.383348	143.825175
1981.102009	142.216783
1982.823769	143.062937
1984.541727	138.360839
1986.261059	134.437762
1987.976590	137.310490
1989.696943	135.286713
1991.413496	135.107692
1993.126254	134.310490
1994.842107	134.446154
1996.555888	139.583217
1998.269318	140.639161
1999.980678	143.956643
2001.693411	140.794406
2003.402352	143.146853
2005.114387	139.683916
2006.820912	140.713287
2008.530530	140.772028
2010.238080	137.983217
2011.945283	138.241958
2013.650420	135.432168
2015.355210	136.181818
2017.061372	135.569231
2018.763752	135.032168
2020.467504	134.493706
2022.169193	135.100699
2023.870536	135.602797
2025.571534	134.043357
2027.270472	132.973427
2028.970781	130.818182
2030.667314	130.272727
2032.365219	130.379021
2034.061066	129.074126
2035.759998	131.612587
2037.453444	131.110490
2039.148261	133.879720
2040.842735	135.934266
2042.533441	137.503497
2044.227231	134.738462
2045.917254	136.816783
2047.608648	134.987413
2049.297989	133.646154
2050.988700	135.071329
2052.675649	136.576224
2054.362257	136.468531
2056.050236	141.899301
2057.734455	139.190210
2059.420044	139.556643
2061.105294	139.616783
2062.788496	137.502098
2064.473068	134.636364
2066.152176	133.632168
2067.836070	130.430769
2069.514504	129.850350
2071.196015	128.809790
2072.873774	130.411189
2074.551197	126.988811
2076.229989	130.260140
2077.906738	127.924476
2079.581446	130.001399
2081.257523	132.220979
2082.931560	135.324476
2084.605261	135.195804
2086.278627	134.225175
2087.949955	136.369231
2089.620948	138.517483
2091.291607	134.335664
2092.961932	136.097902
2094.631922	132.773427
2096.299877	131.913287
2097.967499	129.932867
2099.633087	129.246154
2101.300043	131.152448
2102.964966	131.078322
2104.629556	129.569231
2106.292115	129.602797
2107.956043	131.795804
2109.617939	133.275524
2111.279504	133.362238
2112.940739	135.811189
2114.599944	135.946853
2116.258820	137.619580
2117.917365	140.081119
2119.575581	143.956643
2121.230074	145.462937
2122.887631	144.678322
2124.544858	140.166434
2126.198365	140.569231
2127.853239	139.889510
2129.504394	141.997203
2131.158612	136.753846
2132.809112	130.464336
2134.460980	128.453147
2136.107439	130.408392
2137.758652	131.767832
2139.406153	134.367832
2141.055020	135.025175
2142.701868	135.904895
2144.348391	134.613986
2145.994588	139.367832
2147.637076	140.755245
2149.282623	141.615385
2150.924463	138.067133
2152.569360	134.730070
2154.210552	130.001399
2155.851420	133.380420
2157.491965	131.373427
2159.130497	130.488112
2160.770395	127.952448
2162.406593	127.788811
2164.044157	125.255944
2165.681399	126.815385
2167.316631	126.827972
2168.951541	126.854545
2170.586130	127.963636
2172.220398	125.948252
2173.850972	124.844755
2175.484597	130.924476
2177.114531	129.318881
2178.745830	132.316084
2180.375125	129.141259
2182.004099	126.499301
2183.632755	121.633566
2185.261091	121.558042
2186.887424	118.590210
2188.513439	120.813986
2190.137453	121.241958
2191.762832	124.107692
2193.386210	127.135664
2195.010953	133.686713
2196.632014	135.086713
2198.252760	138.370629
2199.874869	134.907692
2201.494981	133.148252
2203.113097	129.212587
2204.730897	128.574825
2206.348381	126.057343
2207.965550	128.393007
2209.582404	126.636364
2211.198943	131.749650
2212.813488	130.528671
2214.426042	133.163636
2216.039959	132.611189
2217.651884	135.966434
2219.265174	135.616783
2220.876472	135.057343
2222.485782	131.293706
2224.096454	132.478322
2225.705138	130.430769
2227.313510	130.516084
2228.919894	129.560839
2230.527642	132.327273
2232.133403	128.206993
2233.738853	130.608392
2235.342319	127.959441
2236.947147	130.173427
2238.549991	125.916084
2240.150852	125.099301
2241.753076	125.183217
2243.353317	127.932867
2244.954922	126.316084
2246.552873	127.552448
2248.152187	128.991608
2249.749521	132.152448
2251.346547	129.404196
2252.944934	131.367832
2254.539673	129.876923
2256.132436	135.598601
2257.726560	130.742657
2259.322046	129.549650
2260.913888	125.941259
2262.505423	125.658741
2264.098319	125.597203
2265.685906	126.000000
2267.278190	125.939860
2268.865166	128.426573
2270.455171	128.558042
2272.039871	134.041958
2273.629265	136.958042
2275.213356	142.135664
2276.798809	137.116084
2278.382293	137.669930
2279.968802	137.141259
2281.551678	136.288112
2283.134250	134.853147
2284.716520	132.202797
2286.295159	126.009790
2287.876822	124.846154
2289.454858	121.790210
2291.035916	123.125874
2292.613347	122.187413
2294.188815	125.997203
2295.767305	125.004196
2297.342170	130.068531
2298.916735	129.872727
2300.491000	131.065734
2302.064964	129.200000
2303.638628	127.106294
2305.211991	119.869930
2306.781736	116.390210
2308.351182	109.946853
2309.923647	109.720280
2311.490837	106.525874
2313.061044	106.927273
2314.627637	108.893706
2316.195590	111.300699
2317.761588	112.941259
2319.327288	118.765035
2320.892690	118.965035
2322.456139	125.166434
2324.020947	128.511888
2325.582146	129.276923
2327.146360	128.030769
2328.705313	129.447552
2330.267279	124.696503
2331.827295	121.574825
2333.387015	122.304895
2334.944786	119.145455
2336.502263	120.660140
2338.059444	121.724476
2339.614679	124.862937
2341.169619	131.983217
2342.724266	137.000000
2344.278619	138.969231
2345.832678	140.255944
2347.386444	141.095105
2348.938265	135.187413
2350.488143	129.230769
2352.041029	131.236364
2353.588673	131.048951
2355.139324	132.246154
2356.686385	131.290909
2358.234803	130.882517
2359.782929	134.549650
2361.327468	135.605594
2362.873364	135.041958
2364.417321	135.738462
2365.962636	134.299301
2367.504366	129.903497
2369.047454	129.341259
2370.588605	132.262937
2372.129467	134.765035
2373.670040	135.130070
2375.210324	136.358042
2376.750319	136.047552
2378.286735	138.139860
2379.826153	131.237762
2381.361994	129.292308
2382.899191	126.469930
2384.432814	124.188811
2385.969436	121.780420
2387.504127	122.608392
2389.036889	121.563636
2390.569365	124.183217
2392.099912	126.675524
2393.633457	131.735664
2395.161791	136.896503
2396.691481	138.895105
2398.220886	134.248951
2399.750006	135.172028
2401.278840	135.009790
2402.802470	135.253147
2404.330735	131.440559
2405.853797	130.872727
2407.381494	127.995804
2408.902350	126.335664
2410.427840	124.907692
2411.949770	128.883916
2413.473054	128.236364
2414.994418	127.309091
2416.513862	124.251748
2418.034661	125.902098
2419.553541	130.048951
2421.072139	131.797203
2422.588820	132.393007
2424.106856	134.341259
2425.624610	131.532867
2427.138812	132.739860
2428.652734	135.801399
2430.166377	142.572028
2431.681373	141.030769
2433.192821	144.728671
2434.705624	146.794406
2436.216514	153.420979
2437.727124	156.987413
2439.235823	158.827972
2440.747509	159.013986
2442.255651	156.945455
2443.763514	154.801399
2445.271100	159.114685
2446.775146	159.397203
2448.282176	157.388811
2449.787298	157.071329
2451.292143	159.634965
2452.795081	160.188811
2454.297742	160.158042
2455.800127	158.493706
2457.300607	158.448951
2458.802440	154.488112
2460.302369	151.076923
2461.802022	149.155245
2463.301400	148.499301
2464.798875	143.644755
2466.294448	143.153846
2467.793001	145.858741
2469.288026	150.250350
2470.784403	149.388811
2472.277254	147.085315
2473.771457	147.268531
2475.265387	144.956643
2476.755794	139.016783
2478.249178	138.732867
2479.740663	136.379021
2481.230252	135.765035
2482.719570	135.332867
2484.206991	136.237762
2485.697388	138.405594
2487.184266	144.026573
2488.672496	141.577622
2490.157210	140.148252
2491.641653	139.566434
2493.127448	139.690909
2494.611350	136.941259
2496.096604	134.055944
2497.576724	131.941259
2499.059816	133.151049
2500.541018	131.868531
2502.021951	135.386014
2503.500995	136.103497
2504.979771	139.433566
2506.458278	135.046154
2507.936516	134.916084
2509.414486	134.812587
2510.888952	134.074126
2512.366386	129.917483
2513.840317	127.103497
2515.315599	126.261538
2516.790613	125.612587
2518.262126	122.612587
2519.734990	126.332867
2521.205971	123.068531
2522.678301	123.057343
2524.145519	123.212587
2525.615703	124.605594
2527.084005	125.425175
2528.552043	131.102098
2530.019816	134.541259
2531.487324	136.279720
2532.954567	139.048951
2534.418319	138.325874
2535.883420	134.381818
2537.346644	132.351049
2538.811217	128.404196
2540.272301	127.688112
2541.734736	127.751049
2543.196907	124.244755
2544.655591	122.615385
2546.118848	127.088112
2547.577008	128.525874
2549.036517	133.381818
2550.490933	136.560839
2551.949919	134.972028
2553.407032	135.184615
2554.862275	134.134266
2556.317257	134.048951
2557.770369	130.748252
2559.224830	127.044755
2560.677422	121.774825
2562.129754	119.820979
2563.580218	120.457343
2565.033638	122.741259
2566.481976	126.606993
2567.933270	127.173427
2569.382697	129.903497
2570.828653	129.955245
2572.277563	129.127273
2573.723002	129.769231
2575.169790	130.746853
2576.614714	132.544056
2578.059381	133.530070
2579.505395	133.646154
2580.947942	138.139860
2582.391837	140.311888
2583.832267	140.918881
2585.274045	140.851748
2586.713963	144.460140
2588.155228	147.040559
2589.593031	149.306294
2591.033784	148.594406
2592.469474	151.138462
2593.908114	147.562238
2595.344897	145.423776
2596.779823	139.772028
2598.217698	139.359441
2599.650515	135.641958
2601.084679	134.359441
2602.516988	133.518881
2603.950644	135.232168
2605.382447	135.997203
2606.813997	137.591608
2608.245293	133.324476
2609.674738	136.787413
2611.103930	137.187413
2612.531271	139.039161
2613.959959	138.303497
2615.388394	146.436364
2616.813383	152.960839
2618.239717	157.476923
2619.664203	159.528671
2621.090035	162.882517
2622.512423	165.686713
2623.936157	170.587413
2625.358045	172.384615
2626.779682	176.809790
2628.199474	182.144056
2629.620612	185.137063
2631.041500	190.013986
2632.458950	199.611189
2633.879339	209.692308
2635.296291	218.728671
2636.712995	228.034965
2638.129450	237.278322
2639.545657	243.213986
2640.961615	250.834965
2642.375733	260.588811
2643.789604	264.839161
2645.201635	272.911888
2646.615011	284.096503
2648.024957	297.482517
2649.437839	311.366434
2650.847292	327.520280
2652.256499	343.001399
2653.663870	360.682517
2655.074175	378.734266
2656.482644	389.823776
2657.889278	407.187413
2659.295667	427.330070
2660.700222	442.928671
2662.106121	467.651748
2663.510187	497.433566
2664.914009	520.703497
2666.317586	538.739860
2667.719331	556.244755
2669.122420	574.148252
2670.522092	592.597203
2671.923107	615.404196
2673.320705	633.791608
2674.721234	654.914685
2676.118348	671.078322
2677.516805	685.983217
2678.913434	703.530070
2680.309822	713.137063
2681.705967	712.864336
2683.100286	707.991608
2684.495948	702.048951
2685.888200	692.800000
2687.281796	680.995804
2688.673567	674.158042
2690.066680	662.601399
2691.457970	643.269930
2692.847437	619.935664
2694.236665	596.248951
2695.625652	570.627972
2697.015982	540.344056
2698.401327	512.229371
2699.789597	489.492308
2701.176046	466.559441
2702.562256	447.330070
2703.948227	422.793007
2705.330800	408.283916
2706.714714	392.930070
2708.098391	374.353846
2709.481830	359.602797
2710.861873	343.172028
2712.243258	326.179021
2713.622827	305.991608
2715.003738	290.117483
2716.382834	280.906294
2717.760115	268.651748
2719.138738	264.318881
2720.515548	254.386014
2721.892122	250.542657
2723.268460	242.765035
2724.642986	236.917483
2726.018853	233.514685
2727.391333	223.770629
2728.766730	214.400000
2730.137165	204.117483
2731.508942	193.393007
2732.880485	187.335664
2734.250219	178.998601
2735.621293	174.843357
2736.990560	166.967832
2738.359593	165.144056
2739.726819	164.904895
2741.093813	165.106294
2742.460574	164.135664
2743.827102	163.949650
2745.191826	163.840559
2746.556317	160.332867
2747.920576	151.163636
2749.284604	147.451748
2750.648399	141.521678
2752.008821	135.558042
2753.372154	131.995804
2754.730544	131.132867
2756.091844	130.367832
2757.449773	131.078322
2758.810612	127.711888
2760.169650	127.492308
2761.525320	125.420979
2762.883899	121.212587
2764.239110	119.222378
2765.594092	122.496503
2766.947277	122.314685
2768.303369	125.641958
2769.656097	125.496503
2771.008596	123.763636
2772.360867	125.444755
2773.714477	127.581818
2775.064725	121.813986
2776.413180	121.408392
2777.764539	118.710490
2779.112539	119.197203
2780.461878	117.082517
2781.809424	116.072727
2783.156743	116.798601
2784.503836	118.587413
2785.849138	115.380420
2787.194214	116.293706
2788.539064	116.092308
2789.883688	118.013986
2791.224959	118.983217
2792.567569	123.064336
2793.909954	119.620979
2795.252113	120.051748
2796.590923	115.303497
2797.932633	115.619580
2799.270994	115.117483
2800.610693	114.352448
2801.948606	112.600000
2803.284735	116.009790
2804.620641	115.465734
2805.957883	117.127273
2807.293342	121.296503
2808.628578	123.654545
2809.962032	119.735664
2811.296822	120.106294
2812.628271	120.723077
2813.962616	124.584615
2815.292063	126.370629
2816.622847	127.318881
2817.953409	129.071329
2819.282192	135.755245
2820.612312	131.458741
2821.940652	126.530070
2823.268772	124.566434
2824.595115	117.093706
2825.922793	108.365035
2827.247139	102.216783
2828.572820	97.893706
2829.896727	97.759441
2831.220413	94.583217
2832.545435	92.394406
2833.867128	95.200000
2835.188601	100.116084
2836.509856	100.925874
2837.830892	106.639161
2839.150156	108.709091
2840.470755	112.230769
2841.789582	108.302098
2843.108191	109.774825
2844.425030	107.730070
2845.741651	110.234965
2847.058054	107.888112
2848.372689	106.881119
2849.688658	106.500699
2851.001307	108.502098
2852.315292	110.786014
2853.629060	114.144056
2854.942611	111.342657
2856.254395	116.212587
2857.564414	112.055944
2858.875767	111.500699
2860.183804	105.513287
2861.493177	107.521678
2862.802334	104.576224
2864.111276	102.279720
2865.418455	100.103497
2866.723870	100.071329
2868.030620	97.183217
2869.335607	101.769231
2870.640381	101.344056
2871.943393	109.141259
2873.249287	106.721678
2874.550326	104.327273
2875.852698	103.704895
2877.153311	104.597203
2878.455258	104.349650
2879.756992	107.439161
2881.055422	107.404196
2882.355185	111.942657
2883.653191	112.068531
2884.950985	114.587413
2886.247022	113.313287
2887.544393	112.938462
2888.840008	106.366434
2890.135413	104.615385
2891.430606	101.123077
2892.722501	98.923077
2894.017273	98.100699
2895.308749	98.641958
2896.601557	93.544056
2897.894155	93.774825
2899.183458	88.251748
2900.474094	88.755245
2901.762980	90.586014
2903.053197	88.362238
2904.340123	89.151049
2905.628381	92.890909
2906.914890	96.341259
2908.201190	103.963636
2909.487282	105.959441
2910.771626	106.018182
2912.058842	102.500699
2913.341231	103.549650
2914.624952	99.437762
2915.906926	96.939860
2917.188694	93.924476
2918.468716	91.752448
2919.751608	91.639161
2921.032755	92.813986
2922.310620	97.686713
2923.591354	103.051748
2924.868807	103.639161
2926.146055	106.320280
2927.421560	106.104895
2928.699933	107.420979
2929.973491	103.208392
2931.249917	100.272727
2932.524602	99.662937
2933.797547	97.625175
2935.071822	92.888112
2936.344358	94.320280
2937.616690	95.482517
2938.885749	97.945455
2940.157673	95.420979
2941.427859	97.911888
2942.697841	98.020979
2943.967620	99.493706
2945.235662	99.485315
2946.501969	99.394406
2947.768073	97.983217
2949.035508	94.576224
2950.301207	90.432168
2951.566704	90.495105
2952.831999	86.897902
2954.094030	88.202797
2955.357390	83.732867
2956.620549	86.612587
2957.881975	87.413986
2959.144731	87.963636
2960.405756	87.858741
2961.665050	91.703497
2962.924143	92.579021
2964.183036	93.121678
2965.441729	92.710490
2966.700222	89.902098
2967.956986	85.632168
2969.213551	85.942657
2970.468387	83.239161
2971.724553	83.854545
2972.977463	83.260140
2974.231703	85.376224
2975.485744	82.391608
2976.738059	90.123077
2977.990176	91.530070
2979.240568	93.885315
2980.493815	91.765035
2981.742285	90.637762
2982.993609	86.904895
2984.241685	86.111888
2985.489563	84.805594
2986.737244	87.595804
2987.984729	88.032168
2989.230492	89.755245
2990.476058	86.995804
2991.722953	91.811189
2992.966602	90.676923
2994.211580	92.565035
2995.453315	92.728671
2996.697901	96.751049
2997.940768	97.057343
2999.180393	104.048951
3000.422870	106.539860
3001.662106	105.868531
3002.902670	102.400000
3004.141517	102.289510
3005.380170	97.110490
3006.617107	92.744056
3007.855371	91.227972
3009.091921	91.871329
3010.328277	91.344056
3011.564439	93.029371
3012.798887	93.658741
3014.033142	102.419580
3015.267204	100.104895
3016.499554	98.046154
3017.730192	96.124476
3018.963676	94.402797
3020.195449	91.620979
3021.425510	91.980420
3022.655380	91.289510
3023.883540	90.602797
3025.113027	91.174825
3026.340804	93.443357
3027.568390	91.889510
3028.797302	97.197203
3030.021472	88.359441
3031.248485	87.181818
3032.472275	84.707692
3033.697390	80.651748
3034.920799	78.379021
3036.144019	76.232168
3037.365533	72.711888
3038.589888	72.573427
3039.809508	75.675524
3041.030454	79.528671
3042.251210	80.160839
3043.470263	86.890909
3044.690642	88.177622
3045.907804	92.753846
3047.126291	94.861538
3048.343077	94.848951
3049.559674	92.358042
3050.776084	92.000000
3051.989280	90.500699
3053.205314	88.212587
3054.418136	89.032168
3055.633795	86.847552
3056.844731	86.510490
3058.056993	86.931469
3059.269067	89.283916
3060.480955	86.250350
3061.691145	84.981818
3062.901150	84.374126
3064.110968	82.295105
3065.319090	86.313986
3066.527026	85.658741
3067.733268	86.662238
3068.940834	89.148252
3070.146705	89.393706
3071.352391	90.461538
3072.557893	87.079021
3073.761701	86.930070
3074.966833	82.729371
3076.170272	77.156643
3077.372019	73.744755
3078.573583	74.689510
3079.774963	78.022378
3080.976159	76.788811
3082.175665	80.746853
3083.374987	83.528671
3084.575633	89.211189
3085.774590	87.051748
3086.970351	85.454545
3088.168942	82.618182
3089.364339	81.032168
3090.561060	75.524476
3091.754588	76.292308
3092.950944	77.969231
3094.145613	79.606993
3095.337092	80.262937
3096.532902	82.009790
3097.724019	83.932867
3098.916459	86.216783
3100.105710	82.478322
3101.297788	85.823776
3102.488182	80.958042
3103.675389	81.707692
3104.863920	77.721678
3106.053773	80.331469
3107.240441	80.503497
3108.426930	78.669930
3109.613239	78.289510
3110.800871	80.360839
3111.985320	79.625175
3113.168089	79.626573
3114.353682	80.620979
3115.537594	80.662937
3116.719828	76.220979
3117.901884	80.309091
3119.083761	80.282517
3120.265460	82.006993
3121.445482	81.402797
3122.623826	81.685315
3123.804992	85.724476
3124.982982	84.527273
3126.160795	81.201399
3127.338431	79.583217
3128.514392	76.531469
3129.690177	71.453147
3130.867282	70.876923
3132.042714	71.823776
3133.216472	66.751049
3134.388557	63.110490
3135.561963	59.972028
3136.735194	63.255944
3137.906752	65.251748
3139.079632	66.081119
3140.249344	68.324476
3141.420377	69.616783
3142.589739	68.801399
3143.757432	71.545455
3144.927940	73.513287
3146.093789	69.531469
3147.263948	63.588811
3148.429449	63.008392
3149.594777	61.233566
3150.759931	62.939860
3151.924912	66.548252
3153.091212	72.434965
3154.252859	75.206993
3155.415827	73.798601
3156.578621	70.398601
3157.741243	74.965035
3158.902200	72.945455
3160.062984	68.130070
3161.223597	67.446154
3162.382545	71.145455
3163.541321	74.504895
3164.699926	76.707692
3165.858359	78.285315
3167.016620	80.653147
3168.173219	81.170629
3169.328157	75.495105
3170.484414	75.588811
3171.639011	80.039161
3172.793436	78.809790
3173.946202	76.930070
3175.098798	78.507692
3176.251224	81.144056
3177.403479	81.657343
3178.555565	81.637762
3179.704504	75.811189
3180.856250	74.478322
3182.006339	70.184615
3183.154770	68.586014
3184.303033	71.650350
3185.451127	70.766434
3186.599052	71.345455
3187.745321	68.434965
3188.891422	68.744056
3190.035869	72.260140
3191.180147	72.258741
3192.324258	72.861538
3193.469687	70.104895
3194.611977	72.949650
3195.754099	70.538462
3196.896055	74.991608
3198.037843	73.541259
3199.179464	70.348252
3200.317949	73.576224
3201.457753	70.566434
3202.598873	71.669930
3203.736859	74.763636
3204.873196	71.495105
3206.009367	69.629371
3207.146856	70.910490
3208.282696	74.671329
3209.419852	73.692308
3210.552397	76.626573
3211.689222	74.935664
3212.821436	78.773427
3213.954968	84.321678
3215.088334	85.409790
3216.218573	86.478322
3217.351611	83.269930
3218.481521	80.200000
3219.612749	80.179021
3220.740851	77.665734
3221.871751	78.953846
3223.001006	76.941259
3224.128617	77.832168
3225.253107	77.222378
3226.381872	81.914685
3227.507515	86.434965
3228.632995	91.000000
3229.756834	91.401399
3230.883468	89.469930
3232.005503	91.707692
3233.128855	89.573427
3234.252045	87.117483
3235.375073	88.893706
3236.496461	85.886713
3237.617688	88.065734
3238.737276	89.446154
3239.856703	92.795804
3240.974493	92.946853
3242.095074	99.348252
3243.212542	101.405594
3244.329849	102.634965
3245.446995	102.068531
3246.562506	95.942657
3247.679332	94.683916
3248.793047	91.990210
3249.909553	88.193007
3251.024423	89.018182
3252.136185	83.139860
3253.247788	77.226573
3254.360706	72.387413
3255.473464	74.528671
3256.583116	72.990210
3257.694083	74.482517
3258.804891	73.269930
3259.914067	71.054545
3261.021612	70.500699
3262.130472	71.538462
3263.239173	70.641958
3264.344772	69.546853
3265.451686	64.179021
3266.556970	61.832168
3267.663568	58.830769
3268.767066	60.734266
3269.871878	61.791608
3270.976533	63.474126
3272.078090	61.665734
3273.179490	61.160839
3274.282204	59.229371
3275.384761	60.583217
3276.484223	55.773427
3277.586467	55.360839
3278.685617	55.044755
3279.783141	54.697902
3280.880510	53.707692
3281.980662	57.692308
3283.077720	57.667133
3284.174624	59.874126
3285.271372	63.956643
3286.363561	66.794406
3287.460000	67.030769
3288.554816	70.304895
3289.649477	66.296503
3290.742517	66.795804
3291.835403	61.219580
3292.926668	57.802797
3294.019246	53.783217
3295.110204	49.745455
3296.199542	45.331469
3297.288727	50.949650
3298.379224	54.871329
3299.466637	60.179021
3300.553898	64.248951
3301.642471	69.787413
3302.730891	72.548252
3303.814764	74.770629
3304.902879	70.433566
3305.987913	73.903497
3307.071331	72.088112
3308.156061	65.993007
3309.239175	60.622378
3310.323601	62.755245
3311.404949	60.244755
3312.487609	64.423776
3313.568655	60.925874
3314.649550	61.200000
3315.728832	65.132867
3316.807963	62.848951
3317.888406	59.829371
3318.965774	61.451748
3320.044454	59.109091
3321.121522	57.306294
3322.198440	55.878322
3323.273748	60.204196
3324.348906	60.387413
3325.425375	62.219580
3326.498773	58.710490
3327.572023	60.490909
3328.646584	64.335664
3329.719535	61.145455
3330.790879	57.876923
3331.863533	57.632168
3332.933120	59.191608
3334.004018	58.605594
3335.073309	61.790210
3336.143911	62.875524
3337.212906	61.208392
3338.280295	59.581818
3339.346079	57.567832
3340.416089	60.255944
3341.483036	62.942657
3342.546921	63.062937
3343.613574	61.015385
3344.678623	64.654545
3345.742068	69.620979
3346.805366	72.907692
3347.868519	75.604196
3348.931525	76.903497
3349.994384	76.808392
3351.055642	74.553846
3352.113843	69.246154
3353.176265	69.206993
3354.235630	64.974825
3355.294851	58.986014
3356.355380	52.737063
3357.411400	55.872727
3358.470185	55.531469
3359.524462	59.591608
3360.581503	59.324476
3361.636945	63.153846
3362.693696	62.365035
3363.748850	61.296503
3364.802406	61.083916
3365.854365	66.974825
3366.909086	63.344056
3367.960759	59.918881
3369.012287	57.156643
3370.065125	58.507692
3371.114915	55.679720
3372.166014	56.314685
3373.214066	51.581818
3374.264879	52.239161
3375.312646	51.506294
3376.360271	52.611189
3377.407754	55.704895
3378.453643	58.696503
3379.500842	51.222378
3380.544997	52.425175
3381.591911	51.359441
3382.637233	54.253147
3383.679515	51.132867
3384.721655	48.209790
3385.765104	47.419580
3386.808411	51.062937
3387.850128	51.180420
3388.891704	57.490909
3389.933140	58.962238
3390.972987	60.493706
3392.011245	57.076923
3393.050811	65.211189
3394.090237	65.534266
3395.128075	67.597203
3396.164326	62.576224
3397.200437	57.275524
3398.237856	56.942657
3399.272242	55.840559
3400.307936	50.176224
3401.343490	55.268531
3402.376012	54.415385
3403.411288	57.408392
3404.443533	56.044755
3405.475640	65.788811
3406.506163	69.068531
3407.537994	71.927273
3408.569686	69.015385
3409.598350	64.900699
3410.626877	65.686713
3411.656710	61.240559
3412.686406	56.850350
3413.713075	60.641958
3414.741052	58.830769
3415.766004	56.523077
3416.793706	54.019580
3417.818385	59.166434
3418.844370	56.634965
3419.868776	55.173427
3420.893044	50.858741
3421.915734	50.120280
3422.938289	50.033566
3423.962148	51.601399
3424.982989	53.268531
3426.003693	55.114885
3427.025703	57.704845
3428.044695	61.178621
3429.063552	65.676424
3430.083715	71.338462
3431.100860	78.304945
