-118.702670	-5.001648
-116.033069	12.356044
-113.366404	24.309790
-110.700491	31.669730
-108.037511	35.246004
-105.373100	35.848751
-102.711620	34.288112
-100.048711	33.928671
-97.390908	27.255944
-94.731676	25.462937
-92.073192	21.611189
-89.417633	25.198601
-86.760644	26.388811
-84.108754	27.587413
-81.455434	24.251748
-78.805033	25.709091
-76.153204	31.387413
-73.506465	31.661538
-70.858296	32.002797
-68.210870	33.074126
-65.566359	34.400000
-62.920418	35.806993
-60.279559	39.040559
-57.637271	37.002797
-54.997892	39.600000
-52.357084	38.779021
-49.717015	39.874126
-47.082020	38.553846
-44.445595	43.170629
-41.812073	44.320280
-39.177123	51.772028
-36.547239	59.669930
-33.913761	70.324476
-31.285346	77.822378
-28.657665	76.169231
-26.028555	51.030769
-23.404503	-87.295105
-20.776860	-693.563636
-18.154272	-1784.906294
-15.532414	-2031.219580
-12.911287	690.535664
-10.290891	8157.233566
-7.673382	14764.462937
-5.054445	19488.313287
-2.438394	22284.085315
0.176930	23134.921678
2.791525	22047.179021
5.403239	19043.360839
8.016381	14204.358042
10.624489	7874.072727
13.236178	1406.823776
15.842837	-2790.647552
18.450925	-3081.177622
21.058287	-386.138462
23.660625	66.551049
26.266542	79.356643
28.867436	75.806993
31.469758	65.352448
34.067062	58.313287
36.667943	50.379021
39.263808	48.005594
41.861101	40.861538
44.457675	43.420979
47.049240	40.993007
49.642234	37.896503
52.232366	33.688112
54.823925	35.236364
57.412626	37.034965
60.002753	37.527273
62.587881	34.693706
65.174437	39.647552
67.760278	41.223776
70.343266	43.640559
72.927681	44.762238
75.504967	50.630769
78.085818	51.043357
80.663822	47.790210
83.241114	44.841958
85.819834	45.490909
88.393571	43.794406
90.968735	42.191608
93.541056	41.542657
96.112670	46.464336
98.681443	45.737063
101.251643	49.317483
103.819004	50.707692
106.387792	55.181818
108.953743	58.337063
111.516859	62.776224
114.083531	75.124476
116.640981	88.204196
119.204117	121.546853
121.762294	169.123077
124.324025	259.707692
126.880799	400.942657
129.438999	628.686713
131.992247	948.672727
134.544797	1370.096503
137.100897	1872.145455
139.652049	2422.275524
142.202504	3004.907692
144.752261	3542.211189
147.299199	3984.886713
149.845442	4313.363636
152.393110	4519.267133
154.940082	4627.844755
157.482118	4641.510490
160.023462	4608.576224
162.564112	4548.760839
165.106187	4483.027972
167.645452	4433.018182
170.181907	4408.711888
172.717672	4404.067133
175.254862	4377.660140
177.791361	4354.324476
180.325054	4322.988811
182.855943	4309.422378
185.386144	4293.737063
187.917771	4270.616783
190.446596	4251.727273
192.972622	4238.777622
195.497962	4230.802797
198.024727	4244.527273
200.548696	4249.763636
203.071979	4248.646154
205.594578	4250.285315
208.114384	4261.272727
210.633507	4275.316084
213.151947	4303.429371
215.671812	4337.135664
218.184674	4390.050350
220.701068	4448.994406
223.216781	4523.092308
225.727603	4595.981818
228.239850	4663.848951
230.749314	4715.145455
233.258100	4759.068531
235.766208	4787.486713
238.275740	4797.083916
240.780391	4803.706294
243.284366	4798.997203
245.789765	4785.180420
248.290289	4777.327273
250.794336	4745.998601
253.291413	4731.679720
255.792012	4697.766434
258.289840	4679.030769
260.786995	4670.351049
263.283478	4672.923077
265.775097	4683.151049
268.270236	4708.183217
270.762608	4736.763636
273.254310	4776.956643
275.743249	4823.593007
278.233611	4862.257343
280.721212	4896.591608
283.206053	4937.544056
285.694409	4970.461538
288.175825	5029.474126
290.660755	5121.142657
293.140839	5214.776224
295.624436	5311.499301
298.103191	5387.335664
300.583368	5423.786014
303.060794	5426.030769
305.537556	5403.079720
308.013654	5346.704895
310.487004	5308.606993
312.959693	5264.983217
315.431720	5214.450350
317.903085	5183.241958
320.371707	5157.910490
322.839669	5121.089510
325.309054	5080.131469
327.773616	5010.078322
330.241682	4909.351049
332.704927	4806.991608
335.167516	4725.276923
337.629448	4663.230769
340.090723	4626.358042
342.549263	4589.737063
345.009226	4534.616783
347.466457	4499.283916
349.923033	4451.225175
352.378955	4413.039161
354.832147	4370.159441
357.286762	4311.131469
359.736575	4244.972028
362.189884	4193.608392
364.638394	4142.128671
367.086254	4087.958042
369.535536	4033.790210
371.980023	3979.534266
374.425933	3922.104895
376.871194	3875.681119
379.313736	3837.479720
381.755630	3804.026573
384.196876	3769.005594
386.635408	3738.841958
389.075360	3722.446154
391.512599	3702.261538
393.947127	3692.683916
396.385141	3684.581818
398.818380	3688.558042
401.253039	3682.890909
403.682926	3679.138462
406.116298	3672.200000
408.544900	3672.511888
410.972860	3664.987413
413.402241	3661.963636
415.826858	3656.793007
418.252895	3642.597203
420.678293	3611.454545
423.103050	3597.468531
425.523048	3576.358042
427.944468	3544.174825
430.363192	3508.172028
432.783335	3463.402797
435.200784	3400.446154
437.619654	3336.034965
440.035829	3260.468531
442.447258	3177.269930
444.862163	3090.798601
447.274378	3007.156643
449.685960	2937.026573
452.096907	2881.250350
454.505167	2843.425175
456.912796	2808.402797
459.319792	2806.647552
461.726157	2816.099301
464.129839	2832.085315
466.532891	2862.703497
468.935313	2884.380420
471.337105	2908.773427
473.736219	2943.839161
476.136753	2985.195804
478.536658	3026.302098
480.931841	3069.153846
483.330489	3119.342657
485.724418	3165.632168
488.117721	3224.594406
490.510399	3314.800000
492.902451	3438.972028
495.295921	3624.753846
497.684679	3983.839161
500.070771	4744.892308
502.458283	6327.819580
504.845172	9273.321678
507.229396	13520.404196
509.615040	18595.286713
511.998022	23599.890909
514.378342	27833.236364
516.760083	30736.162238
519.139164	31984.016783
521.519663	31428.576224
523.897506	29174.886713
526.272692	25631.058741
528.647261	21450.046154
531.023249	17527.868531
533.396584	14529.051748
535.771336	12480.584615
538.141402	11146.711888
540.510854	10136.927273
542.881723	9349.899301
545.247911	8690.474126
547.615518	8138.716084
549.980479	7681.748252
552.344828	7286.826573
554.708563	6961.500699
557.073716	6671.904895
559.434197	6441.672727
561.796095	6214.429371
564.155354	6022.290909
566.511974	5840.742657
568.872040	5664.602797
571.225414	5479.781818
573.582233	5311.959441
575.936417	5171.429371
578.289992	5041.241958
580.642960	4926.728671
582.993295	4822.823776
585.345048	4722.865734
587.690124	4631.636364
590.040663	4540.633566
592.384530	4463.409790
594.733858	4380.951049
597.078537	4321.593007
599.420592	4278.057343
601.764064	4294.146853
604.104913	4353.843357
606.445159	4461.006993
608.782785	4601.476923
611.123846	4730.934266
613.460270	4841.583217
615.798110	4897.106294
618.133333	4889.948252
620.465939	4816.974825
622.799963	4677.527273
625.131372	4524.496503
627.462183	4347.827972
629.792396	4195.081119
632.122012	4083.988811
634.447004	4018.951049
636.777438	3972.219580
639.103251	3949.921678
641.426456	3940.441958
643.751078	3926.137063
646.073094	3908.450350
648.394516	3902.272727
650.713335	3891.461538
653.033571	3889.376224
655.353212	3888.359441
657.670254	3893.034965
659.986703	3902.611189
662.300554	3925.453147
664.615821	3935.958042
666.928491	3940.718881
669.242576	3939.648951
671.552061	3921.776224
673.862962	3894.569231
676.171270	3860.074126
678.478989	3808.232168
680.788124	3744.545455
683.092666	3684.373427
685.396622	3613.043357
687.699991	3556.679720
690.004776	3522.949650
692.304973	3466.786014
694.606586	3411.516084
696.907613	3366.433566
699.204059	3320.416783
701.501920	3280.404196
703.799197	3251.383217
706.095891	3226.679720
708.388009	3210.218182
710.683538	3213.565035
712.974493	3223.145455
715.266863	3242.173427
717.556657	3271.706294
719.845872	3285.918881
722.134507	3302.177622
724.420569	3310.549650
726.708045	3300.787413
728.992951	3290.349650
731.277279	3263.144056
733.559038	3224.744056
735.842211	3191.013986
738.124807	3147.720280
740.402847	3106.745455
742.682301	3067.376224
744.961180	3051.640559
747.239484	3043.193007
749.513237	3038.362238
751.788405	3037.346853
754.062999	3042.050350
756.335034	3054.330070
758.608482	3057.032168
760.879372	3068.920280
763.147706	3076.903497
765.417453	3065.054545
767.684645	3067.949650
769.951268	3064.627972
772.217320	3063.751049
774.480821	3061.551049
776.745734	3050.419580
779.010079	3045.833566
781.269893	3036.657343
783.531121	3036.026573
785.791781	3037.376224
788.049895	3036.151049
790.305464	3025.521678
792.564423	3009.867133
794.816884	3014.562238
797.074712	3003.770629
799.328021	2992.643357
801.578790	2976.352448
803.830971	2967.826573
806.080613	2964.658741
808.331667	2951.790210
810.578210	2953.387413
812.826166	2954.043357
815.071586	2946.005594
817.318419	2936.258741
819.564689	2925.352448
821.806456	2931.604196
824.051605	2919.008392
826.290283	2916.439161
828.532342	2891.654545
830.769903	2884.937063
833.008876	2873.179021
835.245322	2846.774825
837.483179	2842.349650
839.718511	2840.179021
841.951320	2842.672727
844.185539	2854.004196
846.417237	2862.092308
848.648380	2879.843357
850.878968	2875.370629
853.109002	2873.976224
855.338481	2855.380420
857.563480	2845.615385
859.791852	2829.490909
862.015746	2800.955245
864.241051	2789.745455
866.461880	2786.265734
868.686081	2788.397203
870.905809	2802.833566
873.126947	2815.485315
875.347535	2819.566434
877.565614	2823.188811
879.785102	2822.181818
882.000124	2814.969231
884.214598	2807.197203
886.428525	2801.695105
888.641904	2794.634965
890.854737	2793.559441
893.067022	2799.709091
895.276806	2796.679720
897.486044	2808.187413
899.694737	2818.524476
901.900930	2820.752448
904.108533	2829.741259
906.313639	2829.490909
908.518201	2833.953846
910.720268	2840.328671
912.923744	2867.618182
915.124726	2903.092308
917.325166	2955.123077
919.527015	3035.033566
921.722473	3159.060140
923.921289	3339.674126
926.115668	3572.783217
928.313404	3849.092308
930.506704	4154.742657
932.701413	4473.394406
934.893635	4776.623776
937.085320	5043.815385
939.276467	5255.330070
941.465131	5394.443357
943.653259	5469.653147
945.838905	5509.074126
948.027905	5511.545455
950.212480	5492.927273
952.396521	5481.251748
954.583913	5478.841958
956.763000	5497.027972
958.945438	5535.458741
961.127342	5580.636364
963.306771	5642.208392
965.483728	5699.023776
967.662093	5745.109091
969.841865	5789.346853
972.015288	5833.218182
974.192057	5848.820979
976.364419	5833.093706
978.538189	5764.324476
980.707555	5634.651748
982.880265	5443.593007
985.050510	5200.998601
987.220225	4921.846154
989.389412	4640.853147
991.554202	4354.030769
993.722334	4098.671329
995.886070	3899.672727
998.051214	3754.226573
1000.213898	3657.797203
1002.376057	3585.158042
1004.535759	3519.057343
1006.694936	3457.234965
1008.855520	3380.247552
1011.013649	3302.524476
1013.171255	3217.800000
1015.328337	3137.590210
1017.484895	3051.521678
1019.637074	2984.444755
1021.790660	2919.739860
1023.943724	2861.309091
1026.094339	2818.857343
1028.246360	2783.832168
1030.394009	2755.755245
1032.544989	2736.983217
1034.691598	2711.071329
1036.837688	2697.622378
1038.983260	2676.911888
1041.130237	2670.790210
1043.270925	2664.942657
1045.414942	2661.816783
1047.556520	2651.330070
1049.697580	2651.562238
1051.840046	2652.408392
1053.976231	2649.296503
1056.115743	2650.848951
1058.250899	2648.173427
1060.389380	2639.283916
1062.523508	2635.749650
1064.657122	2620.227972
1066.792140	2617.337063
1068.922810	2608.289510
1071.054884	2596.952448
1073.184528	2580.395804
1075.313661	2578.594406
1077.442283	2559.604196
1079.570393	2550.510490
1081.696077	2541.826573
1083.821251	2534.268531
1085.947829	2538.037762
1088.070069	2541.776224
1090.193714	2544.769231
1092.313024	2550.358042
1094.437563	2555.639161
1096.555858	2565.423776
1098.675556	2573.951049
1100.792837	2586.412587
1102.909610	2594.332867
1105.025877	2606.043357
1107.139729	2606.065734
1109.254984	2603.002797
1111.365917	2597.170629
1113.480162	2585.299301
1115.590086	2570.153846
1117.701413	2552.191608
1119.812237	2540.924476
1121.918744	2525.987413
1124.028560	2516.324476
1126.134062	2507.520280
1128.240968	2508.026573
1130.341658	2499.155245
1132.447560	2480.419580
1134.549153	2462.605594
1136.652148	2441.406993
1138.754644	2419.837762
1140.850932	2390.984615
1142.952427	2376.737063
1145.049620	2357.330070
1147.146314	2341.829371
1149.242511	2333.711888
1151.338209	2327.811189
1153.433410	2332.741259
1155.526214	2342.095105
1157.620420	2349.888112
1159.708435	2359.579021
1161.801648	2370.468531
1163.888674	2384.018182
1165.978998	2396.374825
1168.065034	2415.356643
1170.154368	2424.138462
1172.237521	2436.211189
1174.322077	2439.261538
1176.408034	2447.268531
1178.489709	2457.889510
1180.572785	2478.476923
1182.653476	2480.142657
1184.733676	2481.746853
1186.813384	2477.903497
1188.892601	2471.281119
1190.969435	2464.700699
1193.043889	2460.051748
1195.121635	2445.855944
1197.195110	2427.193007
1199.269987	2420.402797
1201.340596	2416.110490
1203.412606	2405.441958
1205.482240	2407.155245
1207.553275	2385.128671
1209.623822	2373.549650
1211.690109	2349.716084
1213.757796	2332.243357
1215.823110	2314.942657
1217.889825	2308.288112
1219.952284	2292.618182
1222.018029	2285.685315
1224.079519	2307.516084
1226.142410	2330.064336
1228.202932	2357.979021
1230.262972	2389.425175
1232.322528	2407.639161
1234.379720	2438.770629
1236.436429	2462.861538
1238.490776	2486.974825
1240.548403	2502.331469
1242.603668	2509.744056
1244.654693	2508.544056
1246.707117	2504.862937
1248.759061	2514.008392
1250.808647	2519.170629
1252.857754	2521.018182
1254.906382	2521.566434
1256.954532	2520.960839
1259.002204	2537.602797
1261.045645	2546.626573
1263.092362	2559.398601
1265.136725	2573.745455
1267.180611	2581.314685
1269.222147	2600.095105
1271.261333	2607.078322
1273.303792	2610.274126
1275.342028	2621.801399
1277.381663	2628.022378
1279.420822	2642.826573
1281.455764	2648.899301
1283.492104	2657.144056
1285.526100	2646.825175
1287.561493	2646.604196
1289.592673	2638.039161
1291.625252	2614.488112
1293.657359	2591.545455
1295.687125	2568.172028
1297.718288	2545.766434
1299.745244	2535.956643
1301.773599	2513.636364
1303.797748	2502.241958
1305.825163	2493.944056
1307.848375	2479.426573
1309.872985	2465.862937
1311.895260	2462.110490
1313.918933	2450.962238
1315.940273	2444.772028
1317.961146	2451.717483
1319.981551	2471.920280
1321.997763	2487.587413
1324.015372	2507.409790
1326.030653	2523.349650
1328.049193	2545.981818
1330.063543	2574.927273
1332.075568	2592.900699
1334.090851	2604.377622
1336.101948	2611.804196
1338.114441	2617.844755
1340.122752	2614.061538
1342.134319	2604.853147
1344.139847	2581.083916
1346.148630	2555.827972
1348.153235	2526.012587
1350.161094	2504.309091
1352.168491	2484.513287
1354.169857	2480.661538
1356.172619	2471.723077
1358.174922	2460.995804
1360.176765	2459.861538
1362.178148	2451.981818
1364.177217	2440.774825
1366.175828	2418.437762
1368.173981	2390.191608
1370.171676	2370.475524
1372.165208	2348.583217
1374.160135	2334.518881
1376.154606	2321.225175
1378.148620	2310.924476
1380.140327	2301.577622
1382.131578	2300.006993
1384.120524	2303.679720
1386.110865	2300.791608
1388.100752	2309.855944
1390.088334	2305.497902
1392.075463	2317.594406
1394.060290	2323.770629
1396.046512	2324.247552
1398.030433	2314.360839
1400.013902	2307.613986
1401.996919	2289.176224
1403.977638	2276.675524
1405.959751	2265.945455
1407.939567	2259.674126
1409.918933	2252.111888
1411.894160	2252.759441
1413.872625	2259.765035
1415.848797	2275.623776
1417.824519	2276.911888
1419.799792	2283.606993
1421.772775	2286.299301
1423.745309	2281.983217
1425.717395	2268.720280
1427.689034	2253.718881
1429.656544	2243.837762
1431.629128	2240.076923
1433.593906	2232.355245
1435.563757	2237.920280
1437.529483	2253.321678
1439.496603	2269.492308
1441.461439	2287.328671
1443.422155	2318.200000
1445.387939	2339.586014
1447.347768	2360.022378
1449.308991	2376.935664
1451.271605	2390.678322
1453.230105	2412.994406
1455.188163	2436.446154
1457.145779	2448.759441
1459.102952	2463.809790
1461.057850	2467.302098
1463.014141	2461.258741
1464.968157	2450.160839
1466.921732	2437.844755
1468.873035	2411.653147
1470.825730	2391.032168
1472.776154	2360.458741
1474.726139	2336.490909
1476.675685	2314.051748
1478.622962	2295.888112
1480.567971	2271.448951
1482.514373	2256.240559
1484.460337	2236.876923
1486.405864	2217.033566
1488.349125	2202.401399
1490.291950	2193.749650
1492.232512	2180.489510
1494.174466	2178.881119
1496.114157	2171.148252
1498.053413	2174.012587
1499.992235	2175.806993
1501.928797	2193.135664
1503.866750	2204.430769
1505.802444	2230.002797
1507.737705	2252.482517
1509.670709	2269.078322
1511.603281	2285.088112
1513.535421	2300.321678
1515.467129	2314.717483
1517.396584	2317.784615
1519.327429	2313.654545
1521.257842	2312.236364
1523.184183	2306.244755
1525.111914	2300.601399
1527.037396	2284.991608
1528.962448	2286.556643
1530.887070	2281.335664
1532.811264	2290.779021
1534.733211	2304.074126
1536.656548	2323.695105
1538.577638	2354.562238
1540.496484	2385.658741
1542.416720	2430.637762
1544.334712	2472.548252
1546.252278	2507.741259
1548.167603	2539.478322
1550.084317	2570.093706
1551.996975	2608.730070
1553.912838	2636.925874
1555.826462	2682.615385
1557.737847	2722.679720
1559.650622	2778.569231
1561.559347	2853.215385
1563.469461	2951.819580
1565.379152	3086.046154
1567.288420	3254.265734
1569.195453	3466.979021
1571.100254	3738.302098
1573.006444	4058.569231
1574.910403	4427.797203
1576.813940	4818.160839
1578.717057	5202.394406
1580.617944	5532.600000
1582.520220	5754.106294
1584.420267	5812.769231
1586.321703	5703.279720
1588.219104	5438.317483
1590.116088	5053.541259
1592.012653	4591.123077
1593.910605	4114.248951
1595.802723	3665.965035
1597.698035	3296.179021
1599.592928	3023.205594
1601.485601	2847.653147
1603.377856	2750.079720
1605.267892	2704.841958
1607.157512	2678.246154
1609.046717	2656.682517
1610.935506	2641.117483
1612.822079	2631.004196
1614.710039	2605.223776
1616.593982	2576.962238
1618.479312	2544.040559
1620.364229	2503.709091
1622.246932	2456.114685
1624.131022	2413.650350
1626.011100	2369.337063
1627.892566	2333.497902
1629.771820	2291.400000
1631.652462	2253.738462
1633.527299	2228.341259
1635.407117	2204.883916
1637.282930	2183.509091
1639.158334	2166.618182
1641.035123	2152.492308
1642.906115	2142.047552
1644.780290	2123.584615
1646.650465	2124.627972
1648.523821	2108.103497
1650.394974	2089.613986
1652.263925	2071.827972
1654.134262	2057.590210
1656.000606	2040.664336
1657.868335	2027.988811
1659.733865	2012.303497
1661.600781	2005.955245
1663.463707	2007.149650
1665.328020	2008.629371
1667.190136	1999.555245
1669.051847	2007.169231
1670.914943	1991.741259
1672.775845	1983.236364
1674.634554	1975.436364
1676.492859	1966.489510
1678.352548	1952.226573
1680.206471	1942.104895
1682.063567	1928.839161
1683.920259	1926.341259
1685.772976	1916.549650
1687.628864	1901.261538
1689.480778	1891.462937
1691.332291	1883.748252
1693.183403	1867.689510
1695.034114	1861.465734
1696.884425	1851.223776
1698.732552	1843.060140
1700.582063	1829.074126
1702.425824	1820.520280
1704.274536	1805.297902
1706.117501	1796.618182
1707.963632	1789.297902
1709.805802	1780.711888
1711.651137	1774.969231
1713.490730	1779.970629
1715.331709	1779.662937
1717.174070	1778.752448
1719.012474	1761.465734
1720.852262	1757.458741
1722.689875	1745.874126
1724.527093	1743.117483
1726.362137	1732.811189
1728.198564	1739.206993
1730.032818	1734.011189
1731.866679	1729.250350
1733.700145	1725.406993
1735.529665	1731.925874
1737.362345	1729.011189
1739.191079	1723.855944
1741.022972	1707.004196
1742.850922	1709.496503
1744.678480	1706.304895
1746.505647	1707.542657
1748.332422	1703.227972
1750.158805	1708.651748
1751.981252	1717.755245
1753.806854	1725.351049
1755.628520	1726.383217
1757.451569	1733.820979
1759.272457	1745.453147
1761.092955	1756.096503
1762.914835	1753.244755
1764.731015	1757.904895
1766.550347	1760.141259
1768.365752	1758.844755
1770.184308	1753.125874
1771.998938	1758.415385
1773.813181	1768.655944
1775.627038	1764.044755
1777.440508	1764.054545
1779.251824	1769.398601
1781.064522	1782.062937
1782.876834	1792.310490
1784.685227	1791.377622
1786.495002	1794.033566
1788.300861	1798.472727
1790.109867	1799.355245
1791.914959	1790.134266
1793.721432	1786.166434
1795.527520	1773.186014
1797.329699	1760.646154
1799.135021	1749.254545
1800.936435	1745.966434
1802.739230	1739.297902
1804.538118	1735.686713
1806.338387	1730.657343
1808.138274	1734.418182
1809.936019	1737.861538
1811.733384	1742.060140
1813.530368	1750.367832
1815.326972	1753.823776
1817.121437	1757.420979
1818.917282	1766.514685
1820.707471	1772.829371
1822.502557	1782.593007
1824.291990	1780.334266
1826.084561	1786.179021
1827.874996	1785.317483
1829.663296	1797.397203
1831.454732	1797.093706
1833.240523	1803.334266
1835.027692	1819.405594
1836.812731	1825.282517
1838.600902	1835.518881
1840.385188	1844.902098
1842.167345	1854.366434
1843.950881	1865.927273
1845.732288	1861.952448
1847.515073	1867.398601
1849.293979	1860.172028
1851.074263	1867.753846
1852.852422	1862.106294
1854.631958	1864.710490
1856.409370	1867.128671
1858.184659	1871.583217
1859.961325	1875.316084
1861.735869	1878.885315
1863.511790	1876.784615
1865.282092	1874.201399
1867.055521	1867.641958
1868.826830	1872.790210
1870.597768	1868.111888
1872.370084	1880.082517
1874.136786	1881.608392
1875.906613	1883.876923
1877.672577	1889.208392
1879.441665	1902.020979
1881.206891	1898.476923
1882.971749	1882.890909
1884.737983	1866.521678
1886.500359	1852.700699
1888.262368	1839.394406
1890.024010	1826.088112
1891.785284	1801.230769
1893.546192	1781.938462
1895.306732	1754.412587
1897.065164	1730.681119
1898.823229	1719.676923
1900.579187	1705.455944
1902.336521	1682.205594
1904.093490	1667.697902
1905.848352	1667.897902
1907.601109	1668.818182
1909.353503	1674.539860
1911.107273	1675.348252
1912.858939	1665.302098
1914.608502	1657.237762
1916.359442	1647.226573
1918.110018	1642.397203
1919.856756	1631.772028
1921.604869	1625.116084
1923.350883	1622.027972
1925.098273	1633.338462
1926.843564	1650.758042
1928.586758	1663.184615
1930.331328	1673.970629
1932.073801	1681.241958
1933.815914	1676.811189
1935.557668	1674.312587
1937.299061	1674.292308
1939.038361	1675.925175
1940.777302	1665.820979
1942.515884	1661.817483
1944.252375	1658.251748
1945.988507	1654.893007
1947.726015	1654.909091
1949.459700	1639.023077
1951.194760	1626.106294
1952.927731	1617.453846
1954.660346	1601.413986
1956.392604	1593.381119
1958.124506	1593.787413
1959.854323	1598.148252
1961.582054	1601.532867
1963.311160	1603.288112
1965.039910	1601.549650
1966.766577	1597.871329
1968.492890	1602.962238
1970.220577	1596.521678
1971.942727	1597.875524
1973.667978	1604.282517
1975.389422	1606.600000
1977.113966	1609.065734
1978.836431	1618.327273
1980.555092	1625.577622
1982.276852	1626.454545
1983.994811	1628.836364
1985.714142	1626.934266
1987.429674	1628.731469
1989.150026	1625.251748
1990.866580	1619.609790
1992.579337	1618.857343
1994.295190	1613.461538
1996.008971	1603.426573
1997.722402	1599.507692
1999.433762	1592.514685
2001.146494	1584.987413
2002.855435	1575.160839
2004.567470	1573.346853
2006.273995	1567.111888
2007.983613	1563.779021
2009.691163	1557.576224
2011.398366	1568.323077
2013.103503	1577.356643
2014.808293	1584.324476
2016.514456	1593.493706
2018.216835	1604.565035
2019.920587	1607.993007
2021.622276	1616.594406
2023.323619	1614.593007
2025.024618	1616.306294
2026.723555	1610.286713
2028.423864	1608.626573
2030.120397	1598.123077
2031.818302	1595.553846
2033.514149	1582.938462
2035.213081	1573.502098
2036.906527	1560.546853
2038.601344	1547.053147
2040.295818	1541.476923
2041.986525	1542.998601
2043.680314	1537.833566
2045.370338	1547.917483
2047.061731	1552.945455
2048.751072	1561.618182
2050.441784	1558.425175
2052.128732	1561.742657
2053.815340	1562.572028
2055.503319	1566.152448
2057.187538	1568.062937
2058.873127	1566.618182
2060.558377	1573.029371
2062.241579	1575.179021
2063.926151	1569.658741
2065.605259	1577.067133
2067.289154	1575.013986
2068.967587	1569.534266
2070.649098	1564.406993
2072.326857	1561.716084
2074.004280	1561.261538
2075.683072	1565.251748
2077.359821	1564.069930
2079.034529	1562.721678
2080.710607	1560.201399
2082.384643	1563.015385
2084.058345	1561.748252
2085.731711	1566.518881
2087.403038	1565.769231
2089.074031	1566.258741
2090.744690	1577.818182
2092.415015	1583.412587
2094.085006	1588.328671
2095.752960	1601.454545
2097.420582	1601.218182
2099.086170	1606.365035
2100.753126	1605.988811
2102.418049	1615.823776
2104.082640	1607.779021
2105.745199	1598.072727
2107.409126	1593.373427
2109.071022	1580.292308
2110.732587	1576.848951
2112.393822	1561.746853
2114.053027	1554.723077
2115.711903	1556.793007
2117.370448	1549.218182
2119.028664	1549.841958
2120.683157	1553.172028
2122.340714	1563.714685
2123.997941	1559.962238
2125.651448	1560.637762
2127.306322	1560.647552
2128.957477	1549.826573
2130.611695	1543.608392
2132.262195	1534.012587
2133.914063	1530.773427
2135.560522	1518.415385
2137.211735	1510.372028
2138.859236	1511.734266
2140.508103	1513.223776
2142.154951	1520.541259
2143.801474	1521.681119
2145.447671	1531.949650
2147.090159	1538.765035
2148.735706	1535.107692
2150.377546	1531.756643
2152.022443	1529.000000
2153.663635	1529.874126
2155.304503	1529.724476
2156.945048	1531.050350
2158.583580	1538.341259
2160.223478	1533.795804
2161.859676	1540.124476
2163.497240	1544.367832
2165.134482	1552.579021
2166.769714	1555.826573
2168.404624	1552.057343
2170.039213	1551.335664
2171.673481	1548.467133
2173.304055	1549.844755
2174.937681	1549.664336
2176.567614	1541.432168
2178.198914	1539.267133
2179.828208	1532.576224
2181.457183	1538.503497
2183.085838	1541.846154
2184.714174	1550.174825
2186.340507	1556.097902
2187.966522	1560.216783
2189.590536	1572.553846
2191.215915	1577.012587
2192.839293	1581.879720
2194.464036	1588.530070
2196.085098	1588.907692
2197.705843	1587.937063
2199.327952	1587.290909
2200.948064	1597.881119
2202.566180	1594.963636
2204.183980	1602.132867
2205.801464	1596.006993
2207.418634	1595.282517
2209.035487	1598.928671
2210.652026	1593.513287
2212.266571	1585.331469
2213.879125	1589.166434
2215.493042	1585.166434
2217.104968	1581.120280
2218.718257	1583.026573
2220.329555	1589.415385
2221.938865	1593.759441
2223.549537	1593.272727
2225.158221	1590.944056
2226.766593	1589.075524
2228.372978	1581.948252
2229.980725	1577.107692
2231.586487	1571.341259
2233.191937	1571.767832
2234.795402	1560.746853
2236.400230	1559.713287
2238.003074	1554.114685
2239.603935	1548.006993
2241.206159	1548.097902
2242.806401	1540.244755
2244.408005	1541.142657
2246.005956	1538.355245
2247.605270	1538.600000
2249.202604	1545.134266
2250.799630	1552.397203
2252.398017	1559.001399
2253.992757	1565.088112
2255.585519	1569.125874
2257.179644	1572.874126
2258.775130	1578.848951
2260.366971	1585.914685
2261.958506	1594.945455
2263.551402	1593.209790
2265.138990	1597.068531
2266.731273	1597.213986
2268.318249	1598.400000
2269.908254	1601.524476
2271.492954	1593.243357
2273.082348	1581.177622
2274.666439	1560.760839
2276.251892	1544.837762
2277.835376	1525.418182
2279.421885	1501.275524
2281.004761	1484.577622
2282.587334	1461.834266
2284.169603	1447.878322
2285.748242	1431.621678
2287.329906	1424.299301
2288.907941	1420.655245
2290.488999	1412.016783
2292.066430	1410.330769
2293.641898	1406.212587
2295.220388	1399.602098
2296.795254	1396.025175
2298.369819	1385.020280
2299.944083	1381.734266
2301.518047	1368.737762
2303.091711	1357.938462
2304.665075	1349.826573
2306.234820	1340.690909
2307.804266	1331.110490
2309.376730	1329.285315
2310.943920	1327.734266
2312.514127	1329.674126
2314.080721	1329.264336
2315.648673	1333.623776
2317.214671	1333.742657
2318.780371	1341.857343
2320.345773	1347.450350
2321.909222	1370.351049
2323.474030	1395.339860
2325.035229	1411.313287
2326.599443	1416.211189
2328.158396	1425.748252
2329.720362	1425.121678
2331.280378	1420.520280
2332.840098	1405.054545
2334.397870	1389.475524
2335.955346	1371.625175
2337.512528	1365.618182
2339.067762	1358.772028
2340.622702	1368.770629
2342.177349	1375.946853
2343.731702	1385.065734
2345.285761	1389.538462
2346.839527	1404.100699
2348.391348	1409.797203
2349.941226	1416.204196
2351.494113	1411.777622
2353.041756	1414.267133
2354.592407	1417.613986
2356.139468	1422.053147
2357.687886	1423.930070
2359.236013	1427.570629
2360.780551	1431.695105
2362.326447	1435.606993
2363.870404	1434.583217
2365.415719	1435.272727
2366.957449	1431.622378
2368.500537	1436.998601
2370.041688	1429.675524
2371.582550	1431.471329
2373.123123	1427.388811
2374.663407	1428.844755
2376.203402	1427.282517
2377.739818	1426.275524
2379.279236	1424.823776
2380.815077	1417.942657
2382.352275	1407.232168
2383.885897	1397.142657
2385.422519	1386.745455
2386.957211	1381.139860
2388.489972	1370.579021
2390.022448	1362.413986
2391.552995	1350.711888
2393.086540	1345.930070
2394.614874	1342.296503
2396.144564	1345.026573
2397.673969	1344.114685
2399.203089	1344.938462
2400.731923	1353.489510
2402.255553	1362.562238
2403.783818	1370.285315
2405.306880	1376.921678
2406.834577	1383.735664
2408.355434	1385.234965
2409.880923	1384.401399
2411.402853	1389.458741
2412.926137	1396.158042
2414.447501	1401.783217
2415.966945	1397.692308
2417.487744	1409.786014
2419.006624	1424.984615
2420.525223	1436.258741
2422.041903	1443.151049
2423.559939	1453.135664
2425.077693	1454.984615
2426.591895	1452.756643
2428.105818	1453.026573
2429.619460	1460.036364
2431.134456	1462.181818
2432.645905	1466.738462
2434.158707	1459.483916
2435.669597	1472.353846
2437.180208	1475.005594
2438.688907	1481.229371
2440.200592	1489.025175
2441.708734	1504.167832
2443.216598	1509.871329
2444.724183	1517.408392
2446.228229	1527.412587
2447.735259	1536.040559
2449.240381	1534.798601
2450.745226	1533.218182
2452.248164	1521.341259
2453.750825	1516.836364
2455.253211	1504.551049
2456.753690	1499.033566
2458.255524	1494.490909
2459.755452	1493.439161
2461.255105	1482.984615
2462.754483	1480.127273
2464.251958	1476.572028
2465.747531	1471.254545
2467.246084	1470.697902
2468.741109	1470.976224
2470.237486	1465.492308
2471.730337	1464.320280
2473.224541	1464.892308
2474.718471	1472.816783
2476.208877	1475.243357
2477.702261	1473.279720
2479.193747	1464.914685
2480.683336	1461.938462
2482.172653	1456.086713
2483.660074	1449.437762
2485.150471	1454.346853
2486.637350	1454.117483
2488.125580	1451.735664
2489.610293	1448.303497
2491.094736	1447.072727
2492.580531	1442.805594
2494.064434	1428.026573
2495.549687	1410.876923
2497.029807	1392.436364
2498.512899	1376.925874
2499.994102	1358.341259
2501.475035	1339.546853
2502.954078	1328.839161
2504.432854	1322.253147
2505.911361	1310.682517
2507.389599	1309.110490
2508.867570	1308.455944
2510.342035	1302.022378
2511.819470	1296.296503
2513.293400	1295.613986
2514.768682	1295.632168
2516.243696	1297.514685
2517.715209	1290.710490
2519.188073	1289.632168
2520.659054	1282.359441
2522.131385	1280.917483
2523.598602	1268.001399
2525.068786	1266.553846
2526.537089	1261.647552
2528.005126	1252.409790
2529.472899	1249.862937
2530.940407	1238.525874
2532.407651	1232.205594
2533.871402	1228.499301
2535.336503	1223.630769
2536.799727	1225.507692
2538.264300	1218.069930
2539.725385	1224.208392
2541.187819	1227.556643
2542.649990	1235.833566
2544.108674	1245.423776
2545.571931	1251.651748
2547.030091	1258.963636
2548.489601	1260.360839
2549.944016	1262.676923
2551.403002	1264.594406
2552.860116	1259.390210
2554.315358	1254.765035
2555.770340	1252.313287
2557.223452	1261.655944
2558.677913	1266.321678
2560.130505	1272.079720
2561.582837	1277.871329
2563.033301	1279.819580
2564.486722	1288.551049
2565.935060	1299.988811
2567.386353	1306.993007
2568.835780	1318.623776
2570.281736	1317.506294
2571.730646	1323.941259
2573.176085	1334.202797
2574.622873	1338.601399
2576.067797	1340.488112
2577.512464	1353.595804
2578.958478	1357.952448
2580.401025	1363.078322
2581.844920	1372.482517
2583.285350	1383.268531
2584.727128	1391.432168
2586.167046	1402.002797
2587.608311	1394.018182
2589.046114	1389.243357
2590.486867	1380.899301
2591.922558	1369.507692
2593.361197	1358.632168
2594.797980	1359.586014
2596.232907	1355.948252
2597.670781	1354.748252
2599.103598	1355.836364
2600.537762	1364.524476
2601.970071	1372.630769
2603.403728	1381.251748
2604.835530	1374.602797
2606.267080	1372.114685
2607.698376	1367.274126
2609.127821	1361.397203
2610.557013	1362.072727
2611.984354	1369.455944
2613.413042	1373.009790
2614.841477	1381.963636
2616.266466	1400.342657
2617.692800	1419.272727
2619.117287	1445.832168
2620.543118	1464.285315
2621.965507	1480.837762
2623.389240	1507.725874
2624.811128	1530.020979
2626.232765	1559.420979
2627.652558	1591.959441
2629.073696	1630.920280
2630.494584	1667.718881
2631.912033	1714.012587
2633.332422	1760.590210
2634.749374	1803.763636
2636.166078	1853.541259
2637.582533	1902.344056
2638.998740	1950.380420
2640.414699	2023.123077
2641.828817	2080.923077
2643.242687	2149.925874
2644.654718	2221.492308
2646.068094	2315.760839
2647.478040	2417.062937
2648.890922	2530.499301
2650.300375	2652.841958
2651.709582	2778.892308
2653.116953	2919.282517
2654.527258	3068.809790
2655.935727	3221.162238
2657.342362	3402.565035
2658.748750	3560.902098
2660.153306	3731.776224
2661.559205	3899.419580
2662.963270	4084.040559
2664.367092	4250.744056
2665.770669	4417.559441
2667.172415	4553.732867
2668.575504	4667.383217
2669.975175	4765.433566
2671.376190	4831.798601
2672.773789	4864.148252
2674.174317	4880.167832
2675.571431	4847.012587
2676.969888	4782.321678
2678.366517	4701.363636
2679.762905	4588.387413
2681.159050	4449.841958
2682.553369	4292.079720
2683.949031	4106.981818
2685.341284	3922.086713
2686.734879	3726.174825
2688.126650	3531.655944
2689.519764	3343.834965
2690.911053	3170.648951
2692.300521	2993.321678
2693.689748	2830.211189
2695.078735	2686.234965
2696.469065	2544.130070
2697.854411	2428.125874
2699.242680	2319.932867
2700.629129	2228.276923
2702.015339	2146.738462
2703.401310	2068.250350
2704.783883	2008.816783
2706.167798	1956.749650
2707.551474	1902.706294
2708.934913	1853.148252
2710.314956	1811.770629
2711.696341	1768.384615
2713.075910	1731.800000
2714.456821	1701.218182
2715.835917	1675.426573
2717.213199	1639.158042
2718.591822	1607.783217
2719.968631	1572.730070
2721.345205	1546.601399
2722.721543	1517.075524
2724.096069	1493.689510
2725.471936	1468.911888
2726.844416	1452.202797
2728.219813	1437.162238
2729.590249	1423.822378
2730.962025	1406.913287
2732.333568	1397.760839
2733.703302	1380.219580
2735.074376	1370.804196
2736.443643	1360.397203
2737.812676	1356.295105
2739.179903	1340.046154
2740.546896	1334.446154
2741.913657	1321.213986
2743.280185	1318.518881
2744.644909	1310.490909
2746.009400	1294.889510
2747.373659	1283.089510
2748.737687	1278.709091
2750.101482	1274.453147
2751.461905	1269.772028
2752.825237	1260.702098
2754.183627	1251.738462
2755.544927	1231.692308
2756.902857	1222.510490
2758.263695	1213.131469
2759.622733	1204.836364
2760.978403	1203.504895
2762.336982	1199.201399
2763.692193	1201.345455
2765.047175	1203.990210
2766.400360	1209.265734
2767.756452	1200.406993
2769.109180	1197.798601
2770.461679	1194.861538
2771.813951	1187.559441
2773.167560	1187.735664
2774.517808	1183.871329
2775.866263	1183.878322
2777.217622	1191.544056
2778.565622	1189.741259
2779.914961	1184.537063
2781.262507	1178.683916
2782.609827	1169.372028
2783.956919	1153.706294
2785.302221	1148.734266
2786.647297	1145.832168
2787.992147	1140.318881
2789.336771	1139.696503
2790.678043	1141.886713
2792.020652	1151.000000
2793.363037	1156.833566
2794.705196	1161.320280
2796.044006	1159.034965
2797.385716	1162.604196
2798.724077	1168.286713
2800.063776	1167.672727
2801.401689	1164.805594
2802.737818	1167.843357
2804.073724	1162.693706
2805.410967	1163.738462
2806.746425	1174.275524
2808.081661	1179.530070
2809.415115	1180.032168
2810.749905	1180.970629
2812.081354	1178.064336
2813.415699	1182.446154
2814.745146	1177.373427
2816.075930	1170.117483
2817.406492	1162.811189
2818.735275	1156.037762
2820.065395	1136.395804
2821.393736	1125.127273
2822.721855	1118.051748
2824.048198	1104.872727
2825.375876	1095.858741
2826.700222	1088.334266
2828.025904	1080.146853
2829.349810	1069.120280
2830.673496	1060.416783
2831.998518	1062.036364
2833.320211	1059.991608
2834.641685	1055.272727
2835.962939	1045.794406
2837.283975	1040.983217
2838.603239	1037.401399
2839.923838	1039.132867
2841.242665	1033.468531
2842.561274	1023.288112
2843.878113	1017.510490
2845.194734	1004.955245
2846.511138	1003.565035
2847.825772	1000.987413
2849.141741	995.455944
2850.454391	1002.029371
2851.768375	1001.121678
2853.082143	1005.032168
2854.395694	1016.916084
2855.707479	1025.620979
2857.017497	1021.461538
2858.328850	1021.240559
2859.636888	1025.372028
2860.946260	1024.587413
2862.255417	1028.074126
2863.564359	1027.162238
2864.871538	1026.541259
2866.176953	1031.356643
2867.483703	1026.942657
2868.788691	1031.675524
2870.093464	1035.083916
2871.396477	1036.044755
2872.702370	1027.857343
2874.003409	1027.093706
2875.305781	1024.472727
2876.606395	1020.415385
2877.908341	1013.062937
2879.210075	1005.509091
2880.508505	998.646154
2881.808268	990.475524
2883.106274	985.739860
2884.404068	989.851748
2885.700105	991.573427
2886.997476	998.574825
2888.293092	995.935664
2889.588496	994.769231
2890.883689	990.327273
2892.175585	986.121678
2893.470356	975.307692
2894.761832	971.720280
2896.054640	963.447552
2897.347238	961.054545
2898.636541	959.855944
2899.927178	969.248951
2901.216063	976.671329
2902.506280	988.422378
2903.793206	993.683916
2905.081464	1000.542657
2906.367973	1004.819580
2907.654273	1009.843357
2908.940365	1006.661538
2910.224709	1014.169231
2911.511925	1013.251748
2912.794314	1019.967832
2914.078035	1019.016783
2915.360009	1027.588811
2916.641777	1034.187413
2917.921799	1044.234965
2919.204691	1048.104895
2920.485838	1051.247552
2921.763703	1045.584615
2923.044437	1038.653147
2924.321890	1023.613986
2925.599138	1020.201399
2926.874643	1012.029371
2928.153016	1002.247552
2929.426575	990.995804
2930.703001	979.904895
2931.977685	978.211189
2933.250630	972.958042
2934.524906	961.770629
2935.797441	957.013986
2937.069773	951.195804
2938.338832	942.741259
2939.610756	937.083916
2940.880942	941.276923
2942.150924	939.815385
2943.420703	930.276923
2944.688746	926.932867
2945.955052	918.134266
2947.221156	914.753846
2948.488591	907.430769
2949.754290	897.892308
2951.019788	898.222378
2952.285083	893.521678
2953.547113	890.400000
2954.810473	890.408392
2956.073632	889.949650
2957.335058	884.875524
2958.597815	886.148252
2959.858839	890.911888
2961.118133	890.906294
2962.377226	892.671329
2963.636120	891.528671
2964.894812	886.391608
2966.153305	891.939860
2967.410069	889.678322
2968.666634	887.853147
2969.921470	887.963636
2971.177636	883.205594
2972.430547	880.078322
2973.684786	881.797203
2974.938827	880.958042
2976.191142	876.146853
2977.443259	873.654545
2978.693651	870.356643
2979.946898	865.716084
2981.195368	871.102098
2982.446693	867.931469
2983.694768	868.090909
2984.942646	871.725874
2986.190328	873.248951
2987.437812	873.653147
2988.683575	872.387413
2989.929141	873.625175
2991.176036	871.938462
2992.419686	876.883916
2993.664663	877.482517
2994.906398	873.360839
2996.150984	877.588811
2997.393851	877.772028
2998.633477	882.678322
2999.875953	883.232168
3001.115189	888.220979
3002.355753	887.581818
3003.594600	885.558042
3004.833253	885.479720
3006.070190	884.222378
3007.308455	880.170629
3008.545004	875.661538
3009.781360	871.572028
3011.017522	875.833566
3012.251970	876.002797
3013.486225	870.264336
3014.720287	864.029371
3015.952637	865.997203
3017.183275	862.795804
3018.416759	866.018182
3019.648532	865.237762
3020.878593	864.588811
3022.108463	859.419580
3023.336623	858.283916
3024.566110	860.759441
3025.793887	861.875524
3027.021473	855.690909
3028.250385	849.278322
3029.474555	847.183217
3030.701568	848.632168
3031.925358	848.959441
3033.150473	855.310490
3034.373883	849.753846
3035.597102	852.507692
3036.818616	849.937063
3038.042971	850.520280
3039.262591	851.297902
3040.483537	847.720280
3041.704293	842.405594
3042.923347	841.011189
3044.143725	836.808392
3045.360887	833.083916
3046.579374	829.327273
3047.796160	824.325874
3049.012757	811.986014
3050.229167	816.697902
3051.442363	817.314685
3052.658397	817.900699
3053.871219	818.553846
3055.086878	815.448951
3056.297814	813.897902
3057.510076	816.537063
3058.722150	818.254545
3059.934038	818.553846
3061.144229	820.268531
3062.354233	815.706294
3063.564051	808.327273
3064.772173	809.321678
3065.980110	802.938462
3067.186351	799.356643
3068.393917	791.292308
3069.599788	776.883916
3070.805474	770.427972
3072.010976	767.563636
3073.214784	767.504895
3074.419916	765.261538
3075.623355	765.511888
3076.825102	763.366434
3078.026666	761.095105
3079.228046	758.923077
3080.429242	759.027972
3081.628748	757.956643
3082.828071	755.236364
3084.028717	754.885315
3085.227673	749.832168
3086.423434	755.356643
3087.622025	757.205594
3088.817422	760.527273
3090.014143	768.206993
3091.207671	779.076923
3092.404027	784.686713
3093.598696	787.693706
3094.790175	787.665734
3095.985986	780.755245
3097.177102	779.527273
3098.369542	780.155245
3099.558793	771.728671
3100.750871	766.006993
3101.941265	761.103497
3103.128473	763.297902
3104.317003	763.011189
3105.506856	768.794406
3106.693524	764.881119
3107.880013	767.467133
3109.066323	761.323077
3110.253954	753.447552
3111.438403	754.535664
3112.621173	754.958042
3113.806765	747.685315
3114.990678	741.532867
3116.172911	740.780420
3117.354967	733.648951
3118.536844	727.390210
3119.718543	728.332867
3120.898565	725.531469
3122.076910	734.878322
3123.258075	730.216783
3124.436065	727.240559
3125.613878	726.327273
3126.791514	719.359441
3127.967475	717.588811
3129.143260	716.893706
3130.320365	713.622378
3131.495797	709.955245
3132.669555	707.160839
3133.841640	711.002797
3135.015046	712.841958
3136.188277	722.528671
3137.359836	722.019580
3138.532715	720.696503
3139.702427	722.679720
3140.873460	726.240559
3142.042822	732.269930
3143.210515	735.260140
3144.381023	737.742657
3145.546872	736.152448
3146.717031	734.749650
3147.882532	738.815385
3149.047860	735.637762
3150.213014	735.755245
3151.377995	732.875524
3152.544295	731.180420
3153.705942	736.832168
3154.868910	741.647552
3156.031705	740.377622
3157.194326	742.762238
3158.355283	738.723077
3159.516068	731.737063
3160.676680	729.295105
3161.835628	729.100699
3162.994405	719.366434
3164.153009	715.626573
3165.311442	714.044755
3166.469703	715.352448
3167.626303	723.970629
3168.781241	728.195804
3169.937498	731.806993
3171.092094	736.309091
3172.246520	734.286713
3173.399285	735.572028
3174.551881	738.081119
3175.704307	738.822378
3176.856562	735.970629
3178.008648	736.302098
3179.157587	732.979021
3180.309333	733.713287
3181.459422	733.180420
3182.607853	732.337063
3183.756116	728.776224
3184.904210	724.269930
3186.052135	723.990210
3187.198404	722.406993
3188.344505	718.205594
3189.488952	717.966434
3190.633230	717.137063
3191.777341	712.376224
3192.922770	710.053147
3194.065060	704.141259
3195.207182	697.732867
3196.349138	696.549650
3197.490926	691.699301
3198.632547	692.502098
3199.771033	692.569231
3200.910836	687.012587
3202.051956	681.579021
3203.189943	681.467133
3204.326279	675.756643
3205.462451	673.215385
3206.599939	668.786014
3207.735779	660.825175
3208.872936	656.749650
3210.005480	656.469930
3211.142305	653.723077
3212.274520	662.504895
3213.408051	661.051748
3214.541417	654.534266
3215.671657	654.833566
3216.804694	660.146853
3217.934605	662.542657
3219.065832	663.875524
3220.193934	662.383217
3221.324834	661.843357
3222.454089	660.055944
3223.581701	671.808392
3224.706190	677.717483
3225.834955	692.903497
3226.960598	698.106294
3228.086078	704.549650
3229.209917	718.377622
3230.336551	728.518881
3231.458587	735.713287
3232.581939	738.983217
3233.705128	738.230769
3234.828156	738.387413
3235.949544	741.205594
3237.070771	753.790210
3238.190359	759.549650
3239.309786	769.738462
3240.427576	767.573427
3241.548157	772.867133
3242.665625	771.591608
3243.782932	769.034965
3244.900079	763.741259
3246.015589	756.969231
3247.132415	744.440559
3248.246130	733.552448
3249.362636	728.274126
3250.477506	724.415385
3251.589268	719.293706
3252.700871	710.786014
3253.813789	696.702098
3254.926547	696.850350
3256.036199	683.862937
3257.147166	678.464336
3258.257974	670.657343
3259.367150	670.051748
3260.474695	662.549650
3261.583555	658.741259
3262.692256	661.869930
3263.797855	662.875524
3264.904769	661.467133
3266.010053	658.588811
3267.116651	652.944056
3268.220149	652.388811
3269.324961	642.644755
3270.429616	643.555245
3271.531173	637.833566
3272.632573	633.720280
3273.735287	627.772028
3274.837845	626.748252
3275.937306	621.215385
3277.039551	619.993007
3278.138700	618.071329
3279.236224	612.304895
3280.333594	606.721678
3281.433745	606.851748
3282.530804	598.984615
3283.627707	601.577622
3284.724455	589.380420
3285.816644	590.689510
3286.913083	591.320280
3288.007899	593.446154
3289.102560	586.907692
3290.195600	591.598601
3291.288486	591.374825
3292.379751	592.458741
3293.472329	591.504895
3294.563287	593.292308
3295.652625	591.165035
3296.741810	593.613986
3297.832307	589.755245
3298.919721	595.346853
3300.006981	592.437762
3301.095554	596.784615
3302.183974	594.976224
3303.267848	596.923077
3304.355963	591.170629
3305.440996	596.916084
3306.524414	594.299301
3307.609144	592.272727
3308.692258	587.829371
3309.776684	588.727273
3310.858033	583.088112
3311.940693	578.632168
3313.021738	574.058741
3314.102633	577.454545
3315.181915	578.516084
3316.261046	579.888112
3317.341489	578.966434
3318.418857	589.655944
3319.497537	590.479720
3320.574605	595.296503
3321.651523	597.299301
3322.726831	599.318881
3323.801989	598.714685
3324.878458	602.376224
3325.951857	600.815385
3327.025106	604.173427
3328.099667	608.187413
3329.172619	611.616783
3330.243962	615.174825
3331.316616	617.612587
3332.386203	619.696503
3333.457101	625.296503
3334.526393	622.465734
3335.596994	618.804196
3336.665989	617.152448
3337.733379	612.183217
3338.799163	602.728671
3339.869173	598.197203
3340.936120	587.993007
3342.000005	586.632168
3343.066657	586.938462
3344.131706	585.083916
3345.195151	588.230769
3346.258450	588.776224
3347.321602	588.716084
3348.384608	594.490909
3349.447468	595.820979
3350.508725	593.188811
3351.566926	592.020979
3352.629348	593.639161
3353.688714	585.241958
3354.747934	594.310490
3355.808463	595.883916
3356.864484	591.018182
3357.923268	590.338462
3358.977545	585.595804
3360.034586	583.984615
3361.090028	589.453147
3362.146780	588.875524
3363.201933	583.236364
3364.255489	584.352448
3365.307448	582.945455
3366.362170	576.853147
3367.413842	578.530070
3368.465370	571.923077
3369.518208	566.387413
3370.567998	564.006993
3371.619097	560.387413
3372.667149	560.767832
3373.717962	559.433566
3374.765729	555.832168
3375.813354	551.246154
3376.860837	549.611189
3377.906727	546.990210
3378.953925	543.075524
3379.998080	545.892308
3381.044995	550.248951
3382.090317	556.667133
3383.132598	560.927273
3384.174738	568.716084
3385.218187	570.060140
3386.261494	564.660140
3387.303211	562.555245
3388.344788	561.620979
3389.386223	559.068531
3390.426070	558.741259
3391.464328	557.377622
3392.503894	559.728671
3393.543320	555.127273
3394.581158	550.781818
3395.617409	546.246154
3396.653520	543.869930
3397.690939	537.556643
3398.725325	537.363636
3399.761019	534.146853
3400.796573	533.229371
3401.829095	541.278322
3402.864371	547.767832
3403.896617	548.794406
3404.928723	550.286713
3405.959247	543.966434
3406.991077	543.864336
3408.022769	543.068531
3409.051433	543.795804
3410.079960	544.026573
3411.109793	546.090909
3412.139489	542.002797
3413.166159	544.050350
3414.194135	548.528671
3415.219087	546.902098
3416.246790	546.402797
3417.271468	546.437762
3418.297453	540.483916
3419.321859	540.665734
3420.346128	536.965035
3421.368818	533.474126
3422.391372	529.751049
3423.415232	525.925874
3424.436072	522.613986
3425.456776	520.913686
3426.478786	520.216983
3427.497778	520.637163
3428.516635	522.287512
3429.536798	525.281319
3430.553944	529.731868
