-118.077073	7.150275
-115.407473	5.181319
-112.740808	3.388062
-110.074895	1.824176
-107.411914	0.543332
-104.747504	-0.400799
-102.086024	-0.954545
-99.423114	1.167133
-96.765312	-0.384615
-94.106079	2.848951
-91.447596	0.193706
-88.792036	-0.446154
-86.135048	-1.958741
-83.483157	1.622378
-80.829837	3.030769
-78.179437	5.285315
-75.527607	3.858042
-72.880868	5.435664
-70.232699	5.869231
-67.585274	11.434266
-64.940762	10.802098
-62.294822	14.760839
-59.653963	11.523077
-57.011675	15.632168
-54.372295	14.063636
-51.731487	15.543357
-49.091419	12.561538
-46.456423	10.592308
-43.819999	8.472028
-41.186477	7.525874
-38.551527	4.386713
-35.921642	6.081119
-33.288165	1.976923
-30.659750	2.339161
-28.032069	2.507692
-25.402959	5.791608
-22.778906	-9.218881
-20.151264	-55.586014
-17.528675	-177.577622
-14.906818	-121.325874
-12.285691	250.798601
-9.665294	765.239860
-7.047786	1173.143357
-4.428848	1451.472727
-1.812797	1592.892308
0.802526	1603.011189
3.417122	1476.791608
6.028835	1220.125874
8.641977	836.920280
11.250085	368.820280
13.861775	-80.039860
16.468434	-224.360839
19.076521	-116.120979
21.683884	2.102098
24.286222	15.002797
26.892138	16.989510
29.493032	18.083217
32.095354	16.288112
34.692659	11.706993
37.293539	10.027273
39.889405	5.480420
42.486698	3.015385
45.083272	2.593706
47.674837	6.151049
50.267830	2.724476
52.857962	5.625874
55.449522	5.544056
58.038222	8.427972
60.628349	9.734965
63.213478	10.516783
65.800033	10.490210
68.385875	14.433566
70.968863	11.289510
73.553277	7.916783
76.130563	7.929371
78.711415	6.587413
81.289418	3.923776
83.866711	6.972727
86.445430	5.974825
89.019168	7.098601
91.594332	8.209091
94.166653	13.062238
96.738266	13.784615
99.307039	18.137063
101.877239	17.360140
104.444601	19.194406
107.013388	21.446853
109.579339	25.926573
112.142455	26.753147
114.709127	34.435664
117.266578	34.039860
119.829714	42.090909
122.387891	59.563636
124.949621	93.811189
127.506395	149.815385
130.064596	242.596503
132.617844	357.991608
135.170393	502.459441
137.726493	659.874825
140.277646	829.167133
142.828100	984.547552
145.377857	1128.883217
147.924796	1232.106993
150.471038	1309.162238
153.018706	1350.746853
155.565678	1375.230769
158.107715	1383.739161
160.649058	1393.851049
163.189708	1387.780420
165.731784	1391.315385
168.271048	1390.935664
170.807504	1399.354545
173.343268	1405.162937
175.880458	1413.019580
178.416957	1415.462937
180.950650	1414.579021
183.481540	1410.083217
186.011741	1414.360839
188.543367	1413.733566
191.072192	1420.780420
193.598218	1416.249650
196.123558	1421.369231
198.650324	1424.181119
201.174292	1427.211888
203.697576	1429.985315
206.220175	1436.169231
208.739981	1437.482517
211.259104	1441.241958
213.777544	1442.071329
216.297408	1447.697902
218.810271	1452.736364
221.326665	1461.981119
223.842377	1460.769231
226.353199	1471.081119
228.865447	1478.279021
231.374911	1482.126573
233.883697	1488.005594
236.391805	1494.345455
238.901336	1493.948252
241.405987	1502.017483
243.909962	1497.930070
246.415362	1498.534266
248.915886	1497.766434
251.419933	1501.450350
253.917010	1496.562238
256.417609	1505.695804
258.915437	1504.895105
261.412592	1509.679720
263.909074	1510.454545
266.400693	1516.703497
268.895832	1516.395105
271.388205	1519.578322
273.879907	1516.935664
276.368845	1524.524476
278.859208	1525.427273
281.346808	1536.906294
283.831649	1535.120979
286.320005	1543.532867
288.801421	1542.764336
291.286351	1547.594406
293.766436	1547.556643
296.250033	1556.334266
298.728787	1550.084615
301.208965	1549.453846
303.686390	1548.386014
306.163152	1558.925175
308.639251	1563.418881
311.112601	1578.630769
313.585289	1590.560140
316.057316	1608.663636
318.528682	1623.655944
320.997304	1635.674825
323.465266	1642.492308
325.934650	1650.268531
328.399212	1645.695804
330.867278	1646.580420
333.330524	1643.796503
335.793112	1647.249650
338.255044	1644.808392
340.716319	1649.620979
343.174860	1653.082517
345.634823	1654.843357
348.092053	1655.767133
350.548629	1653.714685
353.004551	1649.637762
355.457744	1651.772028
357.912358	1645.814685
360.362171	1649.540559
362.815480	1651.185315
365.263991	1651.453846
367.711851	1650.505594
370.161132	1652.929371
372.605620	1653.259441
375.051530	1660.727972
377.496791	1661.194406
379.939332	1667.346154
382.381226	1668.515385
384.822473	1674.894406
387.261004	1672.689510
389.700957	1680.913986
392.138196	1681.718182
394.572723	1676.051748
397.010738	1675.198601
399.443976	1673.239860
401.878636	1667.869930
404.308522	1672.413287
406.741894	1668.095804
409.170496	1673.980420
411.598457	1677.419580
414.027838	1684.155245
416.452454	1691.447552
418.878492	1701.284615
421.303889	1705.129371
423.728646	1706.614685
426.148645	1710.915385
428.570065	1709.571329
430.988788	1706.556643
433.408932	1713.901399
435.826381	1720.670629
438.245250	1729.406993
440.661426	1731.545455
443.072855	1738.548951
445.487760	1742.231469
447.899975	1752.151748
450.311556	1758.697902
452.722503	1760.589510
455.130764	1759.385315
457.538392	1757.732867
459.945389	1761.030070
462.351753	1762.098601
464.755435	1767.434965
467.158487	1765.983217
469.560909	1761.168531
471.962701	1762.688112
474.361816	1758.488112
476.762350	1762.690909
479.162255	1760.111189
481.557437	1758.877622
483.956086	1754.857343
486.350015	1755.459441
488.743318	1755.848252
491.135995	1750.856643
493.528047	1750.682517
495.921517	1746.548951
498.310276	1743.295105
500.696368	1744.682517
503.083879	1737.206993
505.470768	1734.024476
507.854993	1731.561538
510.240637	1735.409091
512.623618	1731.504196
515.003939	1737.044056
517.385679	1737.493007
519.764760	1740.611189
522.145260	1742.900000
524.523102	1748.364336
526.898289	1751.132168
529.272858	1761.633566
531.648846	1763.895105
534.022180	1768.647552
536.396932	1772.062238
538.766999	1781.792308
541.136450	1783.459441
543.507319	1790.555245
545.873508	1792.893706
548.241115	1799.323776
550.606076	1802.081119
552.970424	1810.803497
555.334160	1814.158042
557.699312	1823.932867
560.059793	1821.941259
562.421692	1820.751049
564.780950	1820.839860
567.137571	1825.003497
569.497636	1822.428671
571.851011	1817.608392
574.207830	1813.039860
576.562013	1811.644056
578.915589	1803.986014
581.268556	1799.862937
583.618892	1793.082517
585.970644	1785.783217
588.315720	1779.391608
590.666260	1780.321678
593.010126	1777.502098
595.359454	1774.099301
597.704134	1772.793007
600.046188	1773.286014
602.389660	1774.136364
604.730509	1779.862937
607.070756	1778.523077
609.408382	1777.644056
611.749443	1775.806993
614.085866	1774.025874
616.423706	1771.472727
618.758929	1767.419580
621.091536	1756.492308
623.425559	1751.485315
625.756969	1747.701399
628.087780	1748.628671
630.417993	1747.320979
632.747608	1751.144056
635.072601	1749.055944
637.403035	1748.820280
639.728847	1748.957343
642.052053	1745.466434
644.376674	1741.667832
646.698690	1740.526573
649.020113	1736.891608
651.338932	1741.356643
653.659167	1739.660140
655.978809	1748.319580
658.295850	1744.260140
660.612299	1743.161538
662.926150	1746.497203
665.241417	1748.917483
667.554087	1743.774825
669.868172	1739.962937
672.177657	1732.381818
674.488558	1729.533566
676.796866	1723.162238
679.104586	1722.755245
681.413721	1714.930070
683.718263	1717.454545
686.022218	1708.040559
688.325588	1708.147552
690.630372	1709.604196
692.930570	1706.345455
695.232182	1700.755944
697.533210	1701.919580
699.829655	1696.087413
702.127516	1696.765035
704.424793	1692.965035
706.721487	1693.532168
709.013605	1691.453846
711.309134	1694.311888
713.600090	1691.025874
715.892460	1690.869231
718.182254	1688.156643
720.471468	1687.306993
722.760103	1683.775524
725.046166	1686.311888
727.333642	1684.181818
729.618547	1686.814685
731.902875	1685.622378
734.184634	1688.806294
736.467807	1692.276224
738.750403	1698.478322
741.028444	1701.354545
743.307898	1709.326573
745.586777	1709.411888
747.865080	1713.531469
750.138834	1714.765035
752.414002	1721.643357
754.688596	1725.123077
756.960630	1732.827273
759.234078	1735.223776
761.504968	1741.571329
763.773302	1745.417483
766.043049	1752.964336
768.310242	1751.790909
770.576864	1756.369930
772.842916	1751.719580
775.106417	1749.828671
777.371331	1748.144056
779.635675	1748.718182
781.895490	1745.449650
784.156717	1746.661538
786.417377	1746.502797
788.675491	1746.086014
790.931060	1749.639860
793.190020	1748.741958
795.442481	1748.752448
797.700309	1754.299301
799.953617	1750.283916
802.204386	1745.955245
804.456567	1745.846853
806.706210	1742.229371
808.957264	1734.512587
811.203807	1727.292308
813.451762	1722.804895
815.697183	1721.020979
817.944015	1723.560140
820.190286	1719.417483
822.432053	1724.886014
824.677202	1727.294406
826.915879	1725.046154
829.157938	1724.644056
831.395499	1730.719580
833.634472	1728.616084
835.870918	1722.700000
838.108775	1717.686014
840.344107	1717.160839
842.576916	1719.880420
844.811136	1716.062937
847.042834	1717.137063
849.273976	1719.082517
851.504565	1713.672028
853.734598	1707.095105
855.964078	1708.134965
858.189076	1716.541259
860.417449	1720.823776
862.641343	1721.586014
864.866647	1730.896503
867.087476	1733.206993
869.311677	1742.262238
871.531405	1739.159441
873.752544	1744.350350
875.973132	1744.653147
878.191210	1735.872028
880.410698	1729.652448
882.625720	1731.261538
884.840195	1733.007692
887.054121	1734.823077
889.267501	1731.441958
891.480333	1734.431469
893.692619	1731.562238
895.902402	1737.010490
898.111640	1732.744056
900.320333	1739.960839
902.526527	1744.480420
904.734130	1743.827972
906.939235	1746.290909
909.143797	1745.835664
911.345864	1749.306294
913.549340	1753.093007
915.750322	1752.046853
917.950763	1752.148252
920.152611	1751.807692
922.348069	1761.806993
924.546886	1762.681119
926.741264	1772.268531
928.939000	1778.044056
931.132300	1782.213287
933.327009	1782.529371
935.519232	1782.520979
937.710917	1782.411888
939.902064	1786.983916
942.090728	1790.239161
944.278855	1790.200000
946.464502	1792.559441
948.653501	1804.362937
950.838077	1803.943357
953.022118	1805.975524
955.209509	1808.686014
957.388596	1817.627273
959.571034	1820.086014
961.752938	1824.226573
963.932368	1830.616084
966.109324	1846.502797
968.287689	1853.604895
970.467461	1851.751049
972.640884	1861.562937
974.817653	1864.246154
976.990015	1859.269930
979.163785	1854.549650
981.333151	1856.102098
983.505861	1860.023077
985.676106	1864.887413
987.845822	1862.199301
990.015009	1868.057343
992.179799	1877.514685
994.347930	1880.509091
996.511667	1883.539860
998.676810	1891.945455
1000.839495	1892.201399
1003.001653	1899.270629
1005.161355	1902.954545
1007.320533	1903.828671
1009.481117	1908.928671
1011.639246	1908.397902
1013.796851	1900.898601
1015.953933	1900.454545
1018.110492	1894.433566
1020.262671	1891.298601
1022.416256	1888.011189
1024.569320	1884.860839
1026.719936	1892.513287
1028.871957	1901.048252
1031.019605	1908.341259
1033.170585	1921.281119
1035.317194	1943.261538
1037.463285	1950.000000
1039.608856	1961.050350
1041.755833	1968.193007
1043.896521	1964.143357
1046.040539	1971.045455
1048.182116	1970.623077
1050.323177	1967.511888
1052.465642	1969.542657
1054.601828	1970.710490
1056.741340	1972.314685
1058.876496	1981.418881
1061.014977	1990.442657
1063.149104	1997.086014
1065.282718	2001.593007
1067.417737	2007.090210
1069.548406	2015.316783
1071.680480	2025.061538
1073.810125	2026.009790
1075.939258	2028.223776
1078.067879	2033.662937
1080.195989	2041.167133
1082.321673	2047.057343
1084.446847	2044.147552
1086.573425	2053.793706
1088.695666	2052.925175
1090.819310	2058.483916
1092.938621	2054.728671
1095.063160	2056.776224
1097.181454	2056.064336
1099.301153	2055.089510
1101.418433	2052.608392
1103.535207	2053.206294
1105.651474	2059.769231
1107.765326	2055.015385
1109.880581	2040.213986
1111.991513	2042.370629
1114.105758	2028.079021
1116.215682	2020.448252
1118.327010	1999.732168
1120.437833	1993.739860
1122.544340	1985.227972
1124.654157	1979.740559
1126.759659	1964.306294
1128.866564	1966.340559
1130.967254	1967.360839
1133.073156	1957.333566
1135.174749	1947.048951
1137.277745	1942.762238
1139.380240	1936.850350
1141.476528	1929.379021
1143.578024	1927.753147
1145.675216	1925.167133
1147.771911	1914.729371
1149.868107	1910.374825
1151.963806	1899.723776
1154.059006	1905.649650
1156.151811	1902.625175
1158.246017	1901.733566
1160.334032	1896.974825
1162.427245	1902.439161
1164.514270	1902.770629
1166.604594	1901.390210
1168.690631	1902.836364
1170.779965	1897.806294
1172.863118	1891.913986
1174.947673	1878.725874
1177.033630	1876.097902
1179.115305	1877.798601
1181.198382	1874.732867
1183.279073	1874.876224
1185.359272	1874.909091
1187.438980	1876.495804
1189.518197	1872.120280
1191.595032	1870.772028
1193.669486	1869.991608
1195.747231	1862.941259
1197.820707	1855.115385
1199.895583	1844.100000
1201.966192	1842.624476
1204.038203	1839.723776
1206.107837	1831.476923
1208.178872	1827.974126
1210.249419	1829.226573
1212.315705	1828.327972
1214.383392	1827.045455
1216.448707	1831.104895
1218.515422	1833.569231
1220.577881	1832.879021
1222.643625	1828.416783
1224.705116	1823.018182
1226.768006	1822.796503
1228.828529	1820.401399
1230.888568	1816.190909
1232.948125	1818.651748
1235.005316	1821.250350
1237.062026	1825.792308
1239.116373	1823.142657
1241.174000	1825.943357
1243.229265	1826.759441
1245.280289	1827.686713
1247.332713	1820.200000
1249.384657	1816.553147
1251.434243	1814.290909
1253.483350	1810.623077
1255.531979	1811.509091
1257.580129	1819.730070
1259.627800	1823.743357
1261.671242	1835.877622
1263.717958	1831.827972
1265.762321	1833.445455
1267.806208	1831.834266
1269.847743	1828.574126
1271.886929	1821.368531
1273.929388	1817.698601
1275.967624	1816.728671
1278.007259	1826.493706
1280.046419	1833.830070
1282.081360	1838.610490
1284.117700	1849.095804
1286.151696	1857.251748
1288.187090	1848.271329
1290.218270	1841.586713
1292.250848	1830.095105
1294.282955	1818.110490
1296.312721	1815.459441
1298.343885	1812.925874
1300.370841	1819.784615
1302.399195	1824.596503
1304.423345	1824.809091
1306.450759	1822.847552
1308.473971	1832.656643
1310.498581	1835.593706
1312.520857	1837.922378
1314.544530	1834.234965
1316.565870	1827.638462
1318.586742	1826.291608
1320.607147	1825.490909
1322.623359	1822.641958
1324.640968	1819.669231
1326.656249	1818.826573
1328.674789	1816.800000
1330.689140	1815.939860
1332.701165	1819.030769
1334.716447	1824.360140
1336.727544	1818.897203
1338.740038	1808.186713
1340.748349	1798.988112
1342.759916	1797.831469
1344.765443	1791.992308
1346.774226	1791.122378
1348.778831	1796.158042
1350.786690	1805.411888
1352.794087	1804.883217
1354.795453	1808.067832
1356.798216	1809.054545
1358.800518	1810.180420
1360.802361	1801.077622
1362.803744	1800.237063
1364.802814	1798.758741
1366.801425	1800.551049
1368.799578	1802.199301
1370.797272	1803.578322
1372.790804	1809.081818
1374.785732	1809.254545
1376.780202	1807.055245
1378.774217	1802.751049
1380.765923	1795.372028
1382.757175	1793.711888
1384.746121	1788.990909
1386.736462	1791.934965
1388.726348	1785.695804
1390.713931	1782.656643
1392.701059	1779.495105
1394.685886	1780.690210
1396.672108	1777.733566
1398.656030	1777.897902
1400.639499	1772.974825
1402.622515	1770.902098
1404.603234	1770.600699
1406.585347	1775.587413
1408.565164	1780.643357
1410.544529	1788.213986
1412.519756	1783.674825
1414.498222	1792.490210
1416.474393	1793.226573
1418.450116	1798.503497
1420.425389	1789.097203
1422.398371	1789.565035
1424.370905	1785.827273
1426.342992	1792.432168
1428.314630	1795.083916
1430.282140	1799.288112
1432.254724	1801.562238
1434.219503	1801.632867
1436.189353	1800.083916
1438.155080	1802.162937
1440.122199	1792.746154
1442.087035	1789.734965
1444.047751	1780.972028
1446.013536	1782.755245
1447.973365	1783.110490
1449.934587	1781.730769
1451.897202	1782.480420
1453.855702	1785.671329
1455.813759	1781.244755
1457.771375	1778.430769
1459.728549	1778.435664
1461.683447	1778.318881
1463.639737	1777.811888
1465.593753	1781.637063
1467.547329	1780.868531
1469.498632	1784.460140
1471.451327	1775.716783
1473.401751	1767.917483
1475.351735	1767.990909
1477.301281	1770.911888
1479.248558	1767.823077
1481.193568	1769.738462
1483.139969	1780.171329
1485.085933	1785.162238
1487.031460	1782.916084
1488.974722	1786.383217
1490.917547	1786.009790
1492.858109	1777.995804
1494.800062	1768.433566
1496.739753	1766.162937
1498.679010	1770.932867
1500.617831	1773.776224
1502.554393	1771.763636
1504.492346	1776.961538
1506.428040	1781.625175
1508.363301	1777.016084
1510.296306	1774.158741
1512.228878	1772.611189
1514.161018	1766.754545
1516.092726	1762.017483
1518.022180	1763.625175
1519.953025	1766.420979
1521.883438	1774.393007
1523.809779	1780.426573
1525.737511	1776.113287
1527.662992	1780.829371
1529.588044	1778.129371
1531.512667	1773.099301
1533.436861	1767.818881
1535.358807	1764.672028
1537.282144	1762.260839
1539.203235	1771.391608
1541.122081	1773.469231
1543.042316	1778.169930
1544.960309	1780.408392
1546.877875	1782.787413
1548.793199	1771.435664
1550.709913	1776.573427
1552.622572	1768.603497
1554.538435	1762.003497
1556.452058	1758.660839
1558.363444	1758.192308
1560.276218	1756.709790
1562.184943	1758.683916
1564.095058	1754.296503
1566.004748	1752.498601
1567.914016	1744.423077
1569.821050	1743.448252
1571.725851	1740.166434
1573.632041	1748.424476
1575.535999	1748.130070
1577.439537	1751.214685
1579.342653	1754.931469
1581.243540	1753.986014
1583.145816	1753.458042
1585.045864	1752.989510
1586.947299	1748.228671
1588.844701	1742.798601
1590.741684	1738.534965
1592.638249	1740.593706
1594.536202	1739.777622
1596.428320	1745.298601
1598.323631	1747.198601
1600.218525	1747.635664
1602.111197	1739.981119
1604.003453	1740.120280
1605.893488	1743.886713
1607.783109	1742.195105
1609.672313	1735.023776
1611.561103	1741.086713
1613.447675	1738.195804
1615.335635	1732.676224
1617.219578	1730.916084
1619.104909	1730.057343
1620.989825	1727.535664
1622.872528	1724.058042
1624.756618	1720.161538
1626.636697	1733.593007
1628.518162	1738.788811
1630.397417	1743.472727
1632.278058	1747.519580
1634.152895	1755.327972
1636.032714	1743.460839
1637.908527	1740.876224
1639.783930	1733.752448
1641.660719	1732.076923
1643.531712	1724.155944
1645.405886	1722.672028
1647.276062	1722.657343
1649.149418	1721.631469
1651.020571	1718.891608
1652.889522	1724.129371
1654.759859	1725.759441
1656.626202	1729.328671
1658.493931	1725.076224
1660.359461	1730.403497
1662.226377	1721.461538
1664.089304	1718.586014
1665.953616	1713.255944
1667.815732	1710.792308
1669.677444	1702.723077
1671.540540	1692.806993
1673.401442	1684.888112
1675.260150	1686.826573
1677.118455	1683.551049
1678.978145	1681.558741
1680.832068	1684.640559
1682.689163	1687.076923
1684.545856	1694.230070
1686.398573	1702.987413
1688.254460	1708.825874
1690.106374	1713.302797
1691.957887	1711.982517
1693.808999	1711.620979
1695.659711	1709.700699
1697.510022	1709.990210
1699.358148	1709.167133
1701.207659	1705.769231
1703.051421	1706.396503
1704.900132	1706.900699
1706.743098	1710.790210
1708.589229	1702.639161
1710.431399	1688.413287
1712.276733	1684.364336
1714.116327	1674.774825
1715.957305	1670.509790
1717.799666	1668.781119
1719.638071	1671.688112
1721.477859	1679.090210
1723.315472	1674.333566
1725.152689	1685.639860
1726.987733	1699.869231
1728.824160	1705.741259
1730.658415	1708.971329
1732.492275	1708.527273
1734.325742	1710.078322
1736.155262	1707.661538
1737.987941	1701.132867
1739.816676	1699.397203
1741.648568	1700.803497
1743.476519	1690.941259
1745.304077	1672.138462
1747.131243	1665.609091
1748.958018	1669.324476
1750.784402	1668.801399
1752.606848	1666.685315
1754.432450	1665.032867
1756.254117	1662.277622
1758.077166	1659.662238
1759.898053	1653.634266
1761.718552	1653.610490
1763.540432	1658.867832
1765.356612	1649.626573
1767.175944	1641.523776
1768.991349	1645.156643
1770.809904	1656.420280
1772.624534	1660.446154
1774.438778	1665.072028
1776.252634	1675.191608
1778.066104	1680.446853
1779.877421	1679.976923
1781.690119	1673.409790
1783.502430	1673.270629
1785.310824	1673.775524
1787.120598	1656.880420
1788.926458	1651.508392
1790.735463	1645.232867
1792.540555	1645.265734
1794.347028	1642.639161
1796.153117	1642.502098
1797.955296	1648.212587
1799.760618	1645.540559
1801.562032	1644.100000
1803.364826	1644.747552
1805.163714	1655.029371
1806.963983	1652.074825
1808.763870	1646.360839
1810.561616	1647.876923
1812.358980	1650.306294
1814.155965	1660.956643
1815.952569	1657.963636
1817.747034	1658.148252
1819.542878	1655.906993
1821.333068	1648.076224
1823.128153	1653.950350
1824.917587	1651.702797
1826.710157	1645.739860
1828.500592	1637.059441
1830.288893	1632.006294
1832.080329	1627.434965
1833.866119	1615.472727
1835.653289	1612.875524
1837.438327	1601.378322
1839.226499	1603.134266
1841.010785	1601.865734
1842.792942	1607.997203
1844.576477	1617.524476
1846.357884	1617.291608
1848.140670	1618.422378
1849.919575	1630.992308
1851.699860	1633.201399
1853.478018	1633.369930
1855.257555	1624.842657
1857.034967	1627.032867
1858.810255	1622.962238
1860.586922	1623.829371
1862.361465	1621.917483
1864.137387	1625.508392
1865.907688	1629.293706
1867.681117	1637.172727
1869.452426	1634.592308
1871.223365	1640.091608
1872.995680	1636.268531
1874.762382	1635.790210
1876.532210	1632.972028
1878.298174	1629.045455
1880.067262	1621.389510
1881.832488	1618.395804
1883.597345	1615.126573
1885.363580	1615.250350
1887.125956	1613.199301
1888.887965	1609.882517
1890.649606	1599.855944
1892.410881	1601.026573
1894.171788	1597.183916
1895.932329	1598.874126
1897.690760	1591.756643
1899.448826	1587.142657
1901.204783	1580.661538
1902.962117	1579.128671
1904.719086	1569.748951
1906.473949	1571.342657
1908.226706	1572.000699
1909.979100	1576.781818
1911.732869	1578.216783
1913.484535	1583.272727
1915.234099	1585.123077
1916.985038	1591.725874
1918.735615	1586.482517
1920.482352	1588.867832
1922.230466	1581.223077
1923.976480	1573.693706
1925.723870	1566.517483
1927.469161	1572.423776
1929.212355	1578.151748
1930.956924	1576.303497
1932.699398	1574.145455
1934.441511	1575.372727
1936.183264	1578.346503
1937.924658	1584.520280
1939.663957	1583.140909
1941.402898	1583.395105
1943.141481	1579.014336
1944.877971	1580.030070
1946.614104	1579.021329
1948.351611	1581.625175
1950.085296	1579.484965
1951.820356	1573.857343
1953.553328	1566.894755
1955.285942	1568.425874
1957.018201	1566.347902
1958.750103	1567.269930
1960.479919	1569.907692
1962.207650	1572.760140
1963.936756	1573.640559
1965.665507	1579.092308
1967.392174	1580.100699
1969.118487	1577.913986
1970.846173	1577.339161
1972.568323	1575.565734
1974.293574	1574.309091
1976.015019	1580.628671
1977.739563	1577.125175
1979.462028	1584.430070
1981.180689	1588.893007
1982.902449	1589.035664
1984.620407	1587.689510
1986.339738	1592.958741
1988.055270	1584.318182
1989.775622	1583.527972
1991.492176	1578.706294
1993.204933	1581.175524
1994.920787	1579.344056
1996.634567	1582.299301
1998.347998	1583.798601
2000.059358	1588.088811
2001.772090	1585.838462
2003.481032	1588.793706
2005.193067	1593.008392
2006.899592	1592.955245
2008.609210	1581.068531
2010.316760	1587.250350
2012.023963	1579.100699
2013.729100	1582.074825
2015.433890	1578.340559
2017.140052	1580.709091
2018.842432	1582.781119
2020.546184	1584.420280
2022.247872	1583.262937
2023.949216	1583.867832
2025.650214	1583.691608
2027.349151	1580.837762
2029.049460	1579.244755
2030.745994	1584.906993
2032.443899	1582.338462
2034.139745	1587.729371
2035.838677	1586.830769
2037.532123	1587.874126
2039.226940	1586.497902
2040.921415	1588.546853
2042.612121	1583.580420
2044.305911	1579.321678
2045.995934	1573.118881
2047.687328	1570.639860
2049.376669	1572.207692
2051.067380	1571.928671
2052.754328	1571.741259
2054.440937	1565.197902
2056.128916	1556.683217
2057.813135	1551.691608
2059.498724	1539.227273
2061.183974	1535.856643
2062.867176	1528.596503
2064.551747	1524.583916
2066.230856	1523.269930
2067.914750	1528.803497
2069.593184	1533.652448
2071.274694	1538.713287
2072.952454	1540.099301
2074.629876	1536.347552
2076.308668	1534.201399
2077.985418	1532.235664
2079.660126	1526.344755
2081.336203	1529.760140
2083.010240	1529.706993
2084.683941	1525.907692
2086.357307	1527.865734
2088.028635	1528.653846
2089.699628	1523.770629
2091.370287	1524.217483
2093.040611	1520.377622
2094.710602	1519.320280
2096.378557	1513.024476
2098.046179	1515.776923
2099.711766	1514.744755
2101.378723	1519.123776
2103.043645	1518.065734
2104.708236	1520.325175
2106.370795	1527.332168
2108.034722	1535.809091
2109.696619	1536.637762
2111.358184	1544.273427
2113.019418	1546.788112
2114.678624	1548.267133
2116.337499	1543.564336
2117.996045	1544.398601
2119.654261	1543.992308
2121.308753	1538.103497
2122.966310	1532.086713
2124.623538	1532.855245
2126.277044	1535.112587
2127.931918	1535.711888
2129.583074	1533.251748
2131.237291	1537.792308
2132.887792	1540.484615
2134.539659	1537.861538
2136.186118	1538.369231
2137.837332	1543.294406
2139.484832	1542.600000
2141.133699	1539.379720
2142.780548	1537.151748
2144.427070	1539.653147
2146.073267	1542.594406
2147.715756	1536.887413
2149.361303	1535.546154
2151.003143	1533.934965
2152.648040	1528.137762
2154.289232	1519.714685
2155.930100	1515.227972
2157.570644	1514.490909
2159.209176	1506.523776
2160.849074	1511.414685
2162.485272	1507.288112
2164.122837	1511.748951
2165.760078	1512.293706
2167.395310	1513.132168
2169.030221	1515.148252
2170.664810	1511.421678
2172.299077	1508.886713
2173.929651	1507.189510
2175.563277	1500.677622
2177.193211	1502.373427
2178.824510	1505.941958
2180.453804	1513.411888
2182.082779	1511.497902
2183.711434	1512.049650
2185.339770	1513.406993
2186.966104	1516.369231
2188.592119	1511.424476
2190.216133	1509.416783
2191.841511	1506.725874
2193.464890	1500.772028
2195.089632	1484.376224
2196.710694	1481.181818
2198.331439	1477.953147
2199.953549	1473.529371
2201.573661	1462.591608
2203.191776	1458.780420
2204.809576	1460.527273
2206.427061	1457.688112
2208.044230	1458.586014
2209.661084	1464.255944
2211.277623	1464.867832
2212.892168	1469.200699
2214.504721	1463.490210
2216.118638	1469.940559
2217.730564	1473.193706
2219.343853	1473.918182
2220.955152	1473.468531
2222.564461	1476.186713
2224.175134	1473.390909
2225.783818	1467.534965
2227.392190	1467.560140
2228.998574	1467.397203
2230.606322	1465.351748
2232.212083	1471.459441
2233.817533	1471.840559
2235.420998	1477.569231
2237.025826	1484.672028
2238.628670	1483.102098
2240.229532	1483.510490
2241.831755	1488.688811
2243.431997	1485.182517
2245.033601	1478.553147
2246.631553	1478.458741
2248.230867	1481.023776
2249.828201	1477.409790
2251.425226	1481.035664
2253.023614	1484.666434
2254.618353	1483.741958
2256.211115	1480.553846
2257.805240	1474.754545
2259.400726	1472.341958
2260.992568	1475.462937
2262.584103	1469.112587
2264.176999	1462.938462
2265.764586	1459.951748
2267.356870	1462.403497
2268.943846	1455.309790
2270.533851	1457.163636
2272.118551	1458.541958
2273.707944	1457.265035
2275.292036	1454.041259
2276.877489	1452.558741
2278.460972	1447.321678
2280.047482	1443.114685
2281.630358	1438.148252
2283.212930	1431.557343
2284.795199	1427.123077
2286.373839	1427.720979
2287.955502	1427.300699
2289.533537	1429.737762
2291.114595	1431.004196
2292.692026	1431.051748
2294.267494	1426.681818
2295.845984	1426.300699
2297.420850	1418.287413
2298.995415	1414.869231
2300.569680	1406.072727
2302.143644	1396.362238
2303.717308	1393.246154
2305.290671	1399.748252
2306.860416	1409.195105
2308.429862	1404.048252
2310.002326	1404.602797
2311.569516	1404.339161
2313.139724	1402.644755
2314.706317	1405.226573
2316.274270	1407.594406
2317.840267	1415.093007
2319.405967	1414.160140
2320.971370	1419.210490
2322.534818	1433.428671
2324.099626	1451.674825
2325.660826	1461.645455
2327.225040	1464.283916
2328.783992	1469.134266
2330.345959	1472.664336
2331.905975	1462.284615
2333.465695	1463.781818
2335.023466	1451.569231
2336.580942	1443.157343
2338.138124	1440.123776
2339.693358	1433.158741
2341.248299	1430.518182
2342.802946	1429.848951
2344.357299	1425.451049
2345.911358	1422.070629
2347.465123	1414.653147
2349.016945	1406.091608
2350.566823	1392.383217
2352.119709	1398.618182
2353.667353	1383.648951
2355.218004	1395.981818
2356.765064	1403.393706
2358.313483	1404.852448
2359.861609	1416.936364
2361.406147	1420.423776
2362.952043	1423.030769
2364.496001	1420.984615
2366.041316	1418.924476
2367.583046	1405.947552
2369.126133	1399.919580
2370.667285	1404.595105
2372.208147	1403.370629
2373.748719	1415.976224
2375.289003	1418.297203
2376.828998	1423.261538
2378.365415	1428.364336
2379.904833	1424.295804
2381.440674	1432.900000
2382.977871	1439.870629
2384.511493	1436.408392
2386.048116	1435.098601
2387.582807	1438.297902
2389.115569	1451.783916
2390.648044	1451.236364
2392.178591	1447.216783
2393.712136	1431.393007
2395.240470	1423.504895
2396.770161	1418.542657
2398.299566	1414.932867
2399.828685	1416.877622
2401.357520	1423.441958
2402.881149	1426.050350
2404.409415	1430.847552
2405.932477	1431.412587
2407.460173	1438.602797
2408.981030	1423.518182
2410.506520	1417.783916
2412.028449	1409.047552
2413.551734	1410.880420
2415.073098	1413.015385
2416.592542	1410.870629
2418.113341	1412.215385
2419.632221	1421.709790
2421.150819	1423.503497
2422.667500	1416.988811
2424.185535	1411.857343
2425.703289	1411.533566
2427.217492	1401.513287
2428.731414	1403.404895
2430.245056	1400.027273
2431.760053	1395.477622
2433.271501	1394.156643
2434.784304	1394.955944
2436.295193	1400.390909
2437.805804	1404.262937
2439.314503	1407.947552
2440.826188	1409.596503
2442.334330	1411.735664
2443.842194	1414.833566
2445.349780	1408.104196
2446.853825	1406.409091
2448.360856	1402.580420
2449.865978	1400.930070
2451.370823	1394.808392
2452.873760	1392.481119
2454.376422	1384.303497
2455.878807	1381.548951
2457.379287	1369.795804
2458.881120	1360.834965
2460.381049	1359.134965
2461.880702	1350.671329
2463.380079	1343.182517
2464.877554	1344.163636
2466.373127	1352.558042
2467.871680	1361.746154
2469.366705	1366.923776
2470.863082	1378.900000
2472.355933	1381.375524
2473.850137	1388.493007
2475.344067	1379.165734
2476.834473	1379.179021
2478.327857	1370.548951
2479.819343	1363.191608
2481.308932	1355.904196
2482.798249	1355.862937
2484.285671	1361.176224
2485.776068	1364.571329
2487.262946	1367.491608
2488.751176	1377.046154
2490.235890	1375.873427
2491.720333	1376.179720
2493.206128	1373.547552
2494.690030	1375.870629
2496.175284	1366.697902
2497.655403	1367.454545
2499.138496	1361.252448
2500.619698	1367.077622
2502.100631	1366.446154
2503.579675	1366.191608
2505.058450	1367.045455
2506.536957	1372.423077
2508.015196	1369.168531
2509.493166	1369.060140
2510.967632	1371.519580
2512.445066	1377.219580
2513.918997	1374.128671
2515.394278	1370.500699
2516.869293	1371.733566
2518.340806	1366.863636
2519.813669	1362.485315
2521.284650	1362.634266
2522.756981	1363.134965
2524.224199	1367.256643
2525.694382	1368.165035
2527.162685	1368.894406
2528.630723	1370.695105
2530.098496	1372.973427
2531.566004	1376.076224
2533.033247	1377.039161
2534.496998	1387.027273
2535.962099	1390.825175
2537.425323	1396.872028
2538.889897	1397.784615
2540.350981	1396.893706
2541.813415	1396.225175
2543.275586	1390.322378
2544.734271	1387.854545
2546.197528	1382.195105
2547.655688	1375.945455
2549.115197	1378.707692
2550.569613	1375.359441
2552.028598	1373.484615
2553.485712	1376.564336
2554.940955	1365.367133
2556.395937	1359.959441
2557.849049	1359.567832
2559.303510	1357.637063
2560.756102	1356.046154
2562.208434	1361.554545
2563.658898	1362.737762
2565.112318	1364.423077
2566.560656	1368.686713
2568.011950	1365.379021
2569.461377	1352.200000
2570.907332	1349.068531
2572.356242	1336.719580
2573.801682	1340.784615
2575.248470	1341.938462
2576.693394	1342.059441
2578.138060	1341.853147
2579.584075	1346.500699
2581.026622	1350.693007
2582.470517	1360.241958
2583.910947	1359.692308
2585.352724	1357.198601
2586.792642	1344.597203
2588.233907	1340.367832
2589.671711	1335.815385
2591.112464	1335.779720
2592.548154	1328.031469
2593.986794	1330.092308
2595.423576	1324.140559
2596.858503	1329.162238
2598.296377	1326.641958
2599.729194	1330.636364
2601.163358	1323.083916
2602.595668	1324.376923
2604.029324	1323.327273
2605.461127	1321.681818
2606.892676	1329.041259
2608.323973	1326.399301
2609.753417	1328.839860
2611.182609	1328.725175
2612.609951	1324.351748
2614.038638	1325.790909
2615.467074	1316.302797
2616.892062	1315.469930
2618.318397	1309.469231
2619.742883	1314.694406
2621.168715	1312.288811
2622.591103	1315.158042
2624.014837	1322.966434
2625.436724	1320.837063
2626.858362	1321.258042
2628.278154	1317.988811
2629.699292	1317.165734
2631.120180	1313.299301
2632.537630	1317.958741
2633.958019	1321.991608
2635.374971	1318.023077
2636.791674	1321.618182
2638.208130	1318.150350
2639.624336	1329.991608
2641.040295	1330.407692
2642.454413	1326.757343
2643.868284	1326.451049
2645.280315	1321.003497
2646.693691	1314.547552
2648.103637	1312.776224
2649.516518	1312.369930
2650.925971	1306.027273
2652.335178	1294.332867
2653.742549	1286.260140
2655.152855	1283.826573
2656.561324	1289.962937
2657.967958	1289.858741
2659.374347	1294.334965
2660.778902	1303.753147
2662.184801	1299.647552
2663.588867	1298.123077
2664.992688	1299.331469
2666.396266	1303.241958
2667.798011	1307.327273
2669.201100	1307.618182
2670.600771	1310.767832
2672.001786	1316.525874
2673.399385	1322.336364
2674.799914	1326.197203
2676.197028	1327.216084
2677.595485	1322.157343
2678.992114	1316.118881
2680.388501	1305.525175
2681.784647	1301.304196
2683.178966	1302.802098
2684.574628	1301.111888
2685.966880	1307.152448
2687.360475	1315.117483
2688.752247	1314.252448
2690.145360	1309.290909
2691.536650	1305.789510
2692.926117	1307.546154
2694.315344	1303.190210
2695.704332	1304.931469
2697.094662	1298.762937
2698.480007	1299.487413
2699.868276	1298.518182
2701.254725	1303.058042
2702.640935	1304.985315
2704.026907	1304.906294
2705.409479	1295.500000
2706.793394	1293.993007
2708.177071	1289.865035
2709.560510	1295.430070
2710.940553	1289.660839
2712.321938	1284.694406
2713.701507	1279.163636
2715.082418	1284.102098
2716.461513	1286.248951
2717.838795	1288.731469
2719.217418	1281.504895
2720.594228	1288.904196
2721.970802	1283.328671
2723.347140	1289.670629
2724.721666	1285.414685
2726.097533	1293.211189
2727.470013	1288.670629
2728.845409	1286.541259
2730.215845	1284.296503
2731.587622	1287.641259
2732.959164	1286.727972
2734.328898	1280.488112
2735.699973	1276.849650
2737.069239	1279.784615
2738.438273	1271.446154
2739.805499	1270.284615
2741.172493	1266.134266
2742.539254	1271.511189
2743.905782	1264.980420
2745.270505	1266.055944
2746.634997	1261.289510
2747.999256	1264.052448
2749.363283	1263.606294
2750.727079	1265.318881
2752.087501	1268.427273
2753.450834	1271.218182
2754.809224	1270.923776
2756.170524	1269.940559
2757.528453	1266.730769
2758.889291	1267.195804
2760.248330	1260.610490
2761.604000	1263.989510
2762.962578	1261.983217
2764.317789	1263.698601
2765.672772	1261.053846
2767.025957	1266.921678
2768.382049	1265.449650
2769.734777	1268.709790
2771.087276	1277.333566
2772.439547	1282.760839
2773.793157	1276.331469
2775.143405	1269.501399
2776.491860	1266.924476
2777.843219	1264.490909
2779.191219	1259.398601
2780.540557	1255.455245
2781.888104	1247.413287
2783.235423	1246.551049
2784.582516	1241.303497
2785.927818	1243.417483
2787.272894	1249.181818
2788.617743	1246.738462
2789.962367	1233.820280
2791.303639	1225.867832
2792.646249	1220.771329
2793.988633	1214.035664
2795.330793	1207.462238
2796.669603	1207.175524
2798.011312	1204.838462
2799.349674	1200.658042
2800.689373	1211.293706
2802.027286	1221.268531
2803.363415	1237.949650
2804.699320	1247.253846
2806.036563	1255.065035
2807.372022	1259.775524
2808.707258	1260.064336
2810.040711	1260.944056
2811.375502	1256.816783
2812.706951	1258.353147
2814.041296	1257.311888
2815.370743	1245.065035
2816.701527	1252.708392
2818.032089	1250.975524
2819.360872	1260.697203
2820.690991	1263.559441
2822.019332	1262.787413
2823.347452	1260.597902
2824.673794	1263.876224
2826.001473	1266.202098
2827.325818	1262.484615
2828.651500	1258.929371
2829.975406	1258.374825
2831.299093	1253.900699
2832.624115	1243.593007
2833.945807	1237.818182
2835.267281	1232.509091
2836.588536	1233.029371
2837.909572	1229.095105
2839.228836	1230.306294
2840.549435	1233.233566
2841.868262	1233.760839
2843.186871	1236.018881
2844.503709	1234.935664
2845.820330	1234.706993
2847.136734	1234.183217
2848.451368	1218.444056
2849.767338	1215.843357
2851.079987	1207.390210
2852.393972	1213.658042
2853.707739	1210.674126
2855.021291	1207.363636
2856.333075	1208.727972
2857.643093	1213.493007
2858.954446	1218.910490
2860.262484	1213.489510
2861.571857	1210.769231
2862.881014	1203.783916
2864.189956	1196.547552
2865.497134	1202.881818
2866.802550	1209.634266
2868.109300	1222.013287
2869.414287	1227.302797
2870.719061	1235.035664
2872.022073	1236.201399
2873.327967	1240.881818
2874.629005	1242.654545
2875.931378	1233.563636
2877.231991	1227.841958
2878.533938	1219.667133
2879.835672	1223.424476
2881.134101	1232.793706
2882.433865	1233.146154
2883.731870	1236.431469
2885.029664	1239.730769
2886.325702	1237.369231
2887.623073	1233.540559
2888.918688	1233.528671
2890.214092	1224.500699
2891.509285	1215.600000
2892.801181	1209.759441
2894.095953	1213.300699
2895.387428	1216.062238
2896.680236	1218.227273
2897.972834	1211.859441
2899.262138	1213.304196
2900.552774	1209.955245
2901.841659	1216.593706
2903.131877	1221.179021
2904.418802	1220.672028
2905.707061	1214.860140
2906.993569	1220.620280
2908.279870	1222.934266
2909.565962	1229.806993
2910.850306	1230.337063
2912.137521	1234.320979
2913.419910	1234.617483
2914.703631	1230.447552
2915.985606	1223.870629
2917.267373	1226.155245
2918.547396	1215.467832
2919.830288	1210.692308
2921.111435	1204.939161
2922.389300	1204.841259
2923.670034	1203.676923
2924.947487	1207.320280
2926.224734	1209.029371
2927.500240	1216.058042
2928.778613	1210.840559
2930.052171	1211.900000
2931.328597	1210.772028
2932.603282	1210.209790
2933.876227	1205.061538
2935.150502	1202.997203
2936.423038	1195.931469
2937.695370	1193.488811
2938.964428	1190.924476
2940.236352	1192.398601
2941.506538	1183.801399
2942.776521	1176.769930
2944.046300	1169.723776
2945.314342	1179.128671
2946.580649	1183.683916
2947.846753	1191.648951
2949.114187	1193.409790
2950.379887	1199.090210
2951.645384	1201.304196
2952.910679	1207.827972
2954.172709	1208.944056
2955.436070	1213.681119
2956.699228	1207.609091
2957.960655	1203.541259
2959.223411	1201.429371
2960.484436	1201.424476
2961.743729	1198.535664
2963.002823	1201.988112
2964.261716	1193.291608
2965.520409	1194.311888
2966.778902	1191.860839
2968.035666	1194.900000
2969.292230	1200.872727
2970.547067	1207.201399
2971.803232	1205.041958
2973.056143	1208.679021
2974.310383	1207.683916
2975.564424	1204.997203
2976.816739	1201.912587
2978.068856	1202.390210
2979.319247	1191.702098
2980.572494	1184.886014
2981.820964	1177.071329
2983.072289	1179.959441
2984.320364	1186.472727
2985.568243	1181.771329
2986.815924	1180.687413
2988.063409	1180.199301
2989.309171	1177.164336
2990.554738	1177.278322
2991.801632	1183.449650
2993.045282	1186.389510
2994.290260	1181.718182
2995.531994	1179.799301
2996.776580	1176.182517
2998.019447	1186.351049
2999.259073	1184.665734
3000.501549	1182.496503
3001.740786	1180.971329
3002.981350	1181.816084
3004.220197	1182.458042
3005.458850	1186.940559
3006.695787	1191.435664
3007.934051	1192.909790
3009.170601	1187.091608
3010.406956	1188.323776
3011.643118	1181.770629
3012.877567	1186.555245
3014.111822	1180.741259
3015.345884	1181.910490
3016.578234	1180.010490
3017.808872	1179.818182
3019.042356	1170.080420
3020.274128	1170.765734
3021.504190	1173.893706
3022.734060	1176.993706
3023.962220	1174.708392
3025.191706	1180.152448
3026.419484	1186.559441
3027.647070	1192.686713
3028.875982	1194.751049
3030.100152	1193.616783
3031.327165	1194.500699
3032.550954	1189.955944
3033.776070	1183.372727
3034.999479	1180.115385
3036.222698	1177.814685
3037.444212	1181.469231
3038.668567	1176.843357
3039.888187	1180.625175
3041.109133	1179.360839
3042.329890	1173.785315
3043.548943	1173.683916
3044.769322	1171.052448
3045.986484	1174.882517
3047.204971	1178.470629
3048.421756	1172.741958
3049.638354	1170.466434
3050.854763	1169.161538
3052.067960	1181.525175
3053.283994	1176.110490
3054.496816	1173.576224
3055.712475	1166.993706
3056.923411	1167.776923
3058.135672	1168.340559
3059.347747	1168.436364
3060.559635	1172.427972
3061.769825	1176.208392
3062.979829	1173.996853
3064.189647	1176.284615
3065.397770	1172.984965
3066.605706	1179.906294
3067.811948	1175.163986
3069.019513	1171.079720
3070.225384	1161.946503
3071.431071	1165.988811
3072.636572	1162.015734
3073.840380	1165.641958
3075.045512	1167.448601
3076.248952	1167.709091
3077.450699	1162.791259
3078.652263	1159.726573
3079.853642	1155.945455
3081.054839	1155.485315
3082.254344	1155.620280
3083.453667	1153.595804
3084.654313	1147.493706
3085.853269	1160.953846
3087.049031	1169.532867
3088.247622	1179.310490
3089.443019	1182.332867
3090.639739	1181.606993
3091.833267	1177.104196
3093.029623	1174.732867
3094.224293	1172.725874
3095.415772	1169.607692
3096.611582	1161.447552
3097.802699	1151.076224
3098.995138	1141.658042
3100.184390	1145.190210
3101.376468	1144.237762
3102.566861	1145.251049
3103.754069	1141.172028
3104.942600	1141.267832
3106.132452	1140.199301
3107.319121	1148.331469
3108.505610	1150.944755
3109.691919	1148.466434
3110.879550	1143.662238
3112.064000	1142.756643
3113.246769	1140.216084
3114.432361	1144.729371
3115.616274	1139.709790
3116.798508	1145.400699
3117.980563	1142.272727
3119.162441	1146.739161
3120.344140	1146.755944
3121.524161	1152.227273
3122.702506	1144.540559
3123.883672	1140.116084
3125.061662	1133.056643
3126.239475	1133.336364
3127.417111	1127.921678
3128.593072	1130.494406
3129.768856	1127.839860
3130.945962	1134.539860
3132.121393	1127.084615
3133.295151	1132.951748
3134.467237	1133.076224
3135.640643	1139.842657
3136.813874	1136.158042
3137.985432	1133.903497
3139.158311	1130.339161
3140.328024	1137.723776
3141.499056	1136.104895
3142.668419	1140.038462
3143.836112	1142.253147
3145.006620	1146.477622
3146.172469	1141.287413
3147.342628	1147.629371
3148.508129	1150.548951
3149.673457	1155.622378
3150.838611	1150.183916
3152.003591	1152.929371
3153.169892	1149.231469
3154.331539	1146.371329
3155.494506	1137.915385
3156.657301	1129.919580
3157.819923	1122.971329
3158.980880	1117.751748
3160.141664	1106.380420
3161.302276	1099.284615
3162.461225	1090.179021
3163.620001	1086.801399
3164.778606	1077.698601
3165.937039	1078.949650
3167.095300	1070.950350
3168.251899	1077.825874
3169.406837	1082.013986
3170.563094	1085.032168
3171.717690	1085.593706
3172.872116	1091.199301
3174.024882	1091.069231
3175.177478	1096.376224
3176.329903	1093.331469
3177.482159	1099.971329
3178.634244	1095.230769
3179.783184	1099.927972
3180.934930	1098.638462
3182.085018	1107.357343
3183.233450	1112.379720
3184.381713	1113.989510
3185.529806	1110.648951
3186.677731	1116.962937
3187.824001	1114.806993
3188.970102	1119.376923
3190.114548	1119.444056
3191.258827	1125.588112
3192.402938	1120.285315
3193.548367	1122.806294
3194.690656	1120.851049
3195.832779	1125.869930
3196.974734	1125.900000
3198.116523	1123.236364
3199.258144	1122.040559
3200.396629	1119.600000
3201.536432	1110.538462
3202.677553	1114.504196
3203.815539	1115.639860
3204.951876	1113.334266
3206.088047	1108.969930
3207.225536	1114.211189
3208.361375	1117.481818
3209.498532	1122.267832
3210.631076	1118.732867
3211.767902	1121.065035
3212.900116	1115.372028
3214.033647	1109.274126
3215.167014	1102.817483
3216.297253	1102.657343
3217.430290	1097.381818
3218.560201	1085.202098
3219.691428	1079.062238
3220.819531	1075.525175
3221.950430	1070.593706
3223.079685	1066.155245
3224.207297	1059.733566
3225.331787	1063.448951
3226.460551	1059.911189
3227.586194	1068.432168
3228.711675	1067.744056
3229.835514	1071.474825
3230.962147	1071.221678
3232.084183	1064.158042
3233.207535	1069.441958
3234.330725	1074.157343
3235.453753	1074.093007
3236.575141	1069.452448
3237.696368	1068.795804
3238.815956	1076.039860
3239.935383	1080.210490
3241.053172	1088.961538
3242.173754	1085.141958
3243.291221	1092.571329
3244.408528	1098.000000
3245.525675	1102.658741
3246.641186	1110.796503
3247.758012	1120.071329
3248.871727	1116.522378
3249.988232	1117.545455
3251.103103	1119.676923
3252.214865	1123.576224
3253.326468	1123.227273
3254.439385	1120.144755
3255.552144	1113.409790
3256.661796	1107.718182
3257.772762	1100.517483
3258.883570	1091.214685
3259.992747	1092.669930
3261.100292	1094.247552
3262.209151	1088.749650
3263.317853	1103.995105
3264.423452	1106.123776
3265.530365	1118.053147
3266.635649	1120.079021
3267.742248	1124.506993
3268.845746	1123.588811
3269.950558	1120.076923
3271.055213	1117.049650
3272.156769	1116.648252
3273.258170	1121.057343
3274.360884	1117.302098
3275.463441	1112.975524
3276.562902	1115.006993
3277.665147	1106.774825
3278.764296	1107.344056
3279.861821	1100.986713
3280.959190	1100.362937
3282.059342	1098.429371
3283.156400	1098.011189
3284.253303	1100.704895
3285.350051	1104.434266
3286.442241	1108.762238
3287.538679	1108.012587
3288.633495	1110.149650
3289.728157	1112.606294
3290.821197	1112.439860
3291.914083	1111.937762
3293.005348	1106.344755
3294.097926	1109.811189
3295.188883	1107.034266
3296.278221	1105.724476
3297.367406	1106.200699
3298.457904	1104.386014
3299.545317	1104.308392
3300.632578	1102.974126
3301.721151	1106.167133
3302.809571	1106.002797
3303.893444	1105.400000
3304.981559	1109.562238
3306.066593	1109.909790
3307.150010	1116.737063
3308.234740	1108.468531
3309.317855	1112.152448
3310.402281	1111.291608
3311.483629	1116.225874
3312.566289	1116.444755
3313.647335	1118.489510
3314.728230	1116.260140
3315.807511	1115.117483
3316.886643	1111.516783
3317.967085	1108.100699
3319.044454	1100.776923
3320.123133	1096.527273
3321.200202	1085.608392
3322.277120	1092.832168
3323.352427	1093.135664
3324.427585	1096.164336
3325.504054	1098.348252
3326.577453	1108.416783
3327.650703	1116.047552
3328.725263	1120.109091
3329.798215	1124.539860
3330.869558	1124.325175
3331.942213	1123.350350
3333.011800	1115.019580
3334.082698	1104.432168
3335.151989	1102.538462
3336.222591	1092.125175
3337.291586	1086.255944
3338.358975	1087.172028
3339.424759	1086.725175
3340.494769	1090.341259
3341.561716	1096.220280
3342.625601	1103.702098
3343.692254	1102.524476
3344.757302	1105.962937
3345.820747	1097.644755
3346.884046	1095.272028
3347.947198	1095.218182
3349.010204	1095.534965
3350.073064	1099.537762
3351.134322	1102.086713
3352.192523	1096.632867
3353.254945	1098.697203
3354.314310	1106.000000
3355.373530	1106.023776
3356.434060	1109.179720
3357.490080	1114.237762
3358.548865	1106.758042
3359.603142	1107.839161
3360.660182	1105.455245
3361.715625	1104.368531
3362.772376	1110.146154
3363.827529	1110.406294
3364.881086	1105.641958
3365.933045	1106.377622
3366.987766	1108.876224
3368.039438	1109.512587
3369.090967	1113.273427
3370.143804	1113.627972
3371.193594	1110.191608
3372.244693	1107.613986
3373.292746	1105.224476
3374.343559	1109.067832
3375.391326	1120.856643
3376.438951	1119.354545
3377.486433	1120.448252
3378.532323	1116.213986
3379.579521	1119.536364
3380.623677	1118.404895
3381.670591	1122.536364
3382.715913	1123.332867
3383.758194	1122.963636
3384.800335	1115.593007
3385.843783	1120.520280
3386.887091	1120.113986
3387.928808	1125.167832
3388.970384	1120.418182
3390.011820	1120.595105
3391.051666	1110.400000
3392.089924	1112.848951
3393.129491	1105.916084
3394.168916	1104.967832
3395.206754	1096.180420
3396.243005	1090.963636
3397.279117	1088.218182
3398.316536	1092.590210
3399.350922	1093.432867
3400.386615	1104.729371
3401.422169	1108.661538
3402.454692	1116.385315
3403.489968	1112.856643
3404.522213	1117.458741
3405.554320	1115.960839
3406.584843	1111.047552
3407.616673	1099.451748
3408.648365	1096.620280
3409.677030	1094.572028
3410.705556	1099.272028
3411.735390	1098.799301
3412.765085	1103.560140
3413.791755	1101.702797
3414.819732	1104.207692
3415.844684	1097.598601
3416.872386	1100.555944
3417.897065	1091.614685
3418.923050	1090.501399
3419.947455	1083.347552
3420.971724	1090.529371
3421.994414	1095.942657
3423.016968	1108.083916
3424.040828	1108.139161
3425.061668	1115.616084
3426.082373	1118.937662
3427.104383	1119.795355
3428.123375	1117.582517
3429.142232	1111.692507
3430.162394	1101.518681
3431.179540	1086.454396
