-118.389184	4.400000
-115.719584	9.050000
-113.052919	10.700000
-110.387006	6.000000
-107.724025	2.700000
-105.059615	2.200000
-102.398135	-0.900000
-99.735225	5.150000
-97.077423	-0.750000
-94.418190	6.750000
-91.759706	6.400000
-89.104147	6.700000
-86.447159	-0.850000
-83.795268	1.950000
-81.141948	2.500000
-78.491548	2.800000
-75.839718	-10.500000
-73.192979	12.650000
-70.544810	0.950000
-67.897385	3.450000
-65.252873	2.300000
-62.606933	-8.200000
-59.966074	18.600000
-57.323786	-3.250000
-54.684406	1.400000
-52.043598	-3.500000
-49.403530	0.950000
-46.768534	17.400000
-44.132109	-3.200000
-41.498588	7.050000
-38.863638	3.450000
-36.233753	2.550000
-33.600276	8.450000
-30.971861	14.150000
-28.344179	-11.600000
-25.715070	24.250000
-23.091017	2.800000
-20.463375	9.650000
-17.840786	15.750000
-15.218928	29.850000
-12.597802	36.450000
-9.977405	77.650000
-7.359896	237.350000
-4.740959	888.250000
-2.124908	2226.250000
0.490415	2792.450000
3.105011	1700.000000
5.716724	268.300000
8.329866	35.700000
10.937974	28.800000
13.549664	0.800000
16.156323	10.000000
18.764410	-3.550000
21.371773	15.250000
23.974111	0.300000
26.580027	-0.200000
29.180921	3.450000
31.783243	11.900000
34.380548	1.950000
36.981428	4.350000
39.577294	1.800000
42.174587	13.750000
44.771161	-3.100000
47.362726	2.100000
49.955719	-3.800000
52.545851	16.300000
55.137411	2.800000
57.726111	-1.900000
60.316238	0.150000
62.901367	-3.550000
65.487922	-1.850000
68.073764	2.700000
70.656752	6.700000
73.241167	3.000000
75.818452	1.450000
78.399304	5.350000
80.977307	-1.500000
83.554600	10.550000
86.133319	2.800000
88.707057	5.600000
91.282221	15.650000
93.854542	-7.800000
96.426155	12.100000
98.994928	-7.700000
101.565128	-6.250000
104.132490	7.000000
106.701277	2.550000
109.267228	3.600000
111.830344	-7.000000
114.397016	6.500000
116.954467	-3.650000
119.517603	7.750000
122.075780	10.350000
124.637510	18.550000
127.194285	23.750000
129.752485	25.950000
132.305733	28.750000
134.858282	57.650000
137.414382	91.400000
139.965535	118.600000
142.515989	108.350000
145.065747	158.000000
147.612685	167.300000
150.158927	186.500000
152.706595	186.100000
155.253568	184.250000
157.795604	185.350000
160.336947	179.100000
162.877597	173.550000
165.419673	176.050000
167.958938	181.200000
170.495393	177.550000
173.031158	181.050000
175.568348	177.050000
178.104846	165.950000
180.638539	169.800000
183.169429	165.200000
185.699630	162.400000
188.231256	175.700000
190.760081	166.200000
193.286107	161.250000
195.811448	170.450000
198.338213	165.900000
200.862181	184.600000
203.385465	164.500000
205.908064	180.950000
208.427870	169.800000
210.946993	173.650000
213.465433	157.050000
215.985297	175.700000
218.498160	156.800000
221.014554	178.100000
223.530266	169.900000
226.041089	179.000000
228.553336	177.800000
231.062800	165.150000
233.571586	165.600000
236.079694	177.150000
238.589225	175.850000
241.093877	180.150000
243.597852	167.400000
246.103251	184.300000
248.603775	179.450000
251.107822	183.550000
253.604899	181.100000
256.105498	184.250000
258.603326	188.550000
261.100481	188.750000
263.596963	184.200000
266.088582	179.650000
268.583721	183.800000
271.076094	190.900000
273.567796	183.850000
276.056735	190.950000
278.547097	183.600000
281.034698	183.300000
283.519539	184.600000
286.007894	195.050000
288.489310	180.700000
290.974240	197.050000
293.454325	184.700000
295.937922	192.350000
298.416676	191.850000
300.896854	188.350000
303.374279	199.800000
305.851041	208.850000
308.327140	204.500000
310.800490	208.100000
313.273178	198.000000
315.745205	220.850000
318.216571	239.650000
320.685193	267.800000
323.153155	253.650000
325.622540	228.100000
328.087102	216.900000
330.555167	207.750000
333.018413	218.800000
335.481002	224.750000
337.942933	204.050000
340.404208	215.950000
342.862749	203.400000
345.322712	203.850000
347.779942	201.450000
350.236518	221.950000
352.692440	206.300000
355.145633	200.950000
357.600247	202.550000
360.050060	198.000000
362.503370	196.050000
364.951880	194.300000
367.399740	203.150000
369.849021	218.350000
372.293509	202.850000
374.739419	210.500000
377.184680	207.500000
379.627222	204.950000
382.069116	204.700000
384.510362	215.000000
386.948893	197.200000
389.388846	208.550000
391.826085	204.900000
394.260612	203.650000
396.698627	205.350000
399.131865	205.600000
401.566525	195.300000
403.996411	216.250000
406.429783	205.650000
408.858385	213.300000
411.286346	195.300000
413.715727	205.500000
416.140343	212.500000
418.566381	211.350000
420.991778	205.650000
423.416535	208.100000
425.836534	213.850000
428.257954	205.850000
430.676677	200.950000
433.096821	209.500000
435.514270	208.600000
437.933139	210.100000
440.349315	200.650000
442.760744	214.250000
445.175649	206.200000
447.587864	195.250000
449.999445	205.300000
452.410392	199.600000
454.818653	212.150000
457.226281	199.300000
459.633278	206.650000
462.039642	188.500000
464.443324	198.250000
466.846376	204.350000
469.248798	191.100000
471.650591	196.350000
474.049705	192.350000
476.450239	204.100000
478.850144	190.400000
481.245326	203.400000
483.643975	193.150000
486.037904	208.350000
488.431207	190.850000
490.823884	204.650000
493.215936	180.750000
495.609407	182.350000
497.998165	167.400000
500.384257	173.000000
502.771769	163.450000
505.158657	169.900000
507.542882	164.300000
509.928526	162.400000
512.311507	140.750000
514.691828	150.050000
517.073568	140.550000
519.452649	153.600000
521.833149	138.500000
524.210991	143.600000
526.586178	136.800000
528.960747	144.300000
531.336735	125.050000
533.710069	124.550000
536.084821	123.250000
538.454888	138.650000
540.824339	133.450000
543.195208	133.300000
545.561397	118.900000
547.929004	129.600000
550.293965	116.150000
552.658313	129.950000
555.022049	126.800000
557.387202	123.200000
559.747682	117.800000
562.109581	109.250000
564.468840	121.750000
566.825460	133.450000
569.185525	113.450000
571.538900	122.150000
573.895719	126.050000
576.249902	130.350000
578.603478	115.600000
580.956445	119.700000
583.306781	104.750000
585.658533	122.450000
588.003609	118.350000
590.354149	113.100000
592.698016	117.300000
595.047343	112.050000
597.392023	119.650000
599.734077	119.350000
602.077549	120.150000
604.418398	118.850000
606.758645	102.300000
609.096271	116.450000
611.437332	99.450000
613.773756	116.850000
616.111596	110.150000
618.446818	112.350000
620.779425	112.600000
623.113448	108.600000
625.444858	107.200000
627.775669	107.300000
630.105882	101.650000
632.435497	119.050000
634.760490	125.600000
637.090924	110.050000
639.416736	112.250000
641.739942	114.250000
644.064563	104.650000
646.386580	120.300000
648.708002	103.650000
651.026821	112.450000
653.347056	102.200000
655.666698	105.500000
657.983739	107.850000
660.300188	94.100000
662.614040	111.200000
664.929306	106.350000
667.241976	116.200000
669.556061	99.100000
671.865546	98.150000
674.176447	122.150000
676.484755	106.050000
678.792475	111.400000
681.101610	103.850000
683.406152	100.850000
685.710107	104.400000
688.013477	113.700000
690.318261	105.700000
692.618459	108.750000
694.920071	95.600000
697.221099	110.350000
699.517544	102.700000
701.815405	112.700000
704.112682	100.500000
706.409376	94.150000
708.701494	114.100000
710.997023	103.100000
713.287979	113.200000
715.580349	114.800000
717.870143	88.600000
720.159358	112.000000
722.447992	102.100000
724.734055	103.650000
727.021531	105.250000
729.306437	100.650000
731.590764	101.400000
733.872523	103.200000
736.155696	91.500000
738.438292	103.250000
740.716333	101.750000
742.995787	125.650000
745.274666	106.300000
747.552969	100.550000
749.826723	94.350000
752.101891	118.600000
754.376485	107.150000
756.648520	102.650000
758.921967	101.100000
761.192857	100.100000
763.461191	98.750000
765.730938	121.600000
767.998131	104.200000
770.264753	112.000000
772.530806	115.500000
774.794306	114.950000
777.059220	122.250000
779.323564	116.150000
781.583379	119.750000
783.844607	116.550000
786.105267	116.650000
788.363380	107.750000
790.618949	117.150000
792.877909	114.250000
795.130370	118.250000
797.388198	118.900000
799.641506	97.100000
801.892275	116.400000
804.144456	106.100000
806.394099	119.800000
808.645153	111.600000
810.891696	99.950000
813.139651	99.600000
815.385072	100.500000
817.631904	96.000000
819.878175	113.350000
822.119942	105.700000
824.365091	114.050000
826.603768	102.450000
828.845828	114.250000
831.083389	106.800000
833.322361	109.300000
835.558807	100.900000
837.796664	106.300000
840.031997	102.200000
842.264805	92.500000
844.499025	111.800000
846.730723	92.750000
848.961866	103.750000
851.192454	91.250000
853.422488	98.100000
855.651967	105.800000
857.876965	98.400000
860.105338	102.650000
862.329232	106.100000
864.554536	111.100000
866.775365	96.850000
868.999566	112.250000
871.219294	91.900000
873.440433	99.250000
875.661021	105.800000
877.879099	110.250000
880.098588	99.850000
882.313610	100.550000
884.528084	101.650000
886.742011	103.900000
888.955390	105.500000
891.168222	107.000000
893.380508	108.400000
895.590291	103.750000
897.799529	96.550000
900.008222	118.750000
902.214416	99.550000
904.422019	116.750000
906.627125	95.550000
908.831687	118.650000
911.033753	93.800000
913.237229	96.800000
915.438211	108.400000
917.638652	120.450000
919.840501	99.500000
922.035958	107.100000
924.234775	104.650000
926.429153	118.050000
928.626889	103.900000
930.820189	104.750000
933.014898	93.100000
935.207121	105.350000
937.398806	103.350000
939.589953	112.250000
941.778617	97.000000
943.966744	105.750000
946.152391	111.750000
948.341390	104.350000
950.525966	89.000000
952.710007	107.800000
954.897398	100.000000
957.076485	108.900000
959.258923	113.150000
961.440827	119.650000
963.620257	110.650000
965.797214	118.250000
967.975578	119.600000
970.155350	127.100000
972.328773	114.400000
974.505542	131.550000
976.677905	116.700000
978.851674	124.200000
981.021040	113.150000
983.193751	143.550000
985.363995	131.300000
987.533711	128.050000
989.702898	137.950000
991.867688	133.000000
994.035819	127.100000
996.199556	139.050000
998.364699	131.250000
1000.527384	126.950000
1002.689542	131.050000
1004.849244	141.200000
1007.008422	130.350000
1009.169006	144.550000
1011.327135	119.350000
1013.484740	130.900000
1015.641822	138.850000
1017.798381	142.550000
1019.950560	155.350000
1022.104145	142.650000
1024.257209	133.100000
1026.407825	149.000000
1028.559846	151.800000
1030.707494	147.750000
1032.858474	152.700000
1035.005083	157.600000
1037.151174	144.800000
1039.296745	147.900000
1041.443722	146.750000
1043.584411	150.400000
1045.728428	146.650000
1047.870005	149.950000
1050.011066	161.700000
1052.153531	163.350000
1054.289717	139.000000
1056.429229	144.400000
1058.564385	142.750000
1060.702866	170.250000
1062.836993	139.900000
1064.970607	154.200000
1067.105626	164.750000
1069.236295	161.200000
1071.368369	154.550000
1073.498014	148.950000
1075.627147	150.950000
1077.755768	154.250000
1079.883878	143.400000
1082.009562	148.300000
1084.134736	150.850000
1086.261314	137.600000
1088.383555	147.950000
1090.507199	136.900000
1092.626510	137.950000
1094.751049	143.100000
1096.869343	152.100000
1098.989042	141.200000
1101.106322	149.650000
1103.223096	143.300000
1105.339363	139.300000
1107.453215	133.550000
1109.568470	129.300000
1111.679403	128.550000
1113.793647	124.700000
1115.903571	139.800000
1118.014899	134.450000
1120.125722	134.300000
1122.232230	134.850000
1124.342046	133.400000
1126.447548	126.550000
1128.554453	136.050000
1130.655143	130.200000
1132.761045	138.100000
1134.862638	124.650000
1136.965634	133.150000
1139.068129	135.550000
1141.164417	145.950000
1143.265913	122.300000
1145.363106	128.950000
1147.459800	115.250000
1149.555996	121.200000
1151.651695	118.700000
1153.746896	131.900000
1155.839700	111.500000
1157.933906	124.350000
1160.021921	123.350000
1162.115134	131.800000
1164.202159	118.500000
1166.292483	145.500000
1168.378520	124.950000
1170.467854	124.650000
1172.551007	110.250000
1174.635563	133.600000
1176.721519	126.400000
1178.803194	140.450000
1180.886271	114.100000
1182.966962	135.350000
1185.047161	123.450000
1187.126869	112.300000
1189.206086	129.250000
1191.282921	120.400000
1193.357375	125.000000
1195.435121	116.800000
1197.508596	124.050000
1199.583472	119.650000
1201.654081	113.100000
1203.726092	121.150000
1205.795726	118.550000
1207.866761	125.000000
1209.937308	120.050000
1212.003594	121.550000
1214.071281	117.050000
1216.136596	122.050000
1218.203311	118.250000
1220.265770	124.450000
1222.331514	116.950000
1224.393005	106.100000
1226.455895	121.700000
1228.516418	116.450000
1230.576457	116.600000
1232.636014	121.700000
1234.693205	116.400000
1236.749915	122.650000
1238.804262	115.600000
1240.861889	121.050000
1242.917154	103.250000
1244.968178	112.250000
1247.020602	115.500000
1249.072546	116.500000
1251.122132	122.600000
1253.171239	126.700000
1255.219868	119.500000
1257.268018	143.400000
1259.315690	120.350000
1261.359131	136.000000
1263.405847	126.600000
1265.450210	128.900000
1267.494097	127.900000
1269.535633	123.750000
1271.574819	121.950000
1273.617277	117.100000
1275.655513	122.800000
1277.695148	120.900000
1279.734308	139.550000
1281.769249	119.850000
1283.805590	126.100000
1285.839585	126.150000
1287.874979	128.600000
1289.906159	132.050000
1291.938738	137.250000
1293.970844	150.750000
1296.000610	136.650000
1298.031774	145.900000
1300.058730	126.200000
1302.087084	142.800000
1304.111234	157.650000
1306.138648	153.100000
1308.161860	144.800000
1310.186470	167.350000
1312.208746	173.400000
1314.232419	164.650000
1316.253759	162.250000
1318.274631	178.700000
1320.295037	172.450000
1322.311248	184.950000
1324.328858	191.550000
1326.344139	211.350000
1328.362678	212.700000
1330.377029	212.100000
1332.389054	206.550000
1334.404336	206.750000
1336.415433	193.800000
1338.427927	210.750000
1340.436238	202.000000
1342.447805	205.050000
1344.453332	207.550000
1346.462115	195.550000
1348.466720	196.850000
1350.474579	187.600000
1352.481976	184.900000
1354.483342	190.700000
1356.486105	176.800000
1358.488407	191.050000
1360.490250	160.800000
1362.491633	169.600000
1364.490703	154.900000
1366.489314	163.000000
1368.487467	158.850000
1370.485162	138.100000
1372.478693	138.650000
1374.473621	150.350000
1376.468092	135.600000
1378.462106	133.850000
1380.453813	128.100000
1382.445064	140.000000
1384.434010	131.850000
1386.424351	130.550000
1388.414237	128.100000
1390.401820	131.850000
1392.388948	116.400000
1394.373776	127.150000
1396.359997	137.750000
1398.343919	131.950000
1400.327388	126.000000
1402.310405	128.050000
1404.291123	129.000000
1406.273237	116.700000
1408.253053	120.650000
1410.232419	127.300000
1412.207645	126.050000
1414.186111	127.800000
1416.162282	123.850000
1418.138005	113.000000
1420.113278	125.000000
1422.086260	131.300000
1424.058794	117.350000
1426.030881	131.400000
1428.002519	129.300000
1429.970029	122.850000
1431.942614	119.800000
1433.907392	126.100000
1435.877243	125.850000
1437.842969	132.450000
1439.810088	122.400000
1441.774924	138.550000
1443.735641	111.750000
1445.701425	136.800000
1447.661254	119.350000
1449.622476	122.300000
1451.585091	126.300000
1453.543591	138.200000
1455.501649	123.550000
1457.459264	128.450000
1459.416438	116.050000
1461.371336	141.850000
1463.327626	122.300000
1465.281642	143.350000
1467.235218	122.150000
1469.186521	139.800000
1471.139216	139.100000
1473.089640	137.400000
1475.039625	140.400000
1476.989170	130.400000
1478.936447	129.700000
1480.881457	132.150000
1482.827858	133.200000
1484.773823	136.100000
1486.719349	135.800000
1488.662611	136.700000
1490.605436	142.400000
1492.545998	130.750000
1494.487951	130.900000
1496.427643	144.450000
1498.366899	139.250000
1500.305720	137.850000
1502.242282	141.250000
1504.180235	142.400000
1506.115930	129.350000
1508.051191	141.000000
1509.984195	138.700000
1511.916767	142.000000
1513.848907	137.750000
1515.780615	160.950000
1517.710069	152.600000
1519.640914	148.200000
1521.571328	166.000000
1523.497668	171.750000
1525.425400	169.300000
1527.350881	171.100000
1529.275933	178.850000
1531.200556	176.800000
1533.124750	182.400000
1535.046697	193.150000
1536.970033	209.300000
1538.891124	207.550000
1540.809970	239.400000
1542.730206	252.350000
1544.648198	285.700000
1546.565764	296.850000
1548.481088	344.400000
1550.397802	396.150000
1552.310461	446.700000
1554.226324	506.050000
1556.139947	573.650000
1558.051333	685.350000
1559.964107	742.900000
1561.872832	836.550000
1563.782947	879.850000
1565.692638	912.750000
1567.601905	890.700000
1569.508939	859.800000
1571.413740	792.000000
1573.319930	707.900000
1575.223888	652.200000
1577.127426	559.100000
1579.030542	480.300000
1580.931430	420.450000
1582.833705	387.350000
1584.733753	360.450000
1586.635188	307.450000
1588.532590	280.050000
1590.429573	269.750000
1592.326138	254.750000
1594.224091	228.050000
1596.116209	233.350000
1598.011520	223.800000
1599.906414	225.650000
1601.799086	205.450000
1603.691342	202.100000
1605.581377	197.200000
1607.470998	199.150000
1609.360202	187.050000
1611.248992	181.550000
1613.135565	174.350000
1615.023524	176.900000
1616.907467	157.900000
1618.792798	160.500000
1620.677714	137.200000
1622.560417	166.950000
1624.444507	146.750000
1626.324586	163.150000
1628.206051	138.100000
1630.085306	147.000000
1631.965947	145.200000
1633.840784	138.900000
1635.720603	135.500000
1637.596416	132.900000
1639.471819	122.750000
1641.348609	123.500000
1643.219601	134.200000
1645.093775	128.100000
1646.963951	129.950000
1648.837307	127.000000
1650.708460	128.150000
1652.577411	121.950000
1654.447748	130.700000
1656.314091	127.950000
1658.181820	119.050000
1660.047351	131.950000
1661.914266	112.600000
1663.777193	115.050000
1665.641505	109.950000
1667.503621	120.450000
1669.365333	113.150000
1671.228429	109.650000
1673.089331	108.150000
1674.948039	133.300000
1676.806344	119.900000
1678.666034	111.600000
1680.519957	122.150000
1682.377052	119.400000
1684.233745	109.000000
1686.086462	119.950000
1687.942349	105.050000
1689.794263	110.500000
1691.645776	119.250000
1693.496888	118.000000
1695.347600	116.000000
1697.197911	116.000000
1699.046038	110.900000
1700.895548	124.650000
1702.739310	115.050000
1704.588021	120.700000
1706.430987	112.100000
1708.277118	107.650000
1710.119288	109.500000
1711.964622	128.200000
1713.804216	96.500000
1715.645194	124.650000
1717.487555	114.050000
1719.325960	116.650000
1721.165748	112.550000
1723.003361	111.400000
1724.840578	112.700000
1726.675622	123.300000
1728.512049	112.550000
1730.346304	113.600000
1732.180164	109.700000
1734.013631	105.550000
1735.843151	112.500000
1737.675830	107.950000
1739.504565	111.300000
1741.336458	116.350000
1743.164408	106.550000
1744.991966	114.400000
1746.819132	96.050000
1748.645907	103.400000
1750.472291	109.100000
1752.294738	99.000000
1754.120339	102.550000
1755.942006	104.350000
1757.765055	99.450000
1759.585943	122.250000
1761.406441	104.100000
1763.228321	102.750000
1765.044501	95.850000
1766.863833	112.550000
1768.679238	104.150000
1770.497793	99.900000
1772.312423	111.100000
1774.126667	110.800000
1775.940523	98.400000
1777.753993	107.250000
1779.565310	107.050000
1781.378008	94.750000
1783.190319	95.400000
1784.998713	116.500000
1786.808488	101.000000
1788.614347	103.850000
1790.423352	110.500000
1792.228444	94.250000
1794.034917	87.650000
1795.841006	92.250000
1797.643185	111.650000
1799.448507	111.800000
1801.249921	91.850000
1803.052715	89.600000
1804.851603	100.100000
1806.651872	109.250000
1808.451759	106.000000
1810.249505	117.550000
1812.046869	94.250000
1813.843854	115.750000
1815.640458	110.000000
1817.434923	89.450000
1819.230767	94.750000
1821.020957	102.750000
1822.816043	97.250000
1824.605476	109.250000
1826.398046	112.150000
1828.188481	87.750000
1829.976782	104.600000
1831.768218	101.150000
1833.554008	97.200000
1835.341178	104.750000
1837.126216	101.700000
1838.914388	95.350000
1840.698674	107.200000
1842.480831	114.750000
1844.264366	102.700000
1846.045773	112.700000
1847.828559	95.800000
1849.607465	107.750000
1851.387749	109.700000
1853.165907	110.150000
1854.945444	105.750000
1856.722856	101.500000
1858.498144	88.000000
1860.274811	103.650000
1862.049354	99.500000
1863.825276	108.700000
1865.595578	108.600000
1867.369006	108.600000
1869.140315	112.250000
1870.911254	111.800000
1872.683569	102.850000
1874.450272	115.450000
1876.220099	108.050000
1877.986063	105.850000
1879.755151	102.550000
1881.520377	105.250000
1883.285234	99.650000
1885.051469	101.600000
1886.813845	108.050000
1888.575854	101.150000
1890.337495	112.200000
1892.098770	102.450000
1893.859677	94.300000
1895.620218	99.200000
1897.378649	95.050000
1899.136715	103.300000
1900.892672	96.700000
1902.650007	111.300000
1904.406975	97.750000
1906.161838	101.500000
1907.914595	91.050000
1909.666989	112.200000
1911.420758	106.250000
1913.172424	96.700000
1914.921988	86.950000
1916.672928	100.300000
1918.423504	108.800000
1920.170241	106.400000
1921.918355	95.800000
1923.664369	105.150000
1925.411759	106.000000
1927.157050	104.500000
1928.900244	114.300000
1930.644814	100.000000
1932.387287	99.850000
1934.129400	94.600000
1935.871153	106.700000
1937.612547	106.700000
1939.351847	87.000000
1941.090787	109.550000
1942.829370	95.350000
1944.565860	100.800000
1946.301993	103.075000
1948.039500	105.350000
1949.773185	104.150000
1951.508245	118.750000
1953.241217	102.150000
1954.973832	108.350000
1956.706090	109.000000
1958.437992	104.550000
1960.167808	85.000000
1961.895540	103.250000
1963.624645	95.900000
1965.353396	103.800000
1967.080063	99.050000
1968.806376	95.400000
1970.534062	102.150000
1972.256212	105.200000
1973.981463	106.100000
1975.702908	108.850000
1977.427452	99.900000
1979.149917	101.050000
1980.868578	103.850000
1982.590338	105.100000
1984.308296	104.900000
1986.027627	108.800000
1987.743159	97.650000
1989.463512	107.600000
1991.180065	101.600000
1992.892823	99.100000
1994.608676	119.350000
1996.322456	115.600000
1998.035887	93.150000
1999.747247	109.350000
2001.459980	90.650000
2003.168921	100.600000
2004.880956	94.700000
2006.587481	91.500000
2008.297099	99.250000
2010.004649	99.450000
2011.711852	105.100000
2013.416989	91.000000
2015.121779	110.600000
2016.827941	113.050000
2018.530321	99.700000
2020.234073	99.700000
2021.935761	106.850000
2023.637105	111.950000
2025.338103	105.050000
2027.037041	113.100000
2028.737349	106.800000
2030.433883	101.450000
2032.131788	110.050000
2033.827634	107.300000
2035.526566	105.750000
2037.220012	109.000000
2038.914830	103.850000
2040.609304	112.350000
2042.300010	107.650000
2043.993800	107.950000
2045.683823	109.750000
2047.375217	106.450000
2049.064558	98.200000
2050.755269	99.150000
2052.442218	109.050000
2054.128826	109.250000
2055.816805	98.500000
2057.501024	100.400000
2059.186613	94.600000
2060.871863	102.550000
2062.555065	102.650000
2064.239636	94.750000
2065.918745	93.950000
2067.602639	104.500000
2069.281073	92.950000
2070.962583	97.400000
2072.640343	107.700000
2074.317765	102.850000
2075.996558	110.750000
2077.673307	93.300000
2079.348015	108.550000
2081.024092	101.400000
2082.698129	91.200000
2084.371830	93.800000
2086.045196	96.250000
2087.716524	116.100000
2089.387517	99.900000
2091.058176	100.050000
2092.728500	101.050000
2094.398491	95.250000
2096.066446	97.650000
2097.734068	102.750000
2099.399655	105.750000
2101.066612	101.950000
2102.731534	104.100000
2104.396125	100.850000
2106.058684	112.100000
2107.722611	102.650000
2109.384508	92.900000
2111.046073	84.400000
2112.707307	93.150000
2114.366513	105.100000
2116.025388	101.800000
2117.683934	106.350000
2119.342150	97.700000
2120.996642	98.050000
2122.654199	98.550000
2124.311427	106.800000
2125.964933	96.500000
2127.619807	107.800000
2129.270963	102.250000
2130.925180	90.050000
2132.575681	94.600000
2134.227548	102.200000
2135.874007	91.300000
2137.525221	106.500000
2139.172721	112.250000
2140.821588	102.000000
2142.468437	90.850000
2144.114959	95.450000
2145.761156	102.650000
2147.403645	106.600000
2149.049192	98.000000
2150.691032	97.000000
2152.335929	90.300000
2153.977121	109.200000
2155.617989	83.300000
2157.258533	104.050000
2158.897065	109.300000
2160.536964	103.600000
2162.173162	93.950000
2163.810726	101.050000
2165.447967	109.950000
2167.083199	102.850000
2168.718110	94.500000
2170.352699	106.850000
2171.986966	96.350000
2173.617541	102.500000
2175.251166	106.050000
2176.881100	91.100000
2178.512399	88.250000
2180.141694	105.500000
2181.770668	107.150000
2183.399324	92.950000
2185.027660	97.850000
2186.653993	102.650000
2188.280008	96.300000
2189.904022	112.100000
2191.529400	80.800000
2193.152779	97.250000
2194.777521	95.200000
2196.398583	101.700000
2198.019328	97.500000
2199.641438	100.850000
2201.261550	96.050000
2202.879665	103.100000
2204.497465	80.150000
2206.114950	100.300000
2207.732119	106.000000
2209.348973	97.900000
2210.965512	93.000000
2212.580057	97.450000
2214.192610	92.850000
2215.806527	95.250000
2217.418453	105.550000
2219.031742	101.000000
2220.643041	82.250000
2222.252350	107.300000
2223.863023	100.150000
2225.471707	90.450000
2227.080079	98.350000
2228.686463	105.850000
2230.294211	105.000000
2231.899972	109.400000
2233.505422	86.650000
2235.108887	103.850000
2236.713716	97.150000
2238.316560	95.600000
2239.917421	95.000000
2241.519645	101.450000
2243.119886	99.100000
2244.721490	98.950000
2246.319442	110.000000
2247.918756	83.350000
2249.516090	91.250000
2251.113115	95.450000
2252.711503	98.500000
2254.306242	93.050000
2255.899004	94.000000
2257.493129	101.950000
2259.088615	89.750000
2260.680457	107.000000
2262.271992	94.450000
2263.864888	107.000000
2265.452475	109.050000
2267.044759	103.550000
2268.631735	99.000000
2270.221740	93.150000
2271.806440	97.850000
2273.395834	97.850000
2274.979925	104.750000
2276.565378	106.700000
2278.148861	102.400000
2279.735371	100.750000
2281.318247	91.550000
2282.900819	103.050000
2284.483088	93.600000
2286.061728	85.650000
2287.643391	107.850000
2289.221426	104.800000
2290.802484	79.750000
2292.379916	83.375000
2293.955383	87.000000
2295.533873	82.700000
2297.108739	105.700000
2298.683304	97.450000
2300.257569	98.250000
2301.831533	90.500000
2303.405197	96.900000
2304.978560	99.400000
2306.548305	95.400000
2308.117751	111.750000
2309.690216	99.500000
2311.257405	100.250000
2312.827613	73.950000
2314.394206	102.000000
2315.962159	85.350000
2317.528156	99.550000
2319.093856	106.350000
2320.659259	96.500000
2322.222707	93.700000
2323.787515	94.300000
2325.348715	97.900000
2326.912929	112.500000
2328.471882	107.400000
2330.033848	96.450000
2331.593864	107.250000
2333.153584	108.150000
2334.711355	99.550000
2336.268831	108.600000
2337.826013	97.550000
2339.381248	96.450000
2340.936188	95.700000
2342.490835	99.350000
2344.045188	93.000000
2345.599247	99.250000
2347.153012	109.000000
2348.704834	87.000000
2350.254712	89.800000
2351.807598	103.500000
2353.355242	101.650000
2354.905893	94.050000
2356.452954	86.450000
2358.001372	105.950000
2359.549498	100.800000
2361.094036	108.100000
2362.639933	90.400000
2364.183890	96.950000
2365.729205	99.450000
2367.270935	93.550000
2368.814022	97.900000
2370.355174	95.450000
2371.896036	106.700000
2373.436609	102.600000
2374.976893	91.100000
2376.516887	99.600000
2378.053304	99.850000
2379.592722	106.050000
2381.128563	96.550000
2382.665760	109.600000
2384.199382	102.350000
2385.736005	97.100000
2387.270696	110.250000
2388.803458	107.850000
2390.335933	109.850000
2391.866481	99.000000
2393.400026	102.650000
2394.928360	101.550000
2396.458050	101.350000
2397.987455	114.150000
2399.516574	97.150000
2401.045409	114.950000
2402.569038	102.550000
2404.097304	103.200000
2405.620366	99.250000
2407.148062	109.000000
2408.668919	106.650000
2410.194409	106.600000
2411.716338	113.050000
2413.239623	117.150000
2414.760987	109.050000
2416.280431	115.350000
2417.801230	117.400000
2419.320110	109.750000
2420.838708	124.850000
2422.355389	120.800000
2423.873424	113.150000
2425.391178	104.750000
2426.905381	100.200000
2428.419303	114.800000
2429.932945	117.450000
2431.447942	118.800000
2432.959390	119.300000
2434.472193	104.900000
2435.983083	103.100000
2437.493693	125.550000
2439.002392	103.500000
2440.514078	110.050000
2442.022219	126.550000
2443.530083	115.650000
2445.037669	108.350000
2446.541714	118.800000
2448.048745	106.650000
2449.553867	113.800000
2451.058712	100.850000
2452.561650	110.800000
2454.064311	103.200000
2455.566696	109.800000
2457.067176	105.800000
2458.569009	110.100000
2460.068938	102.700000
2461.568591	115.050000
2463.067968	100.000000
2464.565443	109.000000
2466.061017	107.000000
2467.559570	99.850000
2469.054594	103.500000
2470.550972	106.550000
2472.043823	96.500000
2473.538026	115.650000
2475.031956	98.900000
2476.522363	111.850000
2478.015746	93.700000
2479.507232	107.450000
2480.996821	102.200000
2482.486138	101.350000
2483.973560	100.850000
2485.463957	99.150000
2486.950835	107.700000
2488.439065	99.050000
2489.923779	104.000000
2491.408222	118.700000
2492.894017	96.100000
2494.377919	91.850000
2495.863173	86.900000
2497.343293	112.500000
2498.826385	101.850000
2500.307587	96.950000
2501.788520	103.500000
2503.267564	96.250000
2504.746339	99.250000
2506.224846	111.550000
2507.703085	102.050000
2509.181055	101.250000
2510.655521	98.350000
2512.132955	117.350000
2513.606886	109.350000
2515.082168	94.350000
2516.557182	104.300000
2518.028695	109.750000
2519.501558	95.650000
2520.972539	90.800000
2522.444870	107.650000
2523.912088	103.400000
2525.382271	101.250000
2526.850574	107.850000
2528.318612	107.500000
2529.786385	108.700000
2531.253893	90.700000
2532.721136	104.550000
2534.184887	104.200000
2535.649988	101.500000
2537.113212	101.700000
2538.577786	92.850000
2540.038870	101.800000
2541.501304	112.900000
2542.963475	97.100000
2544.422160	114.400000
2545.885417	94.200000
2547.343577	96.500000
2548.803086	100.750000
2550.257502	119.600000
2551.716487	94.800000
2553.173601	108.600000
2554.628844	106.900000
2556.083826	104.450000
2557.536938	103.750000
2558.991399	118.300000
2560.443991	112.000000
2561.896323	118.850000
2563.346787	103.850000
2564.800207	114.750000
2566.248545	106.100000
2567.699839	124.000000
2569.149266	110.950000
2570.595221	100.850000
2572.044132	111.300000
2573.489571	112.500000
2574.936359	107.250000
2576.381283	113.800000
2577.825950	106.600000
2579.271964	123.600000
2580.714511	122.050000
2582.158406	112.900000
2583.598836	110.900000
2585.040613	115.250000
2586.480531	100.800000
2587.921796	115.350000
2589.359600	120.650000
2590.800353	134.000000
2592.236043	121.350000
2593.674683	120.000000
2595.111466	129.850000
2596.546392	117.950000
2597.984267	109.950000
2599.417083	122.750000
2600.851247	123.300000
2602.283557	132.950000
2603.717213	115.500000
2605.149016	131.350000
2606.580566	128.200000
2608.011862	134.300000
2609.441306	127.800000
2610.870499	138.450000
2612.297840	127.750000
2613.726528	133.300000
2615.154963	127.400000
2616.579951	135.800000
2618.006286	133.900000
2619.430772	145.550000
2620.856604	139.400000
2622.278992	155.400000
2623.702726	153.300000
2625.124613	145.850000
2626.546251	155.150000
2627.966043	159.300000
2629.387181	168.150000
2630.808069	177.400000
2632.225519	164.950000
2633.645908	170.000000
2635.062860	170.650000
2636.479564	178.950000
2637.896019	185.150000
2639.312226	191.700000
2640.728184	194.950000
2642.142302	205.650000
2643.556173	190.250000
2644.968204	226.900000
2646.381580	193.950000
2647.791526	210.650000
2649.204407	213.700000
2650.613861	220.150000
2652.023068	231.400000
2653.430439	228.900000
2654.840744	233.550000
2656.249213	232.350000
2657.655847	242.250000
2659.062236	236.600000
2660.466791	255.700000
2661.872690	248.750000
2663.276756	238.550000
2664.680578	261.050000
2666.084155	260.650000
2667.485900	258.600000
2668.888989	259.650000
2670.288661	276.850000
2671.689675	268.700000
2673.087274	268.700000
2674.487803	280.250000
2675.884917	263.450000
2677.283374	268.300000
2678.680003	268.600000
2680.076390	269.800000
2681.472536	271.400000
2682.866855	262.150000
2684.262517	265.600000
2685.654769	266.100000
2687.048365	263.250000
2688.440136	272.850000
2689.833249	278.450000
2691.224539	261.450000
2692.614006	270.100000
2694.003233	249.850000
2695.392221	259.950000
2696.782551	253.100000
2698.167896	249.050000
2699.556165	254.700000
2700.942614	238.900000
2702.328824	238.400000
2703.714796	232.450000
2705.097368	218.400000
2706.481283	232.350000
2707.864960	229.600000
2709.248399	222.350000
2710.628442	200.050000
2712.009827	204.800000
2713.389396	193.050000
2714.770307	204.200000
2716.149403	194.100000
2717.526684	178.100000
2718.905307	180.250000
2720.282117	174.450000
2721.658691	178.800000
2723.035029	159.950000
2724.409555	171.700000
2725.785422	166.100000
2727.157902	154.500000
2728.533298	148.100000
2729.903734	149.350000
2731.275511	147.700000
2732.647053	141.650000
2734.016787	140.650000
2735.387862	132.800000
2736.757129	142.050000
2738.126162	133.850000
2739.493388	134.250000
2740.860382	123.600000
2742.227143	127.300000
2743.593671	122.900000
2744.958394	121.750000
2746.322886	115.000000
2747.687145	119.350000
2749.051172	106.350000
2750.414968	115.650000
2751.775390	117.900000
2753.138723	106.200000
2754.497113	108.050000
2755.858413	115.700000
2757.216342	95.350000
2758.577181	110.200000
2759.936219	94.950000
2761.291889	113.700000
2762.650467	103.150000
2764.005679	103.600000
2765.360661	90.000000
2766.713846	105.500000
2768.069938	97.500000
2769.422666	118.450000
2770.775165	110.050000
2772.127436	108.250000
2773.481046	83.750000
2774.831294	103.850000
2776.179749	99.400000
2777.531108	101.950000
2778.879108	88.300000
2780.228447	100.250000
2781.575993	94.950000
2782.923312	99.350000
2784.270405	92.700000
2785.615707	89.700000
2786.960783	92.350000
2788.305633	103.150000
2789.650256	88.450000
2790.991528	104.550000
2792.334138	84.650000
2793.676522	86.250000
2795.018682	81.600000
2796.357492	96.150000
2797.699201	90.400000
2799.037563	92.150000
2800.377262	89.650000
2801.715175	91.950000
2803.051304	87.000000
2804.387209	95.600000
2805.724452	92.450000
2807.059911	93.500000
2808.395147	73.250000
2809.728600	91.650000
2811.063391	88.000000
2812.394840	93.550000
2813.729185	93.950000
2815.058632	91.650000
2816.389416	90.800000
2817.719978	89.350000
2819.048761	91.250000
2820.378880	97.400000
2821.707221	112.200000
2823.035341	90.500000
2824.361684	102.050000
2825.689362	82.800000
2827.013708	78.950000
2828.339389	89.550000
2829.663295	77.600000
2830.986982	85.450000
2832.312004	80.550000
2833.633696	89.450000
2834.955170	87.700000
2836.276425	80.700000
2837.597461	78.450000
2838.916725	78.900000
2840.237324	81.600000
2841.556151	94.100000
2842.874760	82.100000
2844.191598	90.950000
2845.508220	79.350000
2846.824623	86.800000
2848.139258	82.700000
2849.455227	84.600000
2850.767876	85.350000
2852.081861	90.450000
2853.395628	85.650000
2854.709180	82.700000
2856.020964	89.650000
2857.330982	76.100000
2858.642335	83.700000
2859.950373	89.300000
2861.259746	76.800000
2862.568903	81.650000
2863.877845	76.350000
2865.185024	89.750000
2866.490439	72.800000
2867.797189	80.700000
2869.102176	80.000000
2870.406950	81.450000
2871.709962	69.100000
2873.015856	85.750000
2874.316894	85.150000
2875.619267	81.700000
2876.919880	85.750000
2878.221827	87.350000
2879.523561	76.250000
2880.821990	98.250000
2882.121754	69.150000
2883.419759	94.450000
2884.717553	76.800000
2886.013591	82.950000
2887.310962	75.800000
2888.606577	96.450000
2889.901981	91.600000
2891.197175	81.950000
2892.489070	84.350000
2893.783842	89.950000
2895.075317	88.850000
2896.368125	99.550000
2897.660723	89.650000
2898.950027	82.550000
2900.240663	79.500000
2901.529548	91.550000
2902.819766	88.100000
2904.106692	75.800000
2905.394950	76.200000
2906.681458	84.100000
2907.967759	85.550000
2909.253851	84.800000
2910.538195	79.500000
2911.825411	87.500000
2913.107799	81.450000
2914.391520	89.600000
2915.673495	82.750000
2916.955263	92.050000
2918.235285	72.150000
2919.518177	89.050000
2920.799324	75.700000
2922.077189	73.450000
2923.357923	80.400000
2924.635376	90.700000
2925.912623	86.800000
2927.188129	83.200000
2928.466502	84.350000
2929.740060	74.500000
2931.016486	72.450000
2932.291171	71.900000
2933.564116	90.050000
2934.838391	84.900000
2936.110927	77.950000
2937.383259	70.600000
2938.652317	84.400000
2939.924241	79.050000
2941.194427	62.550000
2942.464410	91.500000
2943.734189	69.550000
2945.002231	79.000000
2946.268538	76.650000
2947.534642	78.600000
2948.802076	77.650000
2950.067776	69.100000
2951.333273	72.350000
2952.598568	85.900000
2953.860598	75.550000
2955.123959	72.300000
2956.387117	67.250000
2957.648544	74.500000
2958.911300	68.350000
2960.172325	86.450000
2961.431618	70.650000
2962.690712	85.350000
2963.949605	75.850000
2965.208298	83.950000
2966.466791	76.000000
2967.723555	81.200000
2968.980119	69.550000
2970.234956	72.400000
2971.491122	74.500000
2972.744032	83.150000
2973.998272	75.350000
2975.252313	77.650000
2976.504628	66.950000
2977.756745	88.550000
2979.007137	74.250000
2980.260384	71.650000
2981.508854	80.750000
2982.760178	71.650000
2984.008254	56.650000
2985.256132	74.450000
2986.503813	77.250000
2987.751298	63.300000
2988.997061	71.550000
2990.242627	85.800000
2991.489521	72.100000
2992.733171	59.500000
2993.978149	67.650000
2995.219884	78.550000
2996.464470	70.500000
2997.707336	74.900000
2998.946962	73.200000
3000.189438	85.700000
3001.428675	58.750000
3002.669239	62.950000
3003.908086	83.100000
3005.146739	80.100000
3006.383676	67.400000
3007.621940	72.200000
3008.858490	75.700000
3010.094845	70.900000
3011.331007	55.700000
3012.565456	71.000000
3013.799711	75.800000
3015.033773	80.050000
3016.266123	62.200000
3017.496761	65.950000
3018.730245	65.000000
3019.962017	78.350000
3021.192079	61.150000
3022.421949	67.550000
3023.650109	65.500000
3024.879595	78.750000
3026.107373	66.450000
3027.334959	76.700000
3028.563871	69.550000
3029.788041	78.850000
3031.015054	73.400000
3032.238843	71.850000
3033.463959	70.150000
3034.687368	66.100000
3035.910588	81.100000
3037.132102	73.700000
3038.356457	75.800000
3039.576077	72.400000
3040.797022	64.100000
3042.017779	74.350000
3043.236832	57.200000
3044.457211	75.250000
3045.674373	64.650000
3046.892860	75.750000
3048.109646	63.500000
3049.326243	75.050000
3050.542652	57.650000
3051.755849	71.600000
3052.971883	72.500000
3054.184705	59.000000
3055.400364	71.000000
3056.611300	72.300000
3057.823561	64.600000
3059.035636	72.300000
3060.247524	58.000000
3061.457714	70.200000
3062.667718	64.650000
3063.877537	63.850000
3065.085659	61.200000
3066.293595	66.600000
3067.499837	66.700000
3068.707402	71.350000
3069.913274	68.600000
3071.118960	65.850000
3072.324461	60.000000
3073.528269	60.050000
3074.733401	66.950000
3075.936841	72.100000
3077.138588	57.700000
3078.340152	67.700000
3079.541532	58.550000
3080.742728	57.050000
3081.942234	69.100000
3083.141556	70.800000
3084.342202	69.300000
3085.541158	69.900000
3086.736920	64.000000
3087.935511	67.300000
3089.130908	60.450000
3090.327628	66.050000
3091.521156	62.000000
3092.717513	71.850000
3093.912182	63.950000
3095.103661	66.950000
3096.299471	62.000000
3097.490588	64.950000
3098.683027	69.150000
3099.872279	69.750000
3101.064357	58.300000
3102.254750	65.300000
3103.441958	59.250000
3104.630489	70.350000
3105.820342	58.450000
3107.007010	72.650000
3108.193499	59.400000
3109.379808	64.950000
3110.567439	74.750000
3111.751889	70.000000
3112.934658	59.600000
3114.120251	55.100000
3115.304163	60.450000
3116.486397	69.950000
3117.668452	69.100000
3118.850330	65.400000
3120.032029	57.400000
3121.212050	75.250000
3122.390395	63.250000
3123.571561	69.500000
3124.749551	51.900000
3125.927364	72.050000
3127.105000	68.750000
3128.280961	70.050000
3129.456745	70.600000
3130.633851	59.150000
3131.809282	61.150000
3132.983040	63.600000
3134.155126	66.050000
3135.328532	62.600000
3136.501763	58.700000
3137.673321	69.000000
3138.846201	62.650000
3140.015913	63.450000
3141.186946	61.350000
3142.356308	65.950000
3143.524001	62.100000
3144.694509	69.150000
3145.860358	65.250000
3147.030517	59.050000
3148.196018	53.850000
3149.361346	62.300000
3150.526500	61.750000
3151.691480	64.800000
3152.857781	70.750000
3154.019428	60.950000
3155.182396	58.050000
3156.345190	55.300000
3157.507812	63.600000
3158.668769	70.400000
3159.829553	65.300000
3160.990165	60.450000
3162.149114	61.600000
3163.307890	67.850000
3164.466495	59.050000
3165.624928	55.350000
3166.783189	60.850000
3167.939788	62.400000
3169.094726	63.150000
3170.250983	59.200000
3171.405580	65.800000
3172.560005	72.050000
3173.712771	58.400000
3174.865367	65.250000
3176.017792	63.800000
3177.170048	58.950000
3178.322134	64.050000
3179.471073	66.600000
3180.622819	62.350000
3181.772907	74.150000
3182.921339	66.950000
3184.069602	74.550000
3185.217695	55.300000
3186.365620	63.750000
3187.511890	56.300000
3188.657991	68.950000
3189.802437	64.600000
3190.946716	72.650000
3192.090827	64.900000
3193.236256	70.850000
3194.378545	60.500000
3195.520668	78.450000
3196.662623	63.700000
3197.804412	74.300000
3198.946033	76.500000
3200.084518	83.050000
3201.224321	58.650000
3202.365442	64.450000
3203.503428	68.100000
3204.639765	69.100000
3205.775936	55.600000
3206.913425	75.700000
3208.049264	83.050000
3209.186421	74.200000
3210.318965	63.850000
3211.455791	71.300000
3212.588005	61.150000
3213.721537	79.650000
3214.854903	54.450000
3215.985142	77.850000
3217.118179	65.050000
3218.248090	71.950000
3219.379318	61.150000
3220.507420	60.250000
3221.638319	69.150000
3222.767575	64.400000
3223.895186	51.350000
3225.019676	65.350000
3226.148441	60.150000
3227.274084	55.650000
3228.399564	57.950000
3229.523403	68.650000
3230.650036	58.850000
3231.772072	58.500000
3232.895424	57.350000
3234.018614	63.300000
3235.141642	48.450000
3236.263030	55.150000
3237.384257	59.750000
3238.503845	62.800000
3239.623272	58.350000
3240.741061	65.800000
3241.861643	51.700000
3242.979110	62.900000
3244.096418	54.900000
3245.213564	58.600000
3246.329075	53.200000
3247.445901	64.750000
3248.559616	56.600000
3249.676122	63.700000
3250.790992	52.450000
3251.902754	49.600000
3253.014357	67.400000
3254.127274	54.600000
3255.240033	60.300000
3256.349685	60.450000
3257.460652	61.500000
3258.571459	70.650000
3259.680636	43.450000
3260.788181	59.900000
3261.897041	66.150000
3263.005742	59.850000
3264.111341	43.900000
3265.218254	66.650000
3266.323539	58.500000
3267.430137	66.350000
3268.533635	56.400000
3269.638447	69.400000
3270.743102	52.100000
3271.844658	54.150000
3272.946059	53.300000
3274.048773	65.200000
3275.151330	68.900000
3276.250792	68.500000
3277.353036	58.500000
3278.452185	67.450000
3279.549710	74.200000
3280.647079	54.050000
3281.747231	46.000000
3282.844289	58.750000
3283.941192	49.900000
3285.037941	53.100000
3286.130130	56.400000
3287.226568	51.700000
3288.321385	43.500000
3289.416046	74.200000
3290.509086	53.950000
3291.601972	67.250000
3292.693237	43.150000
3293.785815	57.800000
3294.876772	54.850000
3295.966110	59.350000
3297.055295	53.300000
3298.145793	58.500000
3299.233206	56.850000
3300.320467	49.800000
3301.409040	39.600000
3302.497460	51.950000
3303.581333	60.800000
3304.669448	61.250000
3305.754482	43.550000
3306.837899	51.050000
3307.922629	53.550000
3309.005744	62.200000
3310.090170	51.350000
3311.171518	59.000000
3312.254178	58.800000
3313.335224	49.800000
3314.416119	45.550000
3315.495401	58.150000
3316.574532	40.350000
3317.654974	55.750000
3318.732343	60.400000
3319.811022	62.900000
3320.888091	57.300000
3321.965009	61.550000
3323.040316	53.300000
3324.115474	50.900000
3325.191943	40.100000
3326.265342	67.000000
3327.338592	43.700000
3328.413153	49.750000
3329.486104	44.300000
3330.557448	62.650000
3331.630102	66.400000
3332.699689	42.250000
3333.770587	49.300000
3334.839878	51.850000
3335.910480	67.500000
3336.979475	45.550000
3338.046864	52.950000
3339.112648	64.250000
3340.182658	45.750000
3341.249605	52.300000
3342.313490	48.350000
3343.380143	53.350000
3344.445191	42.850000
3345.508636	57.450000
3346.571935	57.900000
3347.635088	43.200000
3348.698094	50.350000
3349.760953	55.900000
3350.822211	50.100000
3351.880412	53.950000
3352.942834	56.600000
3354.002199	57.550000
3355.061419	48.650000
3356.121949	57.250000
3357.177969	44.850000
3358.236754	54.550000
3359.291031	42.450000
3360.348071	51.750000
3361.403514	51.700000
3362.460265	56.250000
3363.515419	50.600000
3364.568975	46.650000
3365.620934	39.700000
3366.675655	45.200000
3367.727327	58.450000
3368.778856	76.800000
3369.831694	38.450000
3370.881484	50.050000
3371.932582	50.000000
3372.980635	40.800000
3374.031448	44.100000
3375.079215	54.700000
3376.126840	58.700000
3377.174322	62.750000
3378.220212	54.400000
3379.267410	37.350000
3380.311566	40.100000
3381.358480	47.800000
3382.403802	55.500000
3383.446084	51.200000
3384.488224	54.350000
3385.531672	53.500000
3386.574980	40.950000
3387.616697	47.750000
3388.658273	57.450000
3389.699709	55.600000
3390.739555	52.900000
3391.777814	41.700000
3392.817380	49.050000
3393.856805	55.100000
3394.894643	48.300000
3395.930895	54.650000
3396.967006	42.150000
3398.004425	52.100000
3399.038811	44.000000
3400.074504	54.850000
3401.110058	57.900000
3402.142581	51.450000
3403.177857	34.250000
3404.210102	66.000000
3405.242209	50.350000
3406.272732	47.900000
3407.304563	46.750000
3408.336254	56.500000
3409.364919	46.650000
3410.393445	42.600000
3411.423279	50.350000
3412.452974	72.850000
3413.479644	53.150000
3414.507621	51.350000
3415.532573	57.850000
3416.560275	57.400000
3417.584954	56.200000
3418.610939	54.300000
3419.635344	50.850000
3420.659613	60.700000
3421.682303	46.650000
3422.704857	53.200000
3423.728717	61.000000
3424.749557	53.050000
3425.770262	57.200000
3426.792272	51.300000
3427.811264	42.100000
3428.830121	66.450000
3429.850283	40.350000
3430.867429	58.450000
