-118.146553	54.541209
-115.476953	57.963736
-112.810288	60.340659
-110.144375	61.814286
-107.481395	62.526923
-104.816984	62.620879
-102.155504	62.238462
-99.492595	63.232867
-96.834792	60.575524
-94.175560	59.877622
-91.517076	55.108392
-88.861517	56.060839
-86.204528	59.098601
-83.552638	61.564336
-80.899318	61.669930
-78.248917	65.209091
-75.597088	63.125175
-72.950349	69.834965
-70.302180	67.842657
-67.654754	69.675524
-65.010243	68.287413
-62.364302	71.067832
-59.723443	69.344755
-57.081155	73.799301
-54.441776	75.058042
-51.800967	77.918182
-49.160899	82.755245
-46.525904	89.041259
-43.889479	92.301399
-41.255957	103.105594
-38.621007	109.241958
-35.991122	114.941259
-33.357645	126.347552
-30.729230	131.551049
-28.101549	141.116783
-25.472439	116.261538
-22.848386	-86.551049
-20.220744	-1026.924476
-17.598155	-3335.400699
-14.976298	-2710.660140
-12.355171	2309.753147
-9.734775	13457.044056
-7.117266	22975.556643
-4.498329	29683.262937
-1.882277	33519.609790
0.733046	34473.148252
3.347641	32550.729371
5.959355	27773.654545
8.572497	20265.041958
11.180605	10552.903497
13.792295	755.027273
16.398954	-4060.740559
19.007041	-4047.076923
21.614404	-365.637063
24.216742	149.463636
26.822658	154.573427
29.423552	143.909091
32.025874	136.260839
34.623179	118.628671
37.224059	110.021678
39.819924	97.584615
42.417218	97.135664
45.013792	90.853147
47.605357	88.163636
50.198350	85.127972
52.788482	83.125175
55.380041	81.682517
57.968742	82.681119
60.558869	87.579021
63.143997	87.342657
65.730553	85.213287
68.316395	86.323776
70.899383	85.289510
73.483797	86.698601
76.061083	84.291608
78.641935	83.823776
81.219938	82.937762
83.797231	83.840559
86.375950	85.159441
88.949687	86.015385
91.524852	87.805594
94.097173	86.508392
96.668786	85.819580
99.237559	87.860839
101.807759	89.065734
104.375120	92.503497
106.943908	93.502098
109.509859	93.330769
112.072975	96.662238
114.639647	103.996503
117.197098	118.590210
119.760234	138.711888
122.318410	181.707692
124.880141	259.539161
127.436915	382.091608
129.995115	564.051748
132.548363	794.716783
135.100913	1066.962238
137.657013	1361.919580
140.208165	1663.175524
142.758620	1948.014685
145.308377	2204.155944
147.855315	2407.146154
150.401558	2553.627273
152.949226	2640.887413
155.496198	2685.206294
158.038235	2697.797203
160.579578	2689.293706
163.120228	2668.492308
165.662304	2639.599301
168.201568	2606.205594
170.738023	2576.409091
173.273788	2554.878322
175.810978	2550.978322
178.347477	2547.633566
180.881170	2564.270629
183.412059	2578.191608
185.942260	2606.296503
188.473887	2636.179720
191.002712	2668.120979
193.528738	2697.848951
196.054078	2717.637762
198.580843	2727.688112
201.104812	2735.155245
203.628096	2745.125175
206.150695	2750.917483
208.670501	2757.343357
211.189623	2780.258741
213.708064	2792.549650
216.227928	2811.143357
218.740791	2817.928671
221.257185	2813.572727
223.772897	2800.799301
226.283719	2787.618881
228.795966	2774.268531
231.305431	2757.890210
233.814216	2747.160839
236.322324	2742.003497
238.831856	2749.879720
241.336507	2769.558042
243.840482	2777.930769
246.345881	2781.472028
248.846405	2774.534965
251.350452	2871.006294
253.847529	3255.721678
256.348129	3931.570629
258.845957	4709.647552
261.343112	5370.362238
263.839594	5827.911888
266.331213	6052.042657
268.826352	6016.439860
271.318724	5725.118881
273.810426	5210.656643
276.299365	4552.354545
278.789727	3879.810490
281.277328	3379.913986
283.762169	3166.271329
286.250525	3152.620979
288.731941	3163.502098
291.216871	3106.207692
293.696956	3012.408392
296.180553	2908.703497
298.659307	2792.881818
301.139484	2678.639860
303.616910	2593.213986
306.093672	2566.991608
308.569770	2605.805594
311.043121	2677.982517
313.515809	2758.517483
315.987836	2842.120280
318.459202	2906.228671
320.927823	2947.069231
323.395785	2968.813986
325.865170	2966.295105
328.329732	2933.115385
330.797798	2876.120280
333.261044	2812.918881
335.723632	2764.762238
338.185564	2734.060140
340.646839	2723.207692
343.105380	2722.412587
345.565343	2723.154545
348.022573	2719.108392
350.479149	2719.262937
352.935071	2718.193706
355.388263	2712.483217
357.842878	2705.273427
360.292691	2694.172727
362.746000	2686.963636
365.194510	2668.832867
367.642370	2650.677622
370.091652	2636.390210
372.536140	2619.273427
374.982050	2601.879021
377.427310	2590.886014
379.869852	2585.393706
382.311746	2577.147552
384.752993	2576.625175
387.191524	2577.827273
389.631476	2575.771329
392.068715	2575.081818
394.503243	2569.044056
396.941258	2573.204895
399.374496	2575.818881
401.809155	2568.691608
404.239042	2569.213986
406.672414	2576.561538
409.101016	2582.155245
411.528976	2589.250350
413.958358	2595.956643
416.382974	2602.138462
418.809012	2607.844755
421.234409	2605.523776
423.659166	2608.763636
426.079165	2614.500000
428.500584	2616.426573
430.919308	2617.054545
433.339452	2626.762238
435.756901	2635.642657
438.175770	2640.101399
440.591946	2646.371329
443.003374	2649.932867
445.418279	2654.191608
447.830495	2656.167832
450.242076	2655.814685
452.653023	2656.440559
455.061284	2649.992308
457.468912	2645.081818
459.875908	2640.309790
462.282273	2632.051049
464.685955	2626.526573
467.089007	2612.469231
469.491429	2604.175524
471.893221	2599.668531
474.292335	2595.970629
476.692869	2591.980420
479.092774	2598.751049
481.487957	2604.867832
483.886606	2603.368531
486.280534	2602.596503
488.673837	2598.924476
491.066515	2588.667832
493.458567	2576.152448
495.852037	2556.230070
498.240795	2530.092308
500.626887	2501.705594
503.014399	2469.204196
505.401288	2438.440559
507.785513	2403.784615
510.171156	2372.490909
512.554138	2334.090909
514.934459	2305.913287
517.316199	2279.639860
519.695280	2267.496503
522.075779	2251.616084
524.453622	2242.614685
526.828808	2234.980420
529.203378	2230.248252
531.579365	2230.267832
533.952700	2225.127972
536.327452	2206.047552
538.697519	2191.400699
541.066970	2165.268531
543.437839	2144.727273
545.804027	2122.047552
548.171634	2104.670629
550.536596	2084.899301
552.900944	2076.119580
555.264679	2068.460140
557.629832	2068.923077
559.990313	2074.737063
562.352212	2078.935664
564.711470	2082.555944
567.068090	2088.643357
569.428156	2087.734266
571.781530	2088.190210
574.138349	2085.236364
576.492533	2068.390210
578.846108	2056.553147
581.199076	2043.243357
583.549411	2030.279021
585.901164	2017.252448
588.246240	2011.590210
590.596779	2013.669930
592.940646	2014.735664
595.289974	2020.296503
597.634653	2031.776224
599.976708	2043.197902
602.320180	2047.358741
604.661029	2046.007692
607.001275	2048.970629
609.338902	2047.801399
611.679963	2045.802797
614.016386	2037.131469
616.354226	2040.513287
618.689449	2035.292308
621.022056	2024.251049
623.356079	2023.621678
625.687488	2024.990909
628.018299	2023.444755
630.348513	2016.092308
632.678128	2015.707692
635.003120	2017.331469
637.333554	2015.531469
639.659367	2016.232867
641.982572	2018.901399
644.307194	2024.626573
646.629210	2025.773427
648.950632	2027.255245
651.269452	2033.148951
653.589687	2029.118881
655.909329	2029.430070
658.226370	2026.113287
660.542819	2026.818881
662.856670	2026.864336
665.171937	2021.991608
667.484607	2019.969930
669.798692	2018.860140
672.108177	2019.847552
674.419078	2018.094406
676.727386	2014.200000
679.035106	2011.772727
681.344240	2006.302098
683.648782	1999.673427
685.952738	1997.094406
688.256108	1991.123077
690.560892	1987.997203
692.861089	1983.762937
695.162702	1976.225874
697.463729	1968.414685
699.760175	1960.543357
702.058036	1947.802098
704.355313	1940.066434
706.652007	1938.109091
708.944125	1932.644755
711.239654	1927.688811
713.530609	1929.009790
715.822979	1927.780420
718.112774	1931.613287
720.401988	1932.995804
722.690623	1928.400699
724.976685	1929.109091
727.264162	1924.986713
729.549067	1919.403497
731.833395	1919.085315
734.115154	1920.936364
736.398327	1925.248252
738.680923	1926.900699
740.958963	1927.474126
743.238418	1931.825175
745.517296	1928.321678
747.795600	1931.624476
750.069354	1929.513986
752.344521	1931.321678
754.619115	1931.743357
756.891150	1931.944755
759.164598	1927.567832
761.435488	1933.883916
763.703822	1945.484615
765.973569	1950.334266
768.240761	1956.621678
770.507384	1962.293706
772.773436	1970.366434
775.036937	1983.888811
777.301851	1985.600000
779.566195	1994.969231
781.826010	2000.420280
784.087237	2002.285315
786.347897	1988.414685
788.606011	1994.590210
790.861580	1996.647552
793.120540	1994.828671
795.373000	1995.848252
797.630828	2005.143357
799.884137	2016.032168
802.134906	2012.051748
804.387087	2004.284615
806.636729	2004.808392
808.887784	2003.975524
811.134327	2002.188112
813.382282	1979.624476
815.627703	1972.655944
817.874535	1962.846154
820.120806	1955.334965
822.362572	1960.242657
824.607722	1969.299301
826.846399	1986.797902
829.088458	1979.447552
831.326019	1981.425874
833.564992	1997.162238
835.801438	1998.482517
838.039295	1996.371329
840.274627	1989.743357
842.507436	1986.784615
844.741656	1974.229371
846.973353	1967.497203
849.204496	1962.678322
851.435084	1968.216084
853.665118	1975.235664
855.894598	1952.634965
858.119596	1952.725874
860.347969	1959.921678
862.571862	1950.920280
864.797167	1956.313986
867.017996	1973.261538
869.242197	1978.085315
871.461925	1980.892308
873.683063	1983.448951
875.903651	1983.167133
878.121730	1999.698601
880.341218	2017.006993
882.556240	2014.734965
884.770714	2026.527972
886.984641	2041.408392
889.198021	2037.944056
891.410853	2042.397203
893.623139	2039.117483
895.832922	2029.453147
898.042160	2022.486014
900.250853	2002.027273
902.457046	2000.642657
904.664650	2027.588811
906.869755	2046.758042
909.074317	2046.148951
911.276384	2051.879021
913.479860	2068.693007
915.680842	2074.555944
917.881282	2078.307692
920.083131	2072.966434
922.278589	2068.011189
924.477406	2064.855944
926.671784	2063.322378
928.869520	2065.922378
931.062820	2101.958042
933.257529	2108.867832
935.449752	2113.247552
937.641436	2116.490909
939.832583	2139.536364
942.021247	2170.246853
944.209375	2181.576224
946.395022	2194.650350
948.584021	2190.369930
950.768597	2222.047552
952.952638	2248.252448
955.140029	2296.517483
957.319116	2348.099301
959.501554	2385.418182
961.683458	2414.266434
963.862887	2437.058042
966.039844	2449.911189
968.218209	2481.606993
970.397981	2495.906993
972.571404	2511.961538
974.748173	2510.950350
976.920535	2558.696503
979.094305	2581.415385
981.263671	2629.225874
983.436381	2647.849650
985.606626	2685.298601
987.776341	2689.222378
989.945529	2711.710490
992.110319	2715.788811
994.278450	2724.766434
996.442186	2768.307692
998.607330	2769.866434
1000.770014	2779.155944
1002.932173	2789.142657
1005.091875	2783.808392
1007.251052	2782.795804
1009.411636	2765.753147
1011.569765	2744.194406
1013.727371	2693.887413
1015.884453	2652.916084
1018.041011	2575.885315
1020.193190	2460.213287
1022.346776	2358.508392
1024.499840	2209.948252
1026.650455	2091.799301
1028.802477	1976.206294
1030.950125	1874.345455
1033.101105	1699.550350
1035.247714	1471.619580
1037.393804	1213.927273
1039.539376	942.595804
1041.686353	678.390909
1043.827041	430.936364
1045.971059	199.118182
1048.112636	31.527972
1050.253697	-66.430769
1052.396162	-91.860140
1054.532347	-56.338462
1056.671859	-10.453846
1058.807016	-47.700000
1060.945497	-95.097203
1063.079624	-81.494406
1065.213238	25.500699
1067.348256	192.365734
1069.478926	403.248252
1071.611000	646.144755
1073.740645	932.323077
1075.869778	1188.847552
1077.998399	1422.966434
1080.126509	1628.458042
1082.252193	1774.689510
1084.377367	1870.271329
1086.503945	1956.244755
1088.626185	2048.824476
1090.749830	2186.995804
1092.869140	2316.374825
1094.993679	2429.100699
1097.111974	2517.118881
1099.231673	2594.223077
1101.348953	2608.976224
1103.465726	2607.173427
1105.581994	2616.704196
1107.695845	2649.154545
1109.811101	2684.127273
1111.922033	2710.999301
1114.036278	2706.172727
1116.146202	2732.515385
1118.257530	2755.956643
1120.368353	2743.743357
1122.474860	2726.981119
1124.584676	2667.545455
1126.690179	2606.488811
1128.797084	2554.116783
1130.897774	2537.818182
1133.003676	2536.421678
1135.105269	2501.215385
1137.208265	2494.409790
1139.310760	2475.444755
1141.407048	2473.058042
1143.508543	2471.483217
1145.605736	2463.523776
1147.702431	2461.213287
1149.798627	2427.376224
1151.894325	2420.501399
1153.989526	2436.651049
1156.082330	2460.062238
1158.176536	2460.980420
1160.264551	2440.100000
1162.357765	2431.718182
1164.444790	2404.593007
1166.535114	2389.544056
1168.621150	2378.361538
1170.710485	2352.732867
1172.793638	2326.428671
1174.878193	2286.597203
1176.964150	2261.579720
1179.045825	2252.254545
1181.128901	2241.289510
1183.209592	2232.570629
1185.289792	2221.100699
1187.369500	2237.330769
1189.448717	2232.714685
1191.525552	2260.509790
1193.600005	2280.536364
1195.677751	2283.055245
1197.751227	2303.046853
1199.826103	2284.837762
1201.896712	2294.110490
1203.968722	2285.460839
1206.038357	2276.625874
1208.109391	2272.616783
1210.179939	2249.894406
1212.246225	2228.960140
1214.313912	2187.908392
1216.379227	2190.338462
1218.445942	2194.664336
1220.508401	2184.193706
1222.574145	2181.009790
1224.635635	2158.600699
1226.698526	2180.007692
1228.759049	2188.985315
1230.819088	2196.621678
1232.878644	2192.404895
1234.935836	2183.428671
1236.992546	2159.181119
1239.046892	2156.554545
1241.104520	2181.672028
1243.159785	2183.494406
1245.210809	2158.824476
1247.263233	2156.227972
1249.315177	2168.632168
1251.364763	2170.000000
1253.413870	2172.349650
1255.462498	2179.122378
1257.510648	2181.223776
1259.558320	2176.162238
1261.601761	2174.122378
1263.648478	2182.793007
1265.692841	2193.400000
1267.736728	2203.004895
1269.778263	2212.372727
1271.817449	2221.183916
1273.859908	2233.186713
1275.898144	2232.479021
1277.937779	2234.956643
1279.976939	2242.676224
1282.011880	2249.976224
1284.048220	2276.716783
1286.082216	2305.093706
1288.117609	2327.174126
1290.148790	2351.510490
1292.181368	2375.597203
1294.213475	2378.804895
1296.243241	2359.889510
1298.274404	2343.278322
1300.301361	2316.972028
1302.329715	2272.013986
1304.353864	2239.730769
1306.381279	2216.667133
1308.404491	2213.486014
1310.429101	2188.174825
1312.451377	2185.930769
1314.475049	2190.774126
1316.496389	2201.825175
1318.517262	2204.358042
1320.537667	2195.239860
1322.553879	2182.961538
1324.571488	2173.769930
1326.586769	2157.642657
1328.605309	2127.401399
1330.619660	2109.414685
1332.631684	2106.827972
1334.646967	2078.427273
1336.658064	2073.539161
1338.670558	2072.952448
1340.678869	2079.955944
1342.690435	2090.198601
1344.695963	2117.116084
1346.704746	2121.012587
1348.709351	2134.132867
1350.717210	2141.434965
1352.724607	2129.110490
1354.725973	2135.520979
1356.728735	2133.137063
1358.731038	2106.774825
1360.732881	2094.715385
1362.734264	2082.056643
1364.733334	2080.747552
1366.731945	2078.597902
1368.730097	2082.527273
1370.727792	2068.342657
1372.721324	2077.244755
1374.716251	2092.904895
1376.710722	2090.016783
1378.704736	2093.595105
1380.696443	2098.227273
1382.687694	2090.949650
1384.676640	2077.908392
1386.666982	2074.971329
1388.656868	2069.133566
1390.644450	2049.410490
1392.631579	2061.090210
1394.616406	2064.089510
1396.602628	2075.757343
1398.586549	2089.417483
1400.570018	2088.547552
1402.553035	2101.820979
1404.533754	2122.336364
1406.515867	2113.670629
1408.495684	2108.212587
1410.475049	2123.646154
1412.450276	2121.566434
1414.428741	2116.604895
1416.404913	2130.219580
1418.380635	2131.876923
1420.355909	2128.613287
1422.328891	2126.368531
1424.301425	2118.262937
1426.273511	2129.281119
1428.245150	2132.402098
1430.212660	2127.732867
1432.185244	2135.706294
1434.150022	2142.327273
1436.119873	2134.277622
1438.085600	2131.308392
1440.052719	2127.484615
1442.017555	2134.202797
1443.978271	2130.784615
1445.944055	2136.779720
1447.903884	2143.438462
1449.865107	2142.444755
1451.827721	2152.080420
1453.786221	2150.494406
1455.744279	2155.573427
1457.701895	2172.621678
1459.659068	2180.997902
1461.613966	2194.050350
1463.570257	2190.232867
1465.524273	2190.795105
1467.477848	2180.330769
1469.429151	2190.529371
1471.381846	2189.569930
1473.332270	2167.752448
1475.282255	2157.139161
1477.231801	2148.041259
1479.179078	2153.446154
1481.124087	2168.824476
1483.070489	2179.772028
1485.016453	2193.776923
1486.961980	2194.497902
1488.905241	2184.158042
1490.848067	2171.605594
1492.788628	2170.302098
1494.730582	2156.256643
1496.670273	2129.013986
1498.609529	2122.139161
1500.548351	2126.812587
1502.484913	2123.030070
1504.422866	2122.702098
1506.358560	2134.512587
1508.293821	2152.037762
1510.226825	2148.806993
1512.159398	2134.806993
1514.091538	2128.016084
1516.023246	2138.300000
1517.952700	2134.691608
1519.883545	2138.153846
1521.813958	2147.561538
1523.740299	2163.548252
1525.668030	2170.941259
1527.593512	2187.132168
1529.518564	2198.441958
1531.443187	2205.786014
1533.367380	2194.011189
1535.289327	2195.271329
1537.212664	2211.942657
1539.133754	2218.734266
1541.052600	2217.774825
1542.972836	2232.072028
1544.890829	2231.918881
1546.808394	2238.844056
1548.723719	2242.053147
1550.640433	2245.674825
1552.553092	2238.813287
1554.468955	2238.230070
1556.382578	2220.240559
1558.293963	2220.006294
1560.206738	2222.633566
1562.115463	2239.768531
1564.025577	2265.934965
1565.935268	2279.706993
1567.844536	2305.090210
1569.751570	2318.081119
1571.656371	2345.620280
1573.562561	2376.816783
1575.466519	2380.011189
1577.370056	2358.218182
1579.273173	2325.962937
1581.174060	2311.772028
1583.076336	2294.308392
1584.976384	2308.119580
1586.877819	2285.989510
1588.775221	2286.516783
1590.672204	2296.938462
1592.568769	2298.609091
1594.466721	2316.463636
1596.358839	2341.046853
1598.254151	2338.051748
1600.149045	2323.840559
1602.041717	2325.934266
1603.933972	2340.491608
1605.824008	2351.323776
1607.713628	2365.458042
1609.602833	2364.669231
1611.491623	2404.392308
1613.378195	2380.937762
1615.266155	2395.962937
1617.150098	2389.881818
1619.035428	2378.055245
1620.920345	2362.388811
1622.803048	2329.173427
1624.687138	2312.502098
1626.567216	2322.170629
1628.448682	2302.735664
1630.327937	2299.067133
1632.208578	2306.430769
1634.083415	2334.323077
1635.963233	2337.067832
1637.839047	2379.824476
1639.714450	2365.097902
1641.591239	2355.256643
1643.462232	2343.166434
1645.336406	2354.446853
1647.206581	2360.194406
1649.079937	2353.446853
1650.951090	2322.616084
1652.820042	2324.425175
1654.690378	2319.097203
1656.556722	2302.544056
1658.424451	2297.453846
1660.289981	2281.176224
1662.156897	2252.069930
1664.019823	2243.333566
1665.884136	2218.818182
1667.746252	2246.155245
1669.607963	2219.396503
1671.471060	2185.841958
1673.331961	2148.511189
1675.190670	2127.183217
1677.048975	2085.167832
1678.908664	2045.880420
1680.762587	2058.744755
1682.619683	2044.179021
1684.476375	2040.868531
1686.329092	2046.841259
1688.184980	2050.706294
1690.036894	2085.032867
1691.888407	2040.372727
1693.739519	2026.303497
1695.590230	1955.694406
1697.440541	1910.069231
1699.288668	1866.405594
1701.138179	1823.154545
1702.981940	1778.863636
1704.830652	1703.551049
1706.673617	1656.322378
1708.519749	1606.697902
1710.361918	1572.606294
1712.207253	1522.590210
1714.046847	1448.516084
1715.887825	1425.553147
1717.730186	1380.916783
1719.568591	1363.893706
1721.408379	1359.314685
1723.245991	1332.460140
1725.083209	1298.534266
1726.918253	1279.600000
1728.754680	1263.488811
1730.588935	1259.804895
1732.422795	1240.304196
1734.256261	1217.255944
1736.085782	1208.799301
1737.918461	1206.622378
1739.747196	1202.828671
1741.579088	1177.716084
1743.407038	1190.306993
1745.234596	1172.827972
1747.061763	1179.231469
1748.888538	1195.754545
1750.714921	1191.572028
1752.537368	1213.665035
1754.362970	1222.809091
1756.184637	1250.581818
1758.007686	1258.640559
1759.828573	1276.629371
1761.649072	1276.987413
1763.470951	1286.062238
1765.287132	1326.216084
1767.106464	1355.384615
1768.921868	1396.920280
1770.740424	1429.686014
1772.555054	1458.760839
1774.369297	1533.860839
1776.183154	1584.416084
1777.996624	1618.281818
1779.807941	1629.085315
1781.620638	1675.992308
1783.432950	1693.237762
1785.241343	1734.104196
1787.051118	1755.797203
1788.856978	1780.537063
1790.665983	1822.750350
1792.471075	1846.444755
1794.277548	1874.267832
1796.083637	1926.394406
1797.885815	1952.847552
1799.691138	1965.583916
1801.492552	1957.083217
1803.295346	1986.080420
1805.094234	1989.079720
1806.894503	2026.744056
1808.694390	2015.516084
1810.492135	2032.402797
1812.289500	2059.032867
1814.086484	2065.118182
1815.883089	2080.554545
1817.677554	2095.909790
1819.473398	2108.758042
1821.263587	2110.586014
1823.058673	2087.068531
1824.848106	2089.493007
1826.640677	2081.181818
1828.431112	2115.735664
1830.219413	2123.901399
1832.010849	2147.864336
1833.796639	2157.937063
1835.583809	2184.066434
1837.368847	2189.216084
1839.157019	2176.097902
1840.941305	2168.883916
1842.723461	2148.856643
1844.506997	2118.483916
1846.288404	2127.674825
1848.071190	2121.254545
1849.850095	2151.039161
1851.630379	2150.620979
1853.408538	2157.249650
1855.188075	2180.190210
1856.965486	2209.945455
1858.740775	2191.426573
1860.517441	2194.929371
1862.291985	2203.889510
1864.067907	2187.204895
1865.838208	2186.213287
1867.611637	2194.504895
1869.382946	2176.070629
1871.153884	2160.318881
1872.926200	2119.325175
1874.692902	2125.462937
1876.462729	2132.005594
1878.228693	2136.720280
1879.997781	2120.822378
1881.763007	2158.602797
1883.527865	2177.758741
1885.294100	2179.035664
1887.056476	2181.212587
1888.818484	2172.089510
1890.580126	2173.802797
1892.341401	2157.592308
1894.102308	2154.913986
1895.862849	2163.539860
1897.621280	2141.883916
1899.379345	2146.472028
1901.135303	2151.072028
1902.892637	2174.929371
1904.649606	2174.919580
1906.404468	2178.381818
1908.157226	2168.053846
1909.909619	2157.732168
1911.663389	2173.781818
1913.415055	2160.445455
1915.164619	2151.849650
1916.915558	2141.821678
1918.666135	2099.962937
1920.412872	2107.804196
1922.160986	2108.423776
1923.907000	2114.513986
1925.654389	2127.147552
1927.399681	2141.718182
1929.142875	2156.869930
1930.887444	2163.487413
1932.629917	2183.062937
1934.372031	2175.032168
1936.113784	2161.633916
1937.855177	2152.474126
1939.594477	2136.768182
1941.333418	2140.258042
1943.072000	2136.886364
1944.808491	2148.451049
1946.544624	2153.415035
1948.282131	2150.481119
1950.015816	2159.714336
1951.750876	2161.987413
1953.483847	2185.761888
1955.216462	2209.737762
1956.948721	2200.275175
1958.680623	2188.519580
1960.410439	2183.198601
1962.138170	2182.390210
1963.867276	2170.057343
1965.596026	2157.947552
1967.322694	2135.998601
1969.049007	2136.079720
1970.776693	2144.292308
1972.498843	2166.790210
1974.224094	2183.409790
1975.945538	2195.773427
1977.670082	2188.420280
1979.392547	2169.007692
1981.111209	2164.874126
1982.832969	2159.877622
1984.550927	2129.052448
1986.270258	2126.067832
1987.985790	2113.430070
1989.706142	2103.713986
1991.422696	2096.661538
1993.135453	2103.664336
1994.851306	2086.625175
1996.565087	2102.976224
1998.278518	2103.897902
1999.989878	2098.046853
2001.702610	2100.474126
2003.411552	2105.350350
2005.123586	2128.083217
2006.830111	2137.409790
2008.539729	2146.932867
2010.247279	2146.830769
2011.954482	2150.402098
2013.659619	2147.297902
2015.364410	2136.404196
2017.070572	2143.277622
2018.772952	2135.621678
2020.476703	2147.944056
2022.178392	2130.879021
2023.879735	2150.547552
2025.580734	2170.534965
2027.279671	2161.482517
2028.979980	2181.661538
2030.676513	2182.108392
2032.374418	2185.023776
2034.070265	2183.688112
2035.769197	2173.360140
2037.462643	2174.052448
2039.157460	2183.283217
2040.851935	2170.526573
2042.542641	2151.788112
2044.236431	2149.556643
2045.926454	2125.373427
2047.617848	2116.086014
2049.307189	2112.323077
2050.997900	2107.051748
2052.684848	2103.333566
2054.371457	2099.783217
2056.059435	2090.574825
2057.743654	2090.692308
2059.429244	2092.645455
2061.114494	2079.482517
2062.797695	2068.640559
2064.482267	2062.634266
2066.161375	2054.032168
2067.845270	2060.952448
2069.523703	2071.502797
2071.205214	2075.433566
2072.882973	2075.715385
2074.560396	2090.147552
2076.239188	2101.458741
2077.915938	2124.318881
2079.590645	2133.501399
2081.266723	2136.302797
2082.940759	2124.827972
2084.614461	2133.904895
2086.287827	2122.362937
2087.959154	2118.798601
2089.630147	2111.102797
2091.300806	2104.539860
2092.971131	2106.230070
2094.641122	2102.922378
2096.309077	2107.441958
2097.976698	2124.176224
2099.642286	2122.238462
2101.309242	2130.131469
2102.974165	2135.757343
2104.638756	2149.068531
2106.301315	2140.312587
2107.965242	2145.188811
2109.627138	2141.348252
2111.288704	2150.878322
2112.949938	2153.895804
2114.609144	2142.424476
2116.268019	2142.362937
2117.926565	2131.123776
2119.584780	2130.389510
2121.239273	2134.793706
2122.896830	2129.476224
2124.554057	2143.827972
2126.207564	2158.921678
2127.862438	2183.123776
2129.513593	2177.669930
2131.167811	2172.707692
2132.818311	2173.323776
2134.470179	2156.597902
2136.116638	2129.719580
2137.767852	2117.208392
2139.415352	2117.025175
2141.064219	2092.653846
2142.711067	2083.457343
2144.357590	2097.884615
2146.003787	2110.319580
2147.646276	2122.125175
2149.291823	2117.707692
2150.933663	2123.934965
2152.578560	2121.662937
2154.219751	2102.086713
2155.860620	2096.988112
2157.501164	2104.552448
2159.139696	2090.993706
2160.779594	2078.579720
2162.415792	2087.191608
2164.053356	2111.847552
2165.690598	2117.872028
2167.325830	2124.988811
2168.960740	2120.298601
2170.595329	2117.823077
2172.229597	2088.590210
2173.860171	2069.509790
2175.493797	2073.923077
2177.123731	2075.247552
2178.755030	2063.309790
2180.384324	2070.158741
2182.013299	2078.441259
2183.641954	2107.743357
2185.270290	2096.310490
2186.896624	2108.969231
2188.522639	2102.620979
2190.146652	2108.613986
2191.772031	2084.727972
2193.395409	2075.008392
2195.020152	2061.528671
2196.641214	2056.537063
2198.261959	2024.060839
2199.884068	2018.041259
2201.504180	2017.872028
2203.122296	2030.338462
2204.740096	2037.511888
2206.357581	2068.818182
2207.974750	2092.207692
2209.591604	2097.714685
2211.208142	2102.413986
2212.822688	2119.302098
2214.435241	2111.683217
2216.049158	2116.466434
2217.661084	2098.310490
2219.274373	2106.400000
2220.885672	2125.274126
2222.494981	2118.157343
2224.105654	2113.179021
2225.714338	2120.499301
2227.322709	2101.337063
2228.929094	2088.843357
2230.536841	2098.204895
2232.142603	2097.488811
2233.748053	2100.606993
2235.351518	2094.112587
2236.956346	2086.018182
2238.559190	2111.016084
2240.160051	2127.226573
2241.762275	2115.065035
2243.362517	2112.022378
2244.964121	2102.685315
2246.562072	2088.981119
2248.161386	2117.747552
2249.758720	2117.938462
2251.355746	2122.223077
2252.954134	2122.922378
2254.548873	2092.210490
2256.141635	2096.682517
2257.735760	2095.844056
2259.331246	2089.431469
2260.923087	2067.149650
2262.514622	2056.332867
2264.107519	2033.303497
2265.695106	2026.545455
2267.287389	2017.225874
2268.874366	2024.845455
2270.464370	2040.654545
2272.049070	2040.857343
2273.638464	2043.965734
2275.222556	2050.530070
2276.808008	2040.713986
2278.391492	2049.914685
2279.978001	2028.348252
2281.560877	2027.439860
2283.143450	1997.318881
2284.725719	1969.851049
2286.304358	1935.637063
2287.886022	1950.906993
2289.464057	1960.194406
2291.045115	1956.977622
2292.622546	1952.030070
2294.198014	1943.550350
2295.776504	1942.291608
2297.351370	1941.240559
2298.925935	1940.623776
2300.500199	1953.430070
2302.074164	1959.349650
2303.647827	1953.051748
2305.221191	1948.472727
2306.790936	1972.650350
2308.360382	1969.201399
2309.932846	1967.430070
2311.500036	1974.361538
2313.070244	1973.535664
2314.636837	1950.085315
2316.204790	1955.842657
2317.770787	1945.667832
2319.336487	1924.156643
2320.901889	1928.672028
2322.465338	1920.979720
2324.030146	1914.998601
2325.591346	1900.764336
2327.155560	1891.392308
2328.714512	1891.955944
2330.276478	1892.946853
2331.836494	1893.579720
2333.396215	1887.243357
2334.953986	1890.406993
2336.511462	1848.627273
2338.068644	1811.755245
2339.623878	1808.641259
2341.178819	1783.075524
2342.733465	1783.323077
2344.287818	1762.076923
2345.841877	1761.262238
2347.395643	1724.725175
2348.947464	1733.101399
2350.497343	1767.609091
2352.050229	1760.516783
2353.597872	1741.486014
2355.148524	1729.013986
2356.695584	1700.386713
2358.244002	1699.100699
2359.792129	1692.950350
2361.336667	1702.151049
2362.882563	1681.454545
2364.426521	1666.648252
2365.971835	1626.244056
2367.513566	1653.438462
2369.056653	1666.136364
2370.597804	1615.422378
2372.138666	1610.694406
2373.679239	1603.451049
2375.219523	1609.795804
2376.759518	1614.562238
2378.295935	1621.257343
2379.835353	1613.224476
2381.371193	1563.910490
2382.908391	1540.955944
2384.442013	1515.305594
2385.978635	1502.682517
2387.513327	1498.379720
2389.046089	1509.694406
2390.578564	1516.302797
2392.109111	1524.775524
2393.642656	1550.057343
2395.170990	1557.140559
2396.700680	1549.286014
2398.230085	1528.627972
2399.759205	1497.009790
2401.288039	1508.887413
2402.811669	1499.906993
2404.339934	1491.304196
2405.862997	1533.741958
2407.390693	1579.309091
2408.911550	1566.744755
2410.437039	1587.316783
2411.958969	1593.444755
2413.482253	1569.631469
2415.003617	1531.218881
2416.523061	1523.810490
2418.043860	1521.637063
2419.562740	1520.163636
2421.081339	1511.126573
2422.598020	1502.120280
2424.116055	1501.377622
2425.633809	1506.816783
2427.148011	1505.107692
2428.661934	1517.335664
2430.175576	1523.193706
2431.690573	1520.300699
2433.202021	1528.465734
2434.714823	1523.204196
2436.225713	1531.337063
2437.736324	1550.727972
2439.245023	1562.771329
2440.756708	1550.164336
2442.264850	1531.848252
2443.772714	1541.625175
2445.280299	1567.677622
2446.784345	1585.026573
2448.291375	1621.779720
2449.796497	1640.972727
2451.301342	1628.259441
2452.804280	1610.670629
2454.306942	1642.462238
2455.809327	1661.176923
2457.309807	1663.817483
2458.811640	1639.151748
2460.311568	1645.844056
2461.811221	1659.356643
2463.310599	1648.422378
2464.808074	1643.447552
2466.303647	1663.344755
2467.802200	1642.086014
2469.297225	1609.204895
2470.793602	1607.817483
2472.286453	1633.415385
2473.780657	1616.667832
2475.274587	1597.281818
2476.764993	1586.695804
2478.258377	1596.283217
2479.749863	1586.283217
2481.239452	1563.748252
2482.728769	1580.544056
2484.216190	1602.627972
2485.706587	1602.453147
2487.193466	1614.827273
2488.681696	1651.316084
2490.166409	1675.451049
2491.650853	1657.486713
2493.136647	1636.016084
2494.620550	1618.293007
2496.105803	1603.267133
2497.585923	1618.638462
2499.069016	1621.213986
2500.550218	1609.872028
2502.031151	1622.062937
2503.510195	1614.600000
2504.988970	1657.924476
2506.467477	1692.643357
2507.945716	1716.634266
2509.423686	1707.614685
2510.898151	1693.906993
2512.375586	1683.813986
2513.849517	1682.474126
2515.324798	1675.891608
2516.799812	1643.342657
2518.271325	1625.434965
2519.744189	1616.731469
2521.215170	1624.289510
2522.687501	1660.878322
2524.154718	1667.934965
2525.624902	1686.693706
2527.093205	1679.096503
2528.561243	1652.927972
2530.029016	1639.297902
2531.496524	1628.762238
2532.963767	1628.771329
2534.427518	1620.051748
2535.892619	1673.955245
2537.355843	1711.106294
2538.820416	1769.765035
2540.281501	1784.432168
2541.743935	1807.964336
2543.206106	1823.823776
2544.664791	1832.211888
2546.128047	1834.085315
2547.586208	1830.662937
2549.045717	1819.197902
2550.500132	1802.925874
2551.959118	1780.657343
2553.416232	1799.707692
2554.871474	1802.192308
2556.326456	1806.972727
2557.779569	1797.329371
2559.234029	1810.216783
2560.686621	1811.010490
2562.138953	1842.655944
2563.589418	1853.090210
2565.042838	1849.997203
2566.491176	1837.741958
2567.942469	1804.096503
2569.391897	1797.524476
2570.837852	1799.882517
2572.286762	1795.081818
2573.732202	1791.555944
2575.178989	1797.431469
2576.623913	1818.300000
2578.068580	1829.261538
2579.514594	1858.184615
2580.957142	1871.757343
2582.401037	1866.067133
2583.841466	1855.688811
2585.283244	1847.327972
2586.723162	1836.124476
2588.164427	1840.153147
2589.602230	1805.227972
2591.042983	1791.176923
2592.478674	1787.062238
2593.917314	1790.747552
2595.354096	1793.765035
2596.789023	1811.311189
2598.226897	1815.099301
2599.659714	1816.764336
2601.093878	1829.230070
2602.526188	1842.382517
2603.959844	1825.490909
2605.391647	1811.957343
2606.823196	1787.751049
2608.254493	1788.383217
2609.683937	1810.692308
2611.113129	1817.651049
2612.540471	1838.881818
2613.969158	1856.352448
2615.397594	1875.714685
2616.822582	1883.359441
2618.248917	1880.990909
2619.673403	1863.054545
2621.099235	1841.797203
2622.521623	1805.118182
2623.945357	1783.134965
2625.367244	1780.080420
2626.788882	1788.443357
2628.208674	1776.911888
2629.629812	1779.482517
2631.050700	1792.511189
2632.468149	1832.789510
2633.888539	1813.804895
2635.305491	1835.720280
2636.722194	1823.201399
2638.138649	1823.328671
2639.554856	1805.132867
2640.970815	1788.060140
2642.384933	1779.014685
2643.798803	1778.055944
2645.210834	1799.853147
2646.624210	1797.467133
2648.034156	1812.434266
2649.447038	1827.960839
2650.856491	1810.909091
2652.265698	1831.281818
2653.673069	1833.612587
2655.083374	1844.187413
2656.491844	1866.592308
2657.898478	1860.359441
2659.304867	1866.357343
2660.709422	1877.179021
2662.115321	1888.765734
2663.519387	1858.173427
2664.923208	1835.793706
2666.326785	1832.279720
2667.728531	1808.730769
2669.131620	1803.879720
2670.531291	1806.823776
2671.932306	1818.936364
2673.329905	1846.832867
2674.730433	1829.599301
2676.127547	1839.061538
2677.526004	1843.983217
2678.922634	1857.582517
2680.319021	1844.866434
2681.715166	1844.039161
2683.109485	1842.249650
2684.505147	1844.318881
2685.897400	1824.506993
2687.290995	1821.039161
2688.682766	1798.739161
2690.075880	1795.954545
2691.467170	1767.674126
2692.856637	1769.108392
2694.245864	1754.612587
2695.634852	1747.367133
2697.025181	1737.439161
2698.410527	1722.729371
2699.798796	1731.630769
2701.185245	1773.973427
2702.571455	1773.088811
2703.957426	1790.147552
2705.339999	1794.255944
2706.723914	1830.245455
2708.107591	1866.502098
2709.491029	1884.584615
2710.871072	1884.015385
2712.252457	1877.767832
2713.632027	1866.974126
2715.012937	1823.723776
2716.392033	1818.534266
2717.769315	1806.484615
2719.147938	1791.748252
2720.524747	1752.383217
2721.901321	1752.396503
2723.277659	1786.412587
2724.652186	1808.367832
2726.028053	1814.388112
2727.400533	1822.109091
2728.775929	1819.989510
2730.146365	1811.355245
2731.518142	1800.741259
2732.889684	1820.667832
2734.259418	1819.609091
2735.630493	1843.024476
2736.999759	1838.215385
2738.368792	1864.567832
2739.736019	1882.093706
2741.103012	1870.976224
2742.469773	1858.472727
2743.836301	1851.123077
2745.201025	1834.466434
2746.565516	1825.790909
2747.929776	1850.198601
2749.293803	1884.528671
2750.657599	1881.914685
2752.018021	1905.897203
2753.381353	1887.194406
2754.739743	1890.546154
2756.101043	1879.899301
2757.458973	1867.744755
2758.819811	1854.564336
2760.178850	1854.520280
2761.534520	1841.015385
2762.893098	1845.251049
2764.248309	1867.830070
2765.603291	1888.120280
2766.956476	1875.484615
2768.312568	1857.418182
2769.665296	1800.126573
2771.017796	1796.441259
2772.370067	1802.402797
2773.723676	1793.802098
2775.073925	1825.431469
2776.422379	1828.406993
2777.773738	1840.138462
2779.121739	1844.991608
2780.471077	1864.960140
2781.818623	1872.913287
2783.165943	1879.567832
2784.513036	1857.422378
2785.858337	1826.835664
2787.203413	1849.632168
2788.548263	1868.991608
2789.892887	1877.448252
2791.234159	1929.251049
2792.576769	1908.753147
2793.919153	1902.771329
2795.261312	1877.581119
2796.600122	1840.559441
2797.941832	1775.027972
2799.280193	1757.279021
2800.619892	1726.437063
2801.957806	1711.427972
2803.293934	1725.395105
2804.629840	1714.299301
2805.967083	1734.760140
2807.302542	1800.372727
2808.637778	1823.346853
2809.971231	1856.458042
2811.306021	1883.585315
2812.637471	1863.320280
2813.971816	1831.653147
2815.301263	1847.614685
2816.632046	1827.277622
2817.962609	1809.892308
2819.291392	1783.425874
2820.621511	1757.100000
2821.949852	1769.429371
2823.277972	1795.976224
2824.604314	1789.737762
2825.931993	1783.017483
2827.256338	1799.938462
2828.582020	1756.020979
2829.905926	1772.475524
2831.229612	1782.215385
2832.554635	1767.585315
2833.876327	1786.116783
2835.197801	1792.135664
2836.519056	1808.311888
2837.840092	1806.375524
2839.159355	1793.158042
2840.479954	1764.774126
2841.798782	1748.562238
2843.117391	1735.924476
2844.434229	1705.749650
2845.750850	1714.114685
2847.067254	1712.138462
2848.381888	1729.783916
2849.697858	1761.065734
2851.010507	1767.302797
2852.324491	1786.579720
2853.638259	1807.032867
2854.951810	1807.859441
2856.263595	1802.533566
2857.573613	1779.381119
2858.884966	1761.962238
2860.193004	1754.409790
2861.502376	1751.555245
2862.811534	1784.519580
2864.120476	1789.262238
2865.427654	1796.160140
2866.733070	1817.051049
2868.039819	1847.482517
2869.344807	1857.303497
2870.649580	1849.630070
2871.952593	1836.828671
2873.258486	1814.084615
2874.559525	1798.051049
2875.861898	1797.081119
2877.162511	1804.351049
2878.464458	1811.535664
2879.766191	1793.510490
2881.064621	1812.128671
2882.364384	1819.728671
2883.662390	1816.282517
2884.960184	1803.274825
2886.256222	1805.646154
2887.553593	1809.078322
2888.849208	1804.737762
2890.144612	1790.749650
2891.439805	1781.781119
2892.731701	1776.058741
2894.026473	1768.583916
2895.317948	1753.776923
2896.610756	1755.530769
2897.903354	1737.636364
2899.192658	1718.276923
2900.483294	1706.376224
2901.772179	1709.824476
2903.062396	1739.195105
2904.349322	1786.715385
2905.637580	1833.612587
2906.924089	1863.667832
2908.210389	1907.272028
2909.496482	1912.181818
2910.780826	1914.617483
2912.068041	1917.539860
2913.350430	1902.727273
2914.634151	1875.205594
2915.916126	1859.758741
2917.197893	1849.209790
2918.477915	1857.393706
2919.760808	1870.778322
2921.041955	1869.454545
2922.319820	1876.239860
2923.600554	1888.414685
2924.878007	1891.011888
2926.155254	1938.374825
2927.430759	1948.672028
2928.709132	1949.527273
2929.982691	1951.730769
2931.259117	1945.593007
2932.533802	1945.267832
2933.806746	1929.977622
2935.081022	1896.047552
2936.353558	1882.972727
2937.625889	1877.237762
2938.894948	1873.111189
2940.166872	1889.782517
2941.437058	1922.814685
2942.707040	1908.372727
2943.976819	1896.317483
2945.244862	1873.808392
2946.511168	1897.337063
2947.777273	1897.871329
2949.044707	1874.846853
2950.310406	1855.587413
2951.575904	1861.816084
2952.841199	1861.104196
2954.103229	1860.278322
2955.366589	1878.046154
2956.629748	1870.151049
2957.891175	1846.263636
2959.153931	1820.097902
2960.414955	1807.136364
2961.674249	1814.972028
2962.933343	1798.339860
2964.192236	1781.224476
2965.450929	1778.146853
2966.709422	1775.524476
2967.966186	1789.355245
2969.222750	1787.387413
2970.477586	1800.774825
2971.733752	1806.497902
2972.986663	1833.609091
2974.240902	1851.641958
2975.494943	1887.062937
2976.747258	1898.468531
2977.999375	1911.664336
2979.249767	1919.074126
2980.503014	1922.153846
2981.751484	1918.820280
2983.002809	1920.967133
2984.250884	1924.560839
2985.498762	1938.946154
2986.746444	1961.726573
2987.993928	1995.831469
2989.239691	1998.362238
2990.485258	2004.990210
2991.732152	1977.291608
2992.975802	1945.331469
2994.220780	1954.245455
2995.462514	1942.941958
2996.707100	1946.174126
2997.949967	1940.181818
2999.189593	1959.659441
3000.432069	1948.302797
3001.671305	1966.266434
3002.911869	2004.955245
3004.150716	2011.967832
3005.389369	2018.704895
3006.626306	2018.767133
3007.864571	1994.469930
3009.101120	2018.482517
3010.337476	2009.585315
3011.573638	1996.341958
3012.808086	1975.141259
3014.042342	1948.582517
3015.276404	1921.063636
3016.508753	1937.460140
3017.739392	1955.841259
3018.972876	1965.502797
3020.204648	1990.651748
3021.434710	2009.177622
3022.664579	2008.145455
3023.892739	2044.772028
3025.122226	2037.497203
3026.350003	2050.399301
3027.577589	2049.062937
3028.806501	2036.559441
3030.030671	2033.483217
3031.257685	2032.563636
3032.481474	2024.141958
3033.706590	2022.956643
3034.929999	2048.672727
3036.153218	2026.017483
3037.374732	2036.837762
3038.599087	2037.248951
3039.818707	2065.206993
3041.039653	2082.939161
3042.260410	2079.703497
3043.479463	2070.957343
3044.699841	2069.195804
3045.917003	2053.224476
3047.135491	2044.885315
3048.352276	2045.398601
3049.568874	2030.715385
3050.785283	2002.513986
3051.998479	2036.600699
3053.214514	2028.499301
3054.427336	2038.826573
3055.642994	2017.145455
3056.853931	2020.102098
3058.066192	2013.520979
3059.278266	2050.569930
3060.490154	2054.692308
3061.700345	2071.236364
3062.910349	2078.659441
3064.120167	2068.060140
3065.328289	2077.782517
3066.536226	2083.371329
3067.742467	2051.462937
3068.950033	2029.215385
3070.155904	2012.955245
3071.361590	2005.634266
3072.567092	2015.983217
3073.770900	2045.755944
3074.976032	2046.246853
3076.179471	2052.767832
3077.381219	2047.762238
3078.582782	2027.862238
3079.784162	2012.226573
3080.985358	2008.176923
3082.184864	2015.538462
3083.384187	2016.813986
3084.584833	2008.404196
3085.783789	2015.918182
3086.979551	2017.940559
3088.178142	2020.154545
3089.373539	2023.722378
3090.570259	2027.724476
3091.763787	2014.634965
3092.960143	1993.795804
3094.154812	1999.676224
3095.346291	1998.291608
3096.542102	2018.808392
3097.733218	2016.063636
3098.925658	2026.463636
3100.114910	2027.063636
3101.306987	2029.602098
3102.497381	2032.728671
3103.684589	2049.320280
3104.873119	2063.500699
3106.062972	2054.190909
3107.249641	2062.869231
3108.436129	2086.906294
3109.622439	2085.089510
3110.810070	2117.386014
3111.994519	2106.421678
3113.177289	2106.507692
3114.362881	2098.266434
3115.546794	2080.024476
3116.729028	2059.593706
3117.911083	2062.606993
3119.092960	2047.248252
3120.274659	2025.906294
3121.454681	2040.358741
3122.633026	2050.232867
3123.814191	2057.896503
3124.992181	2075.421678
3126.169994	2081.957343
3127.347630	2106.583916
3128.523592	2110.119580
3129.699376	2097.223776
3130.876482	2093.599301
3132.051913	2094.681119
3133.225671	2082.329371
3134.397756	2063.828671
3135.571163	2072.144755
3136.744393	2075.935664
3137.915952	2080.866434
3139.088831	2065.368531
3140.258543	2074.981119
3141.429576	2088.828671
3142.598939	2076.176923
3143.766631	2084.944056
3144.937139	2077.316084
3146.102989	2098.605594
3147.273147	2097.329371
3148.438649	2096.442657
3149.603976	2122.078322
3150.769130	2134.291608
3151.934111	2137.544056
3153.100411	2129.608392
3154.262059	2142.328671
3155.425026	2151.069930
3156.587821	2148.967832
3157.750443	2135.941259
3158.911399	2134.003497
3160.072184	2113.140559
3161.232796	2114.329371
3162.391744	2112.630769
3163.550521	2119.897902
3164.709125	2118.920979
3165.867558	2132.961538
3167.025820	2146.382517
3168.182419	2132.906294
3169.337357	2123.236364
3170.493614	2115.032867
3171.648210	2100.939860
3172.802636	2093.000699
3173.955402	2081.601399
3175.107997	2109.531469
3176.260423	2132.702797
3177.412679	2138.827273
3178.564764	2149.379720
3179.713703	2155.951748
3180.865450	2147.799301
3182.015538	2115.791608
3183.163970	2118.658042
3184.312232	2118.467832
3185.460326	2104.166434
3186.608251	2107.858042
3187.754520	2137.545455
3188.900621	2164.265035
3190.045068	2197.835664
3191.189347	2178.295804
3192.333458	2182.784615
3193.478886	2197.900000
3194.621176	2188.422378
3195.763299	2199.130070
3196.905254	2208.348951
3198.047042	2219.091608
3199.188663	2217.739860
3200.327149	2235.165035
3201.466952	2247.323776
3202.608072	2239.395105
3203.746059	2211.942657
3204.882396	2170.612587
3206.018567	2157.414685
3207.156055	2148.406294
3208.291895	2135.291608
3209.429052	2131.036364
3210.561596	2139.785315
3211.698422	2165.577622
3212.830636	2189.973427
3213.964167	2209.726573
3215.097534	2212.200699
3216.227773	2213.493007
3217.360810	2197.317483
3218.490721	2186.344056
3219.621948	2187.745455
3220.750051	2183.781818
3221.880950	2179.364336
3223.010205	2161.644056
3224.137817	2187.439860
3225.262306	2201.225874
3226.391071	2232.823077
3227.516714	2239.150350
3228.642195	2250.955944
3229.766033	2260.108392
3230.892667	2244.550350
3232.014703	2246.909790
3233.138055	2264.504895
3234.261245	2268.638462
3235.384272	2247.726573
3236.505661	2240.936364
3237.626887	2242.967133
3238.746476	2233.455944
3239.865903	2224.234965
3240.983692	2210.755944
3242.104273	2223.432168
3243.221741	2212.990909
3244.339048	2224.541259
3245.456195	2239.674126
3246.571705	2262.601399
3247.688531	2274.603497
3248.802247	2272.213986
3249.918752	2277.945455
3251.033623	2270.846853
3252.145384	2253.478322
3253.256987	2224.792308
3254.369905	2233.362238
3255.482663	2241.393706
3256.592315	2261.667133
3257.703282	2271.977622
3258.814090	2285.570629
3259.923266	2301.795105
3261.030811	2320.974126
3262.139671	2329.004895
3263.248373	2328.072028
3264.353972	2318.321678
3265.460885	2314.562238
3266.566169	2296.737762
3267.672767	2325.084615
3268.776265	2353.951049
3269.881077	2377.704895
3270.985732	2372.488112
3272.087289	2403.313986
3273.188689	2420.409091
3274.291403	2420.109091
3275.393961	2405.346154
3276.493422	2375.247552
3277.595667	2342.137063
3278.694816	2336.627273
3279.792341	2304.641958
3280.889710	2294.284615
3281.989861	2279.767133
3283.086920	2261.432867
3284.183823	2256.229371
3285.280571	2270.662238
3286.372760	2279.402797
3287.469199	2254.896503
3288.564015	2254.457343
3289.658677	2238.902797
3290.751717	2251.874825
3291.844602	2267.630070
3292.935867	2255.086014
3294.028445	2245.006294
3295.119403	2223.008392
3296.208741	2226.060839
3297.297926	2236.916084
3298.388424	2247.911888
3299.475837	2255.536364
3300.563097	2240.955944
3301.651670	2259.013287
3302.740090	2257.646154
3303.823964	2258.414685
3304.912079	2277.051049
3305.997112	2276.905594
3307.080530	2292.291608
3308.165260	2278.194406
3309.248374	2277.179021
3310.332801	2285.220979
3311.414149	2305.660140
3312.496809	2320.693706
3313.577855	2325.962937
3314.658750	2344.233566
3315.738031	2332.845455
3316.817162	2318.620280
3317.897605	2330.888112
3318.974973	2333.020979
3320.053653	2337.608392
3321.130721	2338.227972
3322.207640	2351.662937
3323.282947	2392.767133
3324.358105	2415.413287
3325.434574	2456.510490
3326.507973	2474.534965
3327.581222	2498.277622
3328.655783	2493.820979
3329.728735	2507.170629
3330.800078	2512.260140
3331.872732	2521.683916
3332.942320	2527.058042
3334.013218	2532.011189
3335.082509	2540.367832
3336.153111	2537.147552
3337.222106	2521.555944
3338.289495	2536.430070
3339.355279	2519.139161
3340.425289	2512.175524
3341.492236	2518.053147
3342.556121	2512.537063
3343.622773	2512.853846
3344.687822	2505.523776
3345.751267	2503.297902
3346.814566	2507.615385
3347.877718	2515.816084
3348.940724	2507.311189
3350.003584	2505.786014
3351.064842	2502.480420
3352.123043	2495.944056
3353.185464	2481.834965
3354.244830	2480.297203
3355.304050	2461.077622
3356.364579	2471.030070
3357.420600	2467.954545
3358.479384	2470.633566
3359.533661	2497.080420
3360.590702	2489.304196
3361.646144	2507.944056
3362.702896	2529.586014
3363.758049	2523.451049
3364.811605	2515.520979
3365.863565	2497.662937
3366.918286	2506.907692
3367.969958	2509.707692
3369.021487	2503.469930
3370.074324	2489.514685
3371.124114	2476.932867
3372.175213	2474.005594
3373.223266	2468.379021
3374.274078	2468.884615
3375.321846	2476.920979
3376.369470	2445.817483
3377.416953	2433.523077
3378.462843	2419.674126
3379.510041	2431.076224
3380.554197	2417.432867
3381.601111	2404.536364
3382.646433	2409.483217
3383.688714	2410.006993
3384.730854	2422.704196
3385.774303	2420.230070
3386.817610	2412.750350
3387.859327	2441.680420
3388.900904	2439.458042
3389.942339	2449.297203
3390.982186	2464.422378
3392.020444	2474.679720
3393.060010	2481.347552
3394.099436	2487.387413
3395.137274	2501.557343
3396.173525	2490.194406
3397.209637	2483.257343
3398.247056	2465.663636
3399.281442	2469.262937
3400.317135	2482.389510
3401.352689	2481.156643
3402.385212	2501.050350
3403.420487	2501.365035
3404.452733	2507.070629
3405.484840	2515.448252
3406.515363	2485.982517
3407.547193	2472.713986
3408.578885	2460.602797
3409.607549	2464.721678
3410.636076	2469.535664
3411.665909	2472.934965
3412.695605	2475.332867
3413.722275	2499.271329
3414.750251	2520.088811
3415.775204	2527.968531
3416.802906	2535.032168
3417.827585	2515.955245
3418.853570	2494.940559
3419.877975	2497.659441
3420.902244	2511.478322
3421.924934	2517.611888
3422.947488	2506.374126
3423.971348	2500.928671
3424.992188	2492.720280
3426.012892	2498.374525
3427.034903	2506.698077
3428.053895	2517.124675
3429.072751	2529.088062
3430.092914	2542.021978
3431.110060	2555.360165
