-118.146553	43.924176
-115.476953	46.354945
-112.810288	48.202797
-110.144375	49.572627
-107.481395	50.569331
-104.816984	51.297802
-102.155504	51.862937
-99.492595	52.341958
-96.834792	52.688112
-94.175560	55.522378
-91.517076	55.322378
-88.861517	58.415385
-86.204528	58.028671
-83.552638	59.123077
-80.899318	63.079021
-78.248917	59.432867
-75.597088	61.451748
-72.950349	59.148951
-70.302180	62.034965
-67.654754	61.209091
-65.010243	68.030070
-62.364302	71.067832
-59.723443	73.199301
-57.081155	73.747552
-54.441776	72.400000
-51.800967	74.237762
-49.160899	79.465035
-46.525904	80.241259
-43.889479	84.653846
-41.255957	85.844056
-38.621007	94.381119
-35.991122	97.876224
-33.357645	110.638462
-30.729230	115.279720
-28.101549	122.564336
-25.472439	87.750350
-22.848386	-123.304895
-20.220744	-1009.802797
-17.598155	-3119.839860
-14.976298	-2789.108392
-12.355171	2733.612587
-9.734775	13125.276923
-7.117266	21788.353147
-4.498329	27832.320280
-1.882277	31221.588112
0.733046	31934.218881
3.347641	29984.159441
5.959355	25386.678322
8.572497	18285.225874
11.180605	9198.320280
13.792295	125.646154
16.398954	-4243.658042
19.007041	-3360.667832
21.614404	-246.131469
24.216742	133.743357
26.822658	139.147552
29.423552	133.014685
32.025874	122.093706
34.623179	111.210490
37.224059	99.817483
39.819924	93.649650
42.417218	87.858741
45.013792	85.266434
47.605357	85.241958
50.198350	83.318881
52.788482	78.386713
55.380041	75.642657
57.968742	76.551748
60.558869	75.962238
63.143997	74.218182
65.730553	76.415385
68.316395	75.951748
70.899383	75.001399
73.483797	74.575524
76.061083	75.680420
78.641935	74.746853
81.219938	70.218182
83.797231	70.871329
86.375950	72.116084
88.949687	71.933566
91.524852	72.976923
94.097173	73.551049
96.668786	77.188811
99.237559	75.727972
101.807759	74.630070
104.375120	75.147552
106.943908	78.413287
109.509859	78.973427
112.072975	76.949650
114.639647	89.757343
117.197098	105.697902
119.760234	125.810490
122.318410	163.844755
124.880141	228.526573
127.436915	330.551748
129.995115	479.477622
132.548363	666.522378
135.100913	888.083916
137.657013	1131.422378
140.208165	1373.818881
142.758620	1606.051049
145.308377	1822.958741
147.855315	1997.314685
150.401558	2122.935664
152.949226	2194.738462
155.496198	2234.131469
158.038235	2245.034965
160.579578	2242.258042
163.120228	2218.655245
165.662304	2194.865035
168.201568	2175.065734
170.738023	2145.020979
173.273788	2133.448252
175.810978	2132.204895
178.347477	2136.188811
180.881170	2144.211888
183.412059	2148.284615
185.942260	2163.502797
188.473887	2174.927972
191.002712	2192.343357
193.528738	2208.124476
196.054078	2229.453147
198.580843	2249.871329
201.104812	2255.838462
203.628096	2272.193007
206.150695	2284.511189
208.670501	2298.419580
211.189623	2308.681119
213.708064	2317.300000
216.227928	2328.737762
218.740791	2332.530070
221.257185	2333.960140
223.772897	2332.910490
226.283719	2325.188112
228.795966	2320.660839
231.305431	2306.320979
233.814216	2300.105594
236.322324	2294.033566
238.831856	2295.754545
241.336507	2294.827273
243.840482	2298.512587
246.345881	2301.348252
248.846405	2302.212587
251.350452	2386.087413
253.847529	2711.910490
256.348129	3284.286014
258.845957	3947.326573
261.343112	4522.718182
263.839594	4920.784615
266.331213	5109.806993
268.826352	5076.382517
271.318724	4821.762937
273.810426	4380.894406
276.299365	3819.588811
278.789727	3237.869930
281.277328	2802.512587
283.762169	2624.575524
286.250525	2609.534965
288.731941	2612.480420
291.216871	2571.396503
293.696956	2485.463636
296.180553	2393.609790
298.659307	2287.055944
301.139484	2194.781119
303.616910	2127.025175
306.093672	2108.323077
308.569770	2142.045455
311.043121	2222.111189
313.515809	2306.425874
315.987836	2377.200699
318.459202	2435.613986
320.927823	2470.378322
323.395785	2481.694406
325.865170	2475.378322
328.329732	2439.152448
330.797798	2392.109790
333.261044	2330.686713
335.723632	2282.433566
338.185564	2257.467133
340.646839	2248.617483
343.105380	2242.979720
345.565343	2240.261538
348.022573	2236.106993
350.479149	2225.788112
352.935071	2219.867133
355.388263	2218.517483
357.842878	2210.666434
360.292691	2207.906294
362.746000	2201.993706
365.194510	2190.032867
367.642370	2181.802797
370.091652	2171.507692
372.536140	2157.618182
374.982050	2149.074126
377.427310	2134.736364
379.869852	2120.565734
382.311746	2111.941259
384.752993	2110.427972
387.191524	2112.742657
389.631476	2114.630769
392.068715	2111.774825
394.503243	2106.374126
396.941258	2114.832168
399.374496	2120.966434
401.809155	2118.810490
404.239042	2120.183217
406.672414	2119.063636
409.101016	2122.009091
411.528976	2129.898601
413.958358	2132.644755
416.382974	2143.282517
418.809012	2145.994406
421.234409	2149.698601
423.659166	2154.455245
426.079165	2164.770629
428.500584	2169.465734
430.919308	2170.197203
433.339452	2169.340559
435.756901	2173.785315
438.175770	2175.494406
440.591946	2183.293706
443.003374	2180.790210
445.418279	2184.796503
447.830495	2191.115385
450.242076	2190.266434
452.653023	2185.078322
455.061284	2183.368531
457.468912	2172.567832
459.875908	2166.917483
462.282273	2153.271329
464.685955	2146.780420
467.089007	2133.694406
469.491429	2130.665734
471.893221	2122.927972
474.292335	2121.612587
476.692869	2126.322378
479.092774	2123.748951
481.487957	2129.013287
483.886606	2132.787413
486.280534	2131.473427
488.673837	2130.594406
491.066515	2117.902797
493.458567	2110.405594
495.852037	2092.658042
498.240795	2073.486014
500.626887	2048.665035
503.014399	2019.618182
505.401288	1990.165734
507.785513	1954.346154
510.171156	1927.100000
512.554138	1892.929371
514.934459	1864.129371
517.316199	1842.916783
519.695280	1824.174126
522.075779	1821.348951
524.453622	1817.872028
526.828808	1819.461538
529.203378	1822.014685
531.579365	1825.311189
533.952700	1822.716783
536.327452	1808.974825
538.697519	1795.913287
541.066970	1774.274126
543.437839	1751.211888
545.804027	1732.664336
548.171634	1707.251049
550.536596	1694.197902
552.900944	1681.534965
555.264679	1672.973427
557.629832	1671.514685
559.990313	1676.237063
562.352212	1679.574126
564.711470	1682.944755
567.068090	1684.269930
569.428156	1682.390909
571.781530	1673.840559
574.138349	1668.916783
576.492533	1654.591608
578.846108	1644.949650
581.199076	1632.439161
583.549411	1625.474825
585.901164	1622.669231
588.246240	1622.311888
590.596779	1624.495804
592.940646	1628.116084
595.289974	1634.088811
597.634653	1638.953147
599.976708	1634.870629
602.320180	1637.676224
604.661029	1640.183916
607.001275	1641.302098
609.338902	1636.827273
611.679963	1638.824476
614.016386	1630.776923
616.354226	1629.913287
618.689449	1625.032867
621.022056	1619.153147
623.356079	1615.527972
625.687488	1610.102098
628.018299	1607.283217
630.348513	1615.865035
632.678128	1622.313986
635.003120	1624.703497
637.333554	1623.632867
639.659367	1627.769930
641.982572	1623.489510
644.307194	1626.629371
646.629210	1621.562937
648.950632	1614.725175
651.269452	1611.334965
653.589687	1609.520979
655.909329	1613.050350
658.226370	1613.218182
660.542819	1611.267133
662.856670	1611.900000
665.171937	1613.010490
667.484607	1612.348252
669.798692	1608.040559
672.108177	1607.930769
674.419078	1605.540559
676.727386	1604.078322
679.035106	1604.000000
681.344240	1603.283217
683.648782	1598.343357
685.952738	1592.679720
688.256108	1587.924476
690.560892	1586.474825
692.861089	1581.854545
695.162702	1575.818182
697.463729	1571.349650
699.760175	1563.268531
702.058036	1557.396503
704.355313	1552.244056
706.652007	1550.845455
708.944125	1545.223776
711.239654	1536.237063
713.530609	1538.844755
715.822979	1539.129371
718.112774	1539.534965
720.401988	1537.411888
722.690623	1540.716783
724.976685	1544.227273
727.264162	1544.651049
729.549067	1547.518182
731.833395	1546.527972
734.115154	1545.595105
736.398327	1544.397902
738.680923	1544.258042
740.958963	1546.512587
743.238418	1543.769231
745.517296	1533.823077
747.795600	1525.179720
750.069354	1528.021678
752.344521	1526.930769
754.619115	1529.917483
756.891150	1522.300000
759.164598	1522.825175
761.435488	1532.436364
763.703822	1540.509091
765.973569	1543.446853
768.240761	1546.859441
770.507384	1554.515385
772.773436	1557.700000
775.036937	1560.337063
777.301851	1566.962937
779.566195	1567.897902
781.826010	1571.126573
784.087237	1569.800000
786.347897	1575.712587
788.606011	1572.472727
790.861580	1564.684615
793.120540	1554.060839
795.373000	1558.087413
797.630828	1564.180420
799.884137	1567.387413
802.134906	1561.476923
804.387087	1561.737063
806.636729	1567.373427
808.887784	1562.861538
811.134327	1557.114685
813.382282	1555.097902
815.627703	1547.249650
817.874535	1544.732867
820.120806	1537.803497
822.362572	1542.309790
824.607722	1544.609091
826.846399	1536.979720
829.088458	1530.932168
831.326019	1534.565035
833.564992	1538.244056
835.801438	1535.468531
838.039295	1533.802098
840.274627	1540.390210
842.507436	1548.465734
844.741656	1545.836364
846.973353	1541.091608
849.204496	1545.134266
851.435084	1542.046853
853.665118	1523.583916
855.894598	1521.110490
858.119596	1513.470629
860.347969	1511.482517
862.571862	1514.806294
864.797167	1517.195105
867.017996	1525.670629
869.242197	1533.259441
871.461925	1530.476224
873.683063	1537.676224
875.903651	1542.417483
878.121730	1536.749650
880.341218	1523.976224
882.556240	1521.335664
884.770714	1517.237762
886.984641	1515.362937
889.198021	1526.713287
891.410853	1532.402797
893.623139	1541.310490
895.832922	1535.341958
898.042160	1538.985315
900.250853	1540.905594
902.457046	1526.893007
904.664650	1525.233566
906.869755	1526.171329
909.074317	1529.944755
911.276384	1532.388811
913.479860	1533.896503
915.680842	1537.462937
917.881282	1549.507692
920.083131	1554.502797
922.278589	1563.011189
924.477406	1574.839860
926.671784	1572.592308
928.869520	1561.637762
931.062820	1569.818881
933.257529	1581.953147
935.449752	1583.283217
937.641436	1588.102797
939.832583	1595.296503
942.021247	1607.492308
944.209375	1639.013287
946.395022	1652.397203
948.584021	1664.616084
950.768597	1667.645455
952.952638	1676.900000
955.140029	1670.856643
957.319116	1678.044755
959.501554	1687.851049
961.683458	1695.016084
963.862887	1697.664336
966.039844	1718.718881
968.218209	1732.229371
970.397981	1741.518881
972.571404	1731.630769
974.748173	1736.696503
976.920535	1741.438462
979.094305	1738.358042
981.263671	1746.550350
983.436381	1770.841259
985.606626	1798.638462
987.776341	1843.730769
989.945529	1872.991608
992.110319	1935.857343
994.278450	1964.376923
996.442186	1987.013287
998.607330	1981.596503
1000.770014	1994.610490
1002.932173	1967.646853
1005.091875	1946.223077
1007.251052	1936.171329
1009.411636	1892.495105
1011.569765	1872.244056
1013.727371	1854.744755
1015.884453	1821.949650
1018.041011	1803.549650
1020.193190	1785.042657
1022.346776	1753.181818
1024.499840	1697.939860
1026.650455	1649.944056
1028.802477	1564.941259
1030.950125	1492.646154
1033.101105	1401.398601
1035.247714	1293.172028
1037.393804	1207.823776
1039.539376	1131.779720
1041.686353	1055.495804
1043.827041	1016.087413
1045.971059	998.272727
1048.112636	984.720280
1050.253697	971.385315
1052.396162	967.811189
1054.532347	951.860839
1056.671859	952.253846
1058.807016	946.965734
1060.945497	957.366434
1063.079624	967.021678
1065.213238	1011.937762
1067.348256	1034.743357
1069.478926	1082.211189
1071.611000	1105.810490
1073.740645	1151.144755
1075.869778	1184.112587
1077.998399	1245.755245
1080.126509	1303.860839
1082.252193	1370.860140
1084.377367	1455.891608
1086.503945	1559.546154
1088.626185	1650.113287
1090.749830	1719.858042
1092.869140	1785.745455
1094.993679	1807.263636
1097.111974	1826.646853
1099.231673	1864.520280
1101.348953	1850.541259
1103.465726	1842.594406
1105.581994	1834.725874
1107.695845	1817.172727
1109.811101	1816.811888
1111.922033	1800.658741
1114.036278	1795.309091
1116.146202	1773.744755
1118.257530	1808.609091
1120.368353	1810.714685
1122.474860	1828.627972
1124.584676	1852.800699
1126.690179	1840.386713
1128.797084	1846.729371
1130.897774	1848.900699
1133.003676	1840.400000
1135.105269	1821.772727
1137.208265	1786.499301
1139.310760	1771.528671
1141.407048	1760.667832
1143.508543	1758.322378
1145.605736	1755.696503
1147.702431	1741.457343
1149.798627	1750.483217
1151.894325	1762.003497
1153.989526	1753.750350
1156.082330	1730.051748
1158.176536	1744.566434
1160.264551	1745.921678
1162.357765	1742.710490
1164.444790	1732.843357
1166.535114	1711.886713
1168.621150	1702.353846
1170.710485	1714.685315
1172.793638	1730.952448
1174.878193	1739.046853
1176.964150	1723.060140
1179.045825	1696.172727
1181.128901	1700.751748
1183.209592	1713.710490
1185.289792	1709.796503
1187.369500	1687.546853
1189.448717	1680.601399
1191.525552	1654.549650
1193.600005	1649.986014
1195.677751	1643.085315
1197.751227	1642.584615
1199.826103	1643.908392
1201.896712	1627.200000
1203.968722	1632.474825
1206.038357	1643.623776
1208.109391	1627.753846
1210.179939	1623.207692
1212.246225	1634.921678
1214.313912	1670.171329
1216.379227	1676.206993
1218.445942	1686.168531
1220.508401	1678.079021
1222.574145	1668.832867
1224.635635	1669.462238
1226.698526	1659.593706
1228.759049	1662.243357
1230.819088	1645.332168
1232.878644	1643.315385
1234.935836	1640.263636
1236.992546	1654.803497
1239.046892	1674.955944
1241.104520	1668.952448
1243.159785	1663.072028
1245.210809	1653.916783
1247.263233	1651.087413
1249.315177	1631.232867
1251.364763	1643.520280
1253.413870	1647.818182
1255.462498	1636.199301
1257.510648	1651.032168
1259.558320	1635.485315
1261.601761	1646.610490
1263.648478	1653.338462
1265.692841	1635.395804
1267.736728	1631.331469
1269.778263	1620.008392
1271.817449	1620.593706
1273.859908	1609.287413
1275.898144	1615.522378
1277.937779	1615.230769
1279.976939	1611.745455
1282.011880	1608.213986
1284.048220	1610.944755
1286.082216	1626.599301
1288.117609	1638.371329
1290.148790	1643.111888
1292.181368	1653.703497
1294.213475	1669.412587
1296.243241	1678.734266
1298.274404	1677.955944
1300.301361	1658.881818
1302.329715	1652.664336
1304.353864	1649.237063
1306.381279	1635.490909
1308.404491	1631.477622
1310.429101	1604.549650
1312.451377	1604.643357
1314.475049	1600.160839
1316.496389	1605.574825
1318.517262	1603.901399
1320.537667	1586.967832
1322.553879	1582.596503
1324.571488	1569.083916
1326.586769	1577.066434
1328.605309	1597.383217
1330.619660	1602.035664
1332.631684	1611.713287
1334.646967	1608.270629
1336.658064	1623.594406
1338.670558	1632.346154
1340.678869	1642.469231
1342.690435	1636.277622
1344.695963	1635.586014
1346.704746	1612.609790
1348.709351	1589.902797
1350.717210	1583.767133
1352.724607	1582.043357
1354.725973	1577.413287
1356.728735	1579.827273
1358.731038	1586.900000
1360.732881	1594.704196
1362.734264	1609.606294
1364.733334	1622.846853
1366.731945	1624.157343
1368.730097	1627.923077
1370.727792	1619.365734
1372.721324	1615.695105
1374.716251	1612.860839
1376.710722	1610.751049
1378.704736	1610.520979
1380.696443	1617.986014
1382.687694	1617.059441
1384.676640	1613.351748
1386.666982	1613.877622
1388.656868	1617.325874
1390.644450	1603.825874
1392.631579	1604.421678
1394.616406	1602.133566
1396.602628	1590.893007
1398.586549	1585.780420
1400.570018	1592.883217
1402.553035	1594.518182
1404.533754	1598.730769
1406.515867	1603.853147
1408.495684	1612.663636
1410.475049	1608.839161
1412.450276	1611.276923
1414.428741	1610.813986
1416.404913	1613.772028
1418.380635	1607.228671
1420.355909	1592.966434
1422.328891	1578.031469
1424.301425	1580.383217
1426.273511	1581.993706
1428.245150	1584.238462
1430.212660	1596.480420
1432.185244	1598.234965
1434.150022	1596.236364
1436.119873	1611.537762
1438.085600	1626.280420
1440.052719	1636.491608
1442.017555	1642.670629
1443.978271	1636.014685
1445.944055	1637.328671
1447.903884	1649.552448
1449.865107	1646.430070
1451.827721	1647.872028
1453.786221	1640.632867
1455.744279	1636.206294
1457.701895	1639.115385
1459.659068	1645.108392
1461.613966	1641.862238
1463.570257	1652.325175
1465.524273	1656.540559
1467.477848	1658.001399
1469.429151	1661.148951
1471.381846	1656.649650
1473.332270	1645.379720
1475.282255	1654.707692
1477.231801	1635.628671
1479.179078	1638.523776
1481.124087	1640.336364
1483.070489	1647.067133
1485.016453	1641.602797
1486.961980	1641.263636
1488.905241	1649.832867
1490.848067	1641.461538
1492.788628	1633.288112
1494.730582	1629.095105
1496.670273	1597.764336
1498.609529	1591.169930
1500.548351	1585.827972
1502.484913	1597.210490
1504.422866	1604.623776
1506.358560	1619.666434
1508.293821	1617.780420
1510.226825	1632.871329
1512.159398	1652.089510
1514.091538	1645.944755
1516.023246	1650.016084
1517.952700	1645.324476
1519.883545	1615.981818
1521.813958	1621.309790
1523.740299	1633.860839
1525.668030	1626.530070
1527.593512	1616.623077
1529.518564	1619.385315
1531.443187	1624.259441
1533.367380	1645.634266
1535.289327	1643.346154
1537.212664	1648.579021
1539.133754	1639.557343
1541.052600	1623.316084
1542.972836	1611.920280
1544.890829	1621.309790
1546.808394	1617.849650
1548.723719	1613.760839
1550.640433	1617.329371
1552.553092	1631.568531
1554.468955	1659.049650
1556.382578	1683.776224
1558.293963	1681.565734
1560.206738	1678.999301
1562.115463	1661.856643
1564.025577	1645.518182
1565.935268	1642.182517
1567.844536	1628.141958
1569.751570	1615.317483
1571.656371	1607.894406
1573.562561	1608.228671
1575.466519	1616.146154
1577.370056	1613.944056
1579.273173	1610.341259
1581.174060	1609.317483
1583.076336	1599.180420
1584.976384	1613.310490
1586.877819	1615.357343
1588.775221	1622.245455
1590.672204	1632.143357
1592.568769	1642.062937
1594.466721	1655.202098
1596.358839	1664.913986
1598.254151	1666.695105
1600.149045	1646.952448
1602.041717	1673.616084
1603.933972	1675.186713
1605.824008	1662.125175
1607.713628	1639.511888
1609.602833	1635.087413
1611.491623	1629.059441
1613.378195	1650.116783
1615.266155	1635.313287
1617.150098	1637.918881
1619.035428	1617.410490
1620.920345	1610.026573
1622.803048	1620.529371
1624.687138	1649.855245
1626.567216	1652.106294
1628.448682	1650.485315
1630.327937	1633.919580
1632.208578	1637.790210
1634.083415	1635.667832
1635.963233	1634.262238
1637.839047	1623.579021
1639.714450	1599.500000
1641.591239	1581.831469
1643.462232	1558.188112
1645.336406	1553.372727
1647.206581	1532.397203
1649.079937	1530.872028
1650.951090	1524.272028
1652.820042	1514.893706
1654.690378	1528.048951
1656.556722	1538.623077
1658.424451	1515.672727
1660.289981	1511.525874
1662.156897	1487.765734
1664.019823	1486.625874
1665.884136	1465.644056
1667.746252	1455.818182
1669.607963	1437.172028
1671.471060	1454.738462
1673.331961	1469.888811
1675.190670	1487.541958
1677.048975	1513.011888
1678.908664	1517.735664
1680.762587	1512.374126
1682.619683	1518.422378
1684.476375	1494.430769
1686.329092	1455.724476
1688.184980	1395.907692
1690.036894	1370.100699
1691.888407	1353.754545
1693.739519	1350.462937
1695.590230	1364.366434
1697.440541	1346.601399
1699.288668	1344.627273
1701.138179	1342.777622
1702.981940	1324.785315
1704.830652	1316.550350
1706.673617	1296.188811
1708.519749	1242.665035
1710.361918	1201.232168
1712.207253	1197.658042
1714.046847	1215.790210
1715.887825	1238.922378
1717.730186	1287.857343
1719.568591	1267.646853
1721.408379	1291.960140
1723.245991	1283.048252
1725.083209	1247.319580
1726.918253	1250.541958
1728.754680	1232.327972
1730.588935	1195.966434
1732.422795	1171.083916
1734.256261	1164.233566
1736.085782	1158.579720
1737.918461	1141.621678
1739.747196	1148.760839
1741.579088	1117.384615
1743.407038	1103.197203
1745.234596	1083.629371
1747.061763	1072.691608
1748.888538	1099.072727
1750.714921	1099.486713
1752.537368	1118.284615
1754.362970	1140.588811
1756.184637	1153.954545
1758.007686	1155.398601
1759.828573	1156.855245
1761.649072	1169.371329
1763.470951	1145.965734
1765.287132	1139.631469
1767.106464	1166.095105
1768.921868	1203.087413
1770.740424	1220.855245
1772.555054	1239.714685
1774.369297	1286.281818
1776.183154	1312.662937
1777.996624	1325.655245
1779.807941	1363.048252
1781.620638	1379.708392
1783.432950	1390.640559
1785.241343	1386.506294
1787.051118	1387.616783
1788.856978	1388.089510
1790.665983	1381.684615
1792.471075	1383.738462
1794.277548	1361.820280
1796.083637	1371.343357
1797.885815	1352.758042
1799.691138	1367.108392
1801.492552	1373.858042
1803.295346	1361.416084
1805.094234	1391.472028
1806.894503	1398.870629
1808.694390	1448.982517
1810.492135	1472.626573
1812.289500	1507.691608
1814.086484	1545.212587
1815.883089	1500.131469
1817.677554	1500.155944
1819.473398	1483.069231
1821.263587	1462.691608
1823.058673	1429.597203
1824.848106	1417.399301
1826.640677	1441.349650
1828.431112	1454.770629
1830.219413	1506.935664
1832.010849	1508.806993
1833.796639	1562.460140
1835.583809	1583.156643
1837.368847	1553.863636
1839.157019	1553.720280
1840.941305	1554.887413
1842.723461	1553.652448
1844.506997	1546.132168
1846.288404	1560.313287
1848.071190	1570.869231
1849.850095	1594.648252
1851.630379	1594.523776
1853.408538	1581.341958
1855.188075	1626.550350
1856.965486	1625.633566
1858.740775	1608.116084
1860.517441	1601.077622
1862.291985	1583.510490
1864.067907	1566.611189
1865.838208	1546.766434
1867.611637	1561.583217
1869.382946	1575.300699
1871.153884	1592.219580
1872.926200	1593.413287
1874.692902	1589.765035
1876.462729	1612.784615
1878.228693	1597.938462
1879.997781	1587.660140
1881.763007	1581.944056
1883.527865	1560.618182
1885.294100	1541.280420
1887.056476	1542.424476
1888.818484	1571.279720
1890.580126	1583.834965
1892.341401	1606.809790
1894.102308	1621.435664
1895.862849	1627.803497
1897.621280	1623.083916
1899.379345	1628.236364
1901.135303	1623.395105
1902.892637	1626.293706
1904.649606	1600.153846
1906.404468	1566.577622
1908.157226	1577.536364
1909.909619	1599.468531
1911.663389	1595.104895
1913.415055	1605.278322
1915.164619	1607.428671
1916.915558	1627.232867
1918.666135	1615.490210
1920.412872	1631.783217
1922.160986	1624.795105
1923.907000	1621.951748
1925.654389	1602.587413
1927.399681	1580.146853
1929.142875	1602.296503
1930.887444	1592.916783
1932.629917	1578.033566
1934.372031	1562.084615
1936.113784	1554.602448
1937.855177	1564.804895
1939.594477	1549.363287
1941.333418	1562.288112
1943.072000	1563.181469
1944.808491	1564.990909
1946.544624	1581.312238
1948.282131	1588.937063
1950.015816	1608.325524
1951.750876	1599.880420
1953.483847	1604.277273
1955.216462	1610.898601
1956.948721	1615.408741
1958.680623	1628.583916
1960.410439	1624.141958
1962.138170	1622.184615
1963.867276	1609.748951
1965.596026	1606.734965
1967.322694	1601.264336
1969.049007	1592.045455
1970.776693	1594.831469
1972.498843	1589.298601
1974.224094	1596.887413
1975.945538	1615.462238
1977.670082	1640.154545
1979.392547	1652.178322
1981.111209	1655.651049
1982.832969	1653.190210
1984.550927	1648.525175
1986.270258	1649.178322
1987.985790	1641.662238
1989.706142	1646.362937
1991.422696	1654.442657
1993.135453	1645.580420
1994.851306	1657.486713
1996.565087	1669.083217
1998.278518	1684.641259
1999.989878	1684.960839
2001.702610	1705.435664
2003.411552	1696.493706
2005.123586	1710.104196
2006.830111	1708.980420
2008.539729	1710.804895
2010.247279	1719.515385
2011.954482	1727.490210
2013.659619	1720.363636
2015.364410	1720.708392
2017.070572	1701.517483
2018.772952	1696.846853
2020.476703	1692.445455
2022.178392	1695.933566
2023.879735	1674.075524
2025.580734	1685.302098
2027.279671	1667.809790
2028.979980	1670.932168
2030.676513	1691.113986
2032.374418	1708.718881
2034.070265	1711.590210
2035.769197	1716.064336
2037.462643	1711.967832
2039.157460	1717.782517
2040.851935	1715.111189
2042.542641	1732.958042
2044.236431	1715.228671
2045.926454	1718.360839
2047.617848	1700.200000
2049.307189	1692.878322
2050.997900	1688.290210
2052.684848	1692.897203
2054.371457	1683.501399
2056.059435	1678.629371
2057.743654	1678.165035
2059.429244	1677.372028
2061.114494	1688.567133
2062.797695	1694.030769
2064.482267	1676.617483
2066.161375	1675.472727
2067.845270	1682.736364
2069.523703	1677.937762
2071.205214	1680.084615
2072.882973	1687.460140
2074.560396	1667.344056
2076.239188	1660.601399
2077.915938	1649.628671
2079.590645	1649.554545
2081.266723	1656.518881
2082.940759	1653.734266
2084.614461	1652.229371
2086.287827	1643.837762
2087.959154	1663.214685
2089.630147	1665.700699
2091.300806	1679.651049
2092.971131	1692.847552
2094.641122	1702.740559
2096.309077	1717.862937
2097.976698	1711.894406
2099.642286	1716.716783
2101.309242	1721.407692
2102.974165	1716.535664
2104.638756	1714.195105
2106.301315	1687.877622
2107.965242	1670.912587
2109.627138	1644.836364
2111.288704	1629.884615
2112.949938	1649.979021
2114.609144	1665.060839
2116.268019	1670.416783
2117.926565	1664.938462
2119.584780	1666.914685
2121.239273	1683.560140
2122.896830	1681.301399
2124.554057	1697.286014
2126.207564	1701.988112
2127.862438	1696.355944
2129.513593	1684.009790
2131.167811	1689.611888
2132.818311	1705.311888
2134.470179	1692.911189
2136.116638	1685.017483
2137.767852	1677.168531
2139.415352	1678.430769
2141.064219	1686.590210
2142.711067	1671.123776
2144.357590	1679.452448
2146.003787	1704.949650
2147.646276	1710.762238
2149.291823	1707.808392
2150.933663	1704.550350
2152.578560	1692.878322
2154.219751	1670.441958
2155.860620	1676.265734
2157.501164	1674.413287
2159.139696	1687.346853
2160.779594	1689.941958
2162.415792	1695.686014
2164.053356	1705.825175
2165.690598	1726.697902
2167.325830	1724.871329
2168.960740	1705.952448
2170.595329	1692.053846
2172.229597	1659.065035
2173.860171	1636.518182
2175.493797	1638.170629
2177.123731	1621.897203
2178.755030	1627.090210
2180.384324	1629.893007
2182.013299	1645.112587
2183.641954	1662.030070
2185.270290	1675.776224
2186.896624	1674.399301
2188.522639	1671.176923
2190.146652	1681.538462
2191.772031	1673.172028
2193.395409	1658.698601
2195.020152	1660.817483
2196.641214	1644.918182
2198.261959	1632.444056
2199.884068	1621.008392
2201.504180	1620.608392
2203.122296	1615.260839
2204.740096	1610.175524
2206.357581	1589.774126
2207.974750	1607.446154
2209.591604	1622.010490
2211.208142	1616.713287
2212.822688	1621.872727
2214.435241	1636.603497
2216.049158	1648.284615
2217.661084	1638.769930
2219.274373	1636.524476
2220.885672	1621.416783
2222.494981	1613.257343
2224.105654	1626.267832
2225.714338	1610.865734
2227.322709	1626.742657
2228.929094	1636.801399
2230.536841	1646.531469
2232.142603	1652.185315
2233.748053	1659.330769
2235.351518	1684.494406
2236.956346	1671.318881
2238.559190	1661.732867
2240.160051	1652.727273
2241.762275	1660.218881
2243.362517	1682.474126
2244.964121	1672.121678
2246.562072	1670.970629
2248.161386	1671.594406
2249.758720	1650.409091
2251.355746	1650.813287
2252.954134	1656.990210
2254.548873	1666.743357
2256.141635	1654.177622
2257.735760	1641.474825
2259.331246	1631.307692
2260.923087	1615.889510
2262.514622	1622.540559
2264.107519	1619.814685
2265.695106	1619.637063
2267.287389	1618.894406
2268.874366	1613.913287
2270.464370	1646.451049
2272.049070	1644.941259
2273.638464	1660.045455
2275.222556	1664.577622
2276.808008	1686.192308
2278.391492	1680.438462
2279.978001	1661.444755
2281.560877	1648.769231
2283.143450	1641.746503
2284.725719	1630.619580
2286.304358	1628.018531
2287.886022	1604.972727
2289.464057	1582.553497
2291.045115	1557.278322
2292.622546	1546.973776
2294.198014	1517.239161
2295.776504	1548.084965
2297.351370	1520.950350
2298.925935	1517.288462
2300.500199	1516.759441
2302.074164	1516.145105
2303.647827	1537.272727
2305.221191	1568.181818
2306.790936	1568.537063
2308.360382	1540.947552
2309.932846	1525.806993
2311.500036	1508.804895
2313.070244	1490.253846
2314.636837	1519.209790
2316.204790	1509.707692
2317.770787	1513.465035
2319.336487	1538.055245
2320.901889	1548.830070
2322.465338	1571.151049
2324.030146	1608.497902
2325.591346	1597.099301
2327.155560	1585.839161
2328.714512	1569.444056
2330.276478	1556.100699
2331.836494	1572.360140
2333.396215	1553.529371
2334.953986	1532.188112
2336.511462	1525.807692
2338.068644	1510.839161
2339.623878	1502.923077
2341.178819	1466.560140
2342.733465	1451.596503
2344.287818	1418.210490
2345.841877	1420.297203
2347.395643	1396.581119
2348.947464	1416.023776
2350.497343	1428.657343
2352.050229	1405.198601
2353.597872	1402.709091
2355.148524	1421.286014
2356.695584	1400.219580
2358.244002	1437.648252
2359.792129	1421.027972
2361.336667	1439.746853
2362.882563	1439.963636
2364.426521	1471.313287
2365.971835	1451.342657
2367.513566	1476.418182
2369.056653	1453.984615
2370.597804	1443.041958
2372.138666	1452.447552
2373.679239	1463.837063
2375.219523	1455.044056
2376.759518	1466.939161
2378.295935	1469.225175
2379.835353	1487.876923
2381.371193	1472.494406
2382.908391	1473.494406
2384.442013	1443.365035
2385.978635	1436.372727
2387.513327	1399.741958
2389.046089	1383.458042
2390.578564	1375.625874
2392.109111	1337.353147
2393.642656	1313.669930
2395.170990	1311.857343
2396.700680	1307.455944
2398.230085	1320.759441
2399.759205	1346.455245
2401.288039	1371.500699
2402.811669	1384.683217
2404.339934	1398.165035
2405.862997	1388.518182
2407.390693	1392.388112
2408.911550	1394.271329
2410.437039	1409.913986
2411.958969	1430.538462
2413.482253	1433.162937
2415.003617	1425.066434
2416.523061	1420.804895
2418.043860	1430.976923
2419.562740	1402.802797
2421.081339	1404.616084
2422.598020	1406.484615
2424.116055	1383.501399
2425.633809	1388.376224
2427.148011	1407.218182
2428.661934	1414.028671
2430.175576	1411.082517
2431.690573	1394.054545
2433.202021	1378.762238
2434.714823	1335.646154
2436.225713	1306.037762
2437.736324	1298.665035
2439.245023	1332.160839
2440.756708	1337.665734
2442.264850	1342.111189
2443.772714	1368.187413
2445.280299	1384.801399
2446.784345	1415.062238
2448.291375	1429.741958
2449.796497	1407.109790
2451.301342	1405.582517
2452.804280	1399.797902
2454.306942	1395.611888
2455.809327	1406.030769
2457.309807	1403.281119
2458.811640	1414.090210
2460.311568	1417.857343
2461.811221	1456.069930
2463.310599	1486.059441
2464.808074	1507.151049
2466.303647	1491.671329
2467.802200	1463.320280
2469.297225	1481.354545
2470.793602	1462.302797
2472.286453	1449.500000
2473.780657	1438.474126
2475.274587	1435.796503
2476.764993	1436.055944
2478.258377	1443.940559
2479.749863	1462.804196
2481.239452	1476.230769
2482.728769	1489.081818
2484.216190	1498.072028
2485.706587	1511.223776
2487.193466	1570.216084
2488.681696	1584.988112
2490.166409	1602.367832
2491.650853	1601.128671
2493.136647	1583.174126
2494.620550	1540.591608
2496.105803	1505.011888
2497.585923	1473.650350
2499.069016	1446.239860
2500.550218	1440.481818
2502.031151	1425.509091
2503.510195	1461.834266
2504.988970	1484.013986
2506.467477	1469.172727
2507.945716	1457.046853
2509.423686	1455.634266
2510.898151	1453.693706
2512.375586	1453.610490
2513.849517	1435.316783
2515.324798	1449.858741
2516.799812	1437.490909
2518.271325	1471.278322
2519.744189	1489.997902
2521.215170	1519.320280
2522.687501	1494.823077
2524.154718	1471.932168
2525.624902	1494.018881
2527.093205	1498.109091
2528.561243	1523.279720
2530.029016	1523.518182
2531.496524	1512.840559
2532.963767	1530.818182
2534.427518	1525.045455
2535.892619	1549.939860
2537.355843	1578.324476
2538.820416	1586.844056
2540.281501	1557.540559
2541.743935	1536.354545
2543.206106	1561.544056
2544.664791	1548.728671
2546.128047	1541.536364
2547.586208	1506.032168
2549.045717	1500.633566
2550.500132	1481.326573
2551.959118	1477.355245
2553.416232	1485.777622
2554.871474	1525.093706
2556.326456	1532.353846
2557.779569	1535.086713
2559.234029	1544.508392
2560.686621	1572.551049
2562.138953	1557.490909
2563.589418	1573.311189
2565.042838	1582.170629
2566.491176	1589.167133
2567.942469	1585.131469
2569.391897	1609.301399
2570.837852	1602.749650
2572.286762	1595.774825
2573.732202	1598.067832
2575.178989	1577.618182
2576.623913	1576.287413
2578.068580	1572.513986
2579.514594	1543.773427
2580.957142	1570.320979
2582.401037	1562.780420
2583.841466	1567.575524
2585.283244	1586.316084
2586.723162	1597.190210
2588.164427	1600.902098
2589.602230	1583.136364
2591.042983	1581.290210
2592.478674	1574.555944
2593.917314	1594.376224
2595.354096	1588.982517
2596.789023	1559.937063
2598.226897	1564.658741
2599.659714	1535.593706
2601.093878	1520.545455
2602.526188	1503.630070
2603.959844	1512.560140
2605.391647	1545.206993
2606.823196	1539.081818
2608.254493	1557.603497
2609.683937	1581.407692
2611.113129	1597.190210
2612.540471	1598.010490
2613.969158	1588.806294
2615.397594	1564.693706
2616.822582	1535.133566
2618.248917	1530.297203
2619.673403	1540.129371
2621.099235	1568.683916
2622.521623	1600.969930
2623.945357	1621.530070
2625.367244	1637.295804
2626.788882	1643.010490
2628.208674	1652.098601
2629.629812	1635.083217
2631.050700	1620.930070
2632.468149	1573.967133
2633.888539	1562.409091
2635.305491	1566.726573
2636.722194	1568.188811
2638.138649	1559.853846
2639.554856	1586.876923
2640.970815	1618.090909
2642.384933	1615.445455
2643.798803	1633.225874
2645.210834	1652.566434
2646.624210	1637.635664
2648.034156	1632.139860
2649.447038	1619.491608
2650.856491	1608.274825
2652.265698	1600.288112
2653.673069	1602.027972
2655.083374	1588.972028
2656.491844	1596.490210
2657.898478	1595.683217
2659.304867	1558.672028
2660.709422	1568.665035
2662.115321	1590.776923
2663.519387	1614.420280
2664.923208	1628.837762
2666.326785	1681.644755
2667.728531	1706.855245
2669.131620	1736.947552
2670.531291	1767.853846
2671.932306	1759.182517
2673.329905	1751.637762
2674.730433	1733.215385
2676.127547	1692.546853
2677.526004	1684.410490
2678.922634	1653.767133
2680.319021	1648.213986
2681.715166	1623.584615
2683.109485	1656.581119
2684.505147	1653.188112
2685.897400	1641.586014
2687.290995	1656.512587
2688.682766	1651.600000
2690.075880	1648.881818
2691.467170	1665.080420
2692.856637	1659.246154
2694.245864	1651.470629
2695.634852	1634.851049
2697.025181	1638.748252
2698.410527	1645.878322
2699.798796	1649.404196
2701.185245	1620.624476
2702.571455	1612.021678
2703.957426	1615.694406
2705.339999	1609.254545
2706.723914	1607.693007
2708.107591	1633.956643
2709.491029	1648.319580
2710.871072	1653.174126
2712.252457	1652.704196
2713.632027	1643.294406
2715.012937	1655.866434
2716.392033	1639.112587
2717.769315	1639.899301
2719.147938	1665.851748
2720.524747	1636.893007
2721.901321	1635.888811
2723.277659	1638.636364
2724.652186	1663.936364
2726.028053	1691.269930
2727.400533	1690.083217
2728.775929	1677.162937
2730.146365	1683.682517
2731.518142	1675.147552
2732.889684	1670.327273
2734.259418	1686.576923
2735.630493	1707.016783
2736.999759	1683.731469
2738.368792	1706.770629
2739.736019	1712.743357
2741.103012	1730.446853
2742.469773	1752.188112
2743.836301	1747.416084
2745.201025	1727.292308
2746.565516	1742.360140
2747.929776	1715.965734
2749.293803	1697.160839
2750.657599	1702.330070
2752.018021	1683.839161
2753.381353	1664.524476
2754.739743	1670.972727
2756.101043	1650.186713
2757.458973	1663.664336
2758.819811	1673.650350
2760.178850	1694.683217
2761.534520	1710.372028
2762.893098	1729.376224
2764.248309	1729.879021
2765.603291	1737.517483
2766.956476	1746.139860
2768.312568	1719.674126
2769.665296	1707.940559
2771.017796	1716.671329
2772.370067	1700.182517
2773.723676	1686.736364
2775.073925	1681.182517
2776.422379	1679.357343
2777.773738	1660.753846
2779.121739	1651.600699
2780.471077	1693.018881
2781.818623	1703.370629
2783.165943	1694.141259
2784.513036	1690.552448
2785.858337	1684.164336
2787.203413	1693.505594
2788.548263	1689.239860
2789.892887	1680.266434
2791.234159	1671.257343
2792.576769	1673.564336
2793.919153	1676.581818
2795.261312	1673.000699
2796.600122	1682.011189
2797.941832	1671.271329
2799.280193	1664.404895
2800.619892	1653.467832
2801.957806	1634.343357
2803.293934	1643.319580
2804.629840	1658.381119
2805.967083	1673.704196
2807.302542	1702.055245
2808.637778	1727.095804
2809.971231	1733.949650
2811.306021	1718.623077
2812.637471	1724.018881
2813.971816	1746.379021
2815.301263	1723.546154
2816.632046	1683.889510
2817.962609	1696.911189
2819.291392	1701.218881
2820.621511	1699.981119
2821.949852	1688.830070
2823.277972	1682.315385
2824.604314	1655.225175
2825.931993	1675.754545
2827.256338	1674.202098
2828.582020	1683.618182
2829.905926	1692.289510
2831.229612	1673.390909
2832.554635	1675.044056
2833.876327	1705.260140
2835.197801	1683.727972
2836.519056	1656.488112
2837.840092	1620.920979
2839.159355	1621.886014
2840.479954	1613.802098
2841.798782	1624.710490
2843.117391	1622.079021
2844.434229	1626.327273
2845.750850	1622.426573
2847.067254	1619.811888
2848.381888	1630.458042
2849.697858	1623.905594
2851.010507	1597.740559
2852.324491	1606.815385
2853.638259	1610.467133
2854.951810	1637.634965
2856.263595	1642.125175
2857.573613	1665.710490
2858.884966	1696.237762
2860.193004	1708.018182
2861.502376	1707.436364
2862.811534	1709.962238
2864.120476	1710.751748
2865.427654	1699.839860
2866.733070	1705.641958
2868.039819	1712.590210
2869.344807	1725.125874
2870.649580	1744.403497
2871.952593	1747.291608
2873.258486	1762.512587
2874.559525	1759.435664
2875.861898	1756.625175
2877.162511	1731.156643
2878.464458	1715.957343
2879.766191	1702.306993
2881.064621	1674.686014
2882.364384	1663.362238
2883.662390	1656.858042
2884.960184	1688.980420
2886.256222	1697.725874
2887.553593	1688.481818
2888.849208	1718.311189
2890.144612	1718.679021
2891.439805	1732.188811
2892.731701	1716.404196
2894.026473	1732.416084
2895.317948	1727.455245
2896.610756	1730.506993
2897.903354	1746.120280
2899.192658	1783.023077
2900.483294	1801.072727
2901.772179	1788.048252
2903.062396	1787.508392
2904.349322	1799.842657
2905.637580	1762.439161
2906.924089	1749.587413
2908.210389	1723.956643
2909.496482	1709.954545
2910.780826	1715.976224
2912.068041	1739.351049
2913.350430	1787.619580
2914.634151	1824.872727
2915.916126	1870.656643
2917.197893	1869.839860
2918.477915	1895.710490
2919.760808	1897.211888
2921.041955	1869.188811
2922.319820	1859.797203
2923.600554	1853.790210
2924.878007	1815.918182
2926.155254	1796.797203
2927.430759	1784.818182
2928.709132	1795.345455
2929.982691	1777.295804
2931.259117	1795.997902
2932.533802	1766.925175
2933.806746	1757.165035
2935.081022	1750.677622
2936.353558	1758.827972
2937.625889	1758.578322
2938.894948	1768.333566
2940.166872	1747.602797
2941.437058	1746.895105
2942.707040	1763.173427
2943.976819	1781.692308
2945.244862	1790.104196
2946.511168	1808.225874
2947.777273	1802.562238
2949.044707	1812.988811
2950.310406	1814.460140
2951.575904	1815.551049
2952.841199	1777.006294
2954.103229	1759.720979
2955.366589	1733.580420
2956.629748	1725.451748
2957.891175	1725.148951
2959.153931	1712.623776
2960.414955	1721.979720
2961.674249	1730.798601
2962.933343	1748.405594
2964.192236	1776.179021
2965.450929	1787.256643
2966.709422	1796.602098
2967.966186	1808.109091
2969.222750	1823.725874
2970.477586	1816.646853
2971.733752	1824.711189
2972.986663	1810.897203
2974.240902	1791.812587
2975.494943	1788.373427
2976.747258	1786.478322
2977.999375	1806.467832
2979.249767	1828.639860
2980.503014	1838.178322
2981.751484	1849.825175
2983.002809	1860.411189
2984.250884	1863.591608
2985.498762	1858.295105
2986.746444	1859.025874
2987.993928	1846.825874
2989.239691	1841.609790
2990.485258	1842.619580
2991.732152	1840.257343
2992.975802	1844.785315
2994.220780	1869.398601
2995.462514	1856.113287
2996.707100	1861.036364
2997.949967	1869.089510
2999.189593	1878.104895
3000.432069	1900.642657
3001.671305	1914.514685
3002.911869	1918.618881
3004.150716	1940.641958
3005.389369	1932.129371
3006.626306	1913.834965
3007.864571	1911.870629
3009.101120	1911.987413
3010.337476	1876.388112
3011.573638	1881.229371
3012.808086	1890.455944
3014.042342	1887.739860
3015.276404	1893.083217
3016.508753	1888.543357
3017.739392	1873.719580
3018.972876	1887.201399
3020.204648	1893.134965
3021.434710	1898.262238
3022.664579	1903.060140
3023.892739	1901.580420
3025.122226	1907.366434
3026.350003	1925.839860
3027.577589	1951.301399
3028.806501	1968.793706
3030.030671	1986.139161
3031.257685	2012.976224
3032.481474	2016.350350
3033.706590	2021.295105
3034.929999	2017.235664
3036.153218	1977.925874
3037.374732	1960.044056
3038.599087	1940.314685
3039.818707	1926.331469
3041.039653	1923.865734
3042.260410	1932.755944
3043.479463	1933.548252
3044.699841	1947.971329
3045.917003	1942.496503
3047.135491	1935.310490
3048.352276	1912.694406
3049.568874	1891.924476
3050.785283	1871.013986
3051.998479	1860.926573
3053.214514	1865.864336
3054.427336	1862.209091
3055.642994	1872.710490
3056.853931	1867.387413
3058.066192	1880.560839
3059.278266	1893.751049
3060.490154	1886.632168
3061.700345	1889.979720
3062.910349	1877.828322
3064.120167	1869.832867
3065.328289	1875.952797
3066.536226	1875.788811
3067.742467	1887.070280
3068.950033	1884.175524
3070.155904	1901.517133
3071.361590	1904.772727
3072.567092	1925.267483
3073.770900	1927.173427
3074.976032	1917.291958
3076.179471	1898.723077
3077.381219	1880.389860
3078.582782	1862.176224
3079.784162	1853.979720
3080.985358	1821.297203
3082.184864	1815.132867
3083.384187	1800.538462
3084.584833	1789.565035
3085.783789	1773.853147
3086.979551	1775.688811
3088.178142	1773.409091
3089.373539	1784.130769
3090.570259	1800.326573
3091.763787	1807.033566
3092.960143	1813.808392
3094.154812	1836.241958
3095.346291	1838.339161
3096.542102	1841.795804
3097.733218	1844.786713
3098.925658	1837.983217
3100.114910	1849.016084
3101.306987	1863.486014
3102.497381	1870.213986
3103.684589	1886.818182
3104.873119	1894.534965
3106.062972	1914.153846
3107.249641	1930.945455
3108.436129	1951.090210
3109.622439	1929.330769
3110.810070	1906.860140
3111.994519	1893.934266
3113.177289	1868.875524
3114.362881	1862.143357
3115.546794	1861.282517
3116.729028	1852.402797
3117.911083	1851.630769
3119.092960	1861.189510
3120.274659	1878.689510
3121.454681	1898.072028
3122.633026	1892.592308
3123.814191	1872.038462
3124.992181	1868.819580
3126.169994	1866.965734
3127.347630	1854.890210
3128.523592	1858.082517
3129.699376	1837.337063
3130.876482	1836.625175
3132.051913	1844.067832
3133.225671	1843.864336
3134.397756	1824.700000
3135.571163	1816.266434
3136.744393	1796.842657
3137.915952	1798.386713
3139.088831	1823.241958
3140.258543	1849.354545
3141.429576	1861.501399
3142.598939	1885.023776
3143.766631	1878.960839
3144.937139	1914.593706
3146.102989	1924.175524
3147.273147	1923.751748
3148.438649	1897.862238
3149.603976	1881.122378
3150.769130	1875.227972
3151.934111	1873.149650
3153.100411	1890.112587
3154.262059	1887.559441
3155.425026	1910.011189
3156.587821	1925.312587
3157.750443	1931.032168
3158.911399	1947.469930
3160.072184	1941.605594
3161.232796	1926.500699
3162.391744	1916.486713
3163.550521	1911.206993
3164.709125	1903.088112
3165.867558	1884.604196
3167.025820	1877.527972
3168.182419	1865.594406
3169.337357	1868.300699
3170.493614	1862.560839
3171.648210	1856.704895
3172.802636	1860.614685
3173.955402	1864.519580
3175.107997	1869.408392
3176.260423	1906.776224
3177.412679	1939.644056
3178.564764	1964.228671
3179.713703	1979.089510
3180.865450	1980.748951
3182.015538	1986.363636
3183.163970	1997.438462
3184.312232	1998.307692
3185.460326	1990.805594
3186.608251	1993.448951
3187.754520	1993.174126
3188.900621	1991.963636
3190.045068	1987.023077
3191.189347	1981.430769
3192.333458	1977.847552
3193.478886	1960.923077
3194.621176	1940.890210
3195.763299	1951.571329
3196.905254	1958.329371
3198.047042	1956.676224
3199.188663	1958.036364
3200.327149	1969.158042
3201.466952	1979.413986
3202.608072	1976.781818
3203.746059	1965.714685
3204.882396	1963.008392
3206.018567	1965.279021
3207.156055	1963.430070
3208.291895	1980.022378
3209.429052	1994.856643
3210.561596	1982.943357
3211.698422	1974.434266
3212.830636	1979.665734
3213.964167	1971.762238
3215.097534	1949.514685
3216.227773	1931.313986
3217.360810	1917.340559
3218.490721	1905.020280
3219.621948	1904.976224
3220.750051	1906.553147
3221.880950	1907.058741
3223.010205	1903.190210
3224.137817	1917.304895
3225.262306	1921.256643
3226.391071	1941.539860
3227.516714	1942.455944
3228.642195	1955.132168
3229.766033	1977.790210
3230.892667	1989.314685
3232.014703	2009.631469
3233.138055	2025.388112
3234.261245	2015.026573
3235.384272	2000.167133
3236.505661	1994.474825
3237.626887	1995.226573
3238.746476	1971.641259
3239.865903	1959.219580
3240.983692	1960.751748
3242.104273	1961.786014
3243.221741	1957.316783
3244.339048	1947.937063
3245.456195	1959.620979
3246.571705	1987.752448
3247.688531	1992.955245
3248.802247	1983.275524
3249.918752	1998.551748
3251.033623	2006.702797
3252.145384	2016.261538
3253.256987	2021.582517
3254.369905	2041.836364
3255.482663	2047.734965
3256.592315	2058.867133
3257.703282	2063.081119
3258.814090	2069.834965
3259.923266	2090.081818
3261.030811	2095.777622
3262.139671	2085.480420
3263.248373	2091.200000
3264.353972	2113.492308
3265.460885	2127.421678
3266.566169	2140.627972
3267.672767	2155.651049
3268.776265	2158.836364
3269.881077	2180.977622
3270.985732	2174.941259
3272.087289	2162.053147
3273.188689	2165.435664
3274.291403	2162.446853
3275.393961	2141.777622
3276.493422	2119.002797
3277.595667	2118.908392
3278.694816	2092.520979
3279.792341	2079.556643
3280.889710	2069.308392
3281.989861	2049.056643
3283.086920	2043.284615
3284.183823	2025.358042
3285.280571	2027.041958
3286.372760	2030.798601
3287.469199	2034.835664
3288.564015	2040.719580
3289.658677	2038.872727
3290.751717	2030.733566
3291.844602	2010.361538
3292.935867	2004.190210
3294.028445	1991.117483
3295.119403	1973.240559
3296.208741	1966.297902
3297.297926	1971.344056
3298.388424	1990.560140
3299.475837	2017.953147
3300.563097	2059.086014
3301.651670	2081.218881
3302.740090	2100.276224
3303.823964	2116.448252
3304.912079	2110.848951
3305.997112	2089.706993
3307.080530	2087.716783
3308.165260	2077.215385
3309.248374	2076.154545
3310.332801	2066.465734
3311.414149	2075.519580
3312.496809	2094.220979
3313.577855	2106.355245
3314.658750	2107.283217
3315.738031	2122.732867
3316.817162	2159.487413
3317.897605	2169.160140
3318.974973	2170.890909
3320.053653	2189.555245
3321.130721	2185.333566
3322.207640	2192.182517
3323.282947	2178.155245
3324.358105	2173.445455
3325.434574	2168.842657
3326.507973	2168.790210
3327.581222	2170.220280
3328.655783	2187.758741
3329.728735	2216.526573
3330.800078	2232.532867
3331.872732	2234.979720
3332.942320	2232.071329
3334.013218	2221.344056
3335.082509	2223.734965
3336.153111	2230.131469
3337.222106	2228.001399
3338.289495	2230.772727
3339.355279	2242.089510
3340.425289	2245.201399
3341.492236	2249.629371
3342.556121	2255.837063
3343.622773	2252.593706
3344.687822	2231.288811
3345.751267	2209.255245
3346.814566	2202.309790
3347.877718	2209.226573
3348.940724	2214.141958
3350.003584	2207.460140
3351.064842	2210.676224
3352.123043	2221.019580
3353.185464	2246.535664
3354.244830	2250.474825
3355.304050	2254.304196
3356.364579	2252.651049
3357.420600	2248.962937
3358.479384	2245.460140
3359.533661	2255.589510
3360.590702	2263.892308
3361.646144	2253.037063
3362.702896	2257.197203
3363.758049	2257.578322
3364.811605	2250.976923
3365.863565	2258.916084
3366.918286	2253.350350
3367.969958	2251.067133
3369.021487	2232.148252
3370.074324	2217.704196
3371.124114	2190.304196
3372.175213	2192.333566
3373.223266	2194.355944
3374.274078	2189.682517
3375.321846	2197.879021
3376.369470	2197.354545
3377.416953	2190.829371
3378.462843	2202.226573
3379.510041	2230.306993
3380.554197	2244.157343
3381.601111	2246.701399
3382.646433	2249.251049
3383.688714	2238.337762
3384.730854	2256.272727
3385.774303	2258.862238
3386.817610	2249.576224
3387.859327	2234.398601
3388.900904	2223.651049
3389.942339	2212.432168
3390.982186	2207.332867
3392.020444	2229.903497
3393.060010	2244.336364
3394.099436	2254.410490
3395.137274	2249.994406
3396.173525	2240.731469
3397.209637	2240.453147
3398.247056	2257.839161
3399.281442	2238.493007
3400.317135	2233.095105
3401.352689	2225.921678
3402.385212	2229.524476
3403.420487	2224.846154
3404.452733	2252.505594
3405.484840	2258.055245
3406.515363	2260.358042
3407.547193	2253.653147
3408.578885	2237.152448
3409.607549	2249.244755
3410.636076	2275.987413
3411.665909	2253.621678
3412.695605	2234.984615
3413.722275	2225.223077
3414.750251	2229.316783
3415.775204	2218.096503
3416.802906	2230.406294
3417.827585	2233.125175
3418.853570	2245.659441
3419.877975	2257.212587
3420.902244	2272.393007
3421.924934	2314.454545
3422.947488	2322.858741
3423.971348	2307.493007
3424.992188	2294.032867
3426.012892	2287.177722
3427.034903	2282.704296
3428.053895	2282.490210
3429.072751	2288.413087
3430.092914	2302.350549
3431.110060	2326.180220
