-118.146553	39.952747
-115.476953	48.461538
-112.810288	53.978122
-110.144375	57.005295
-107.481395	58.045854
-104.816984	57.602597
-102.155504	56.178322
-99.492595	52.997902
-96.834792	52.593007
-94.175560	53.403497
-91.517076	57.105594
-88.861517	53.276224
-86.204528	57.667133
-83.552638	58.318182
-80.899318	60.665035
-78.248917	62.713287
-75.597088	64.605594
-72.950349	61.854545
-70.302180	58.586713
-67.654754	56.125874
-65.010243	55.537762
-62.364302	59.092308
-59.723443	60.453846
-57.081155	59.385315
-54.441776	65.914685
-51.800967	69.430769
-49.160899	77.107692
-46.525904	80.548252
-43.889479	86.058741
-41.255957	85.574825
-38.621007	92.444755
-35.991122	98.751049
-33.357645	106.455944
-30.729230	115.134965
-28.101549	124.203497
-25.472439	97.279720
-22.848386	-72.846154
-20.220744	-888.545455
-17.598155	-3264.713986
-14.976298	-2968.263636
-12.355171	2214.971329
-9.734775	12720.381818
-7.117266	21852.195105
-4.498329	28285.634266
-1.882277	31986.055245
0.733046	32928.916084
3.347641	31127.127273
5.959355	26597.586713
8.572497	19464.764336
11.180605	10176.434965
13.792295	588.730070
16.398954	-4072.577622
19.007041	-3677.047552
21.614404	-443.980420
24.216742	131.062937
26.822658	134.263636
29.423552	129.971329
32.025874	116.272727
34.623179	105.590909
37.224059	93.769930
39.819924	86.976923
42.417218	87.719580
45.013792	85.803497
47.605357	83.881818
50.198350	86.142657
52.788482	86.064336
55.380041	85.291608
57.968742	83.388112
60.558869	82.501399
63.143997	77.772028
65.730553	78.372727
68.316395	74.598601
70.899383	75.618881
73.483797	74.273427
76.061083	74.215385
78.641935	73.934266
81.219938	72.461538
83.797231	72.340559
86.375950	71.203497
88.949687	68.429371
91.524852	66.262937
94.097173	66.615385
96.668786	72.975524
99.237559	74.590210
101.807759	77.166434
104.375120	78.997203
106.943908	84.044056
109.509859	85.575524
112.072975	89.492308
114.639647	97.981119
117.197098	106.410490
119.760234	122.754545
122.318410	151.913287
124.880141	214.360140
127.436915	310.435664
129.995115	451.121678
132.548363	631.114685
135.100913	851.989510
137.657013	1095.470629
140.208165	1341.869231
142.758620	1579.851049
145.308377	1796.295105
147.855315	1976.277622
150.401558	2111.762937
152.949226	2191.666434
155.496198	2235.690909
158.038235	2247.349650
160.579578	2244.927972
163.120228	2227.197902
165.662304	2201.936364
168.201568	2174.485315
170.738023	2145.765035
173.273788	2128.195804
175.810978	2126.902797
178.347477	2133.123776
180.881170	2149.020979
183.412059	2161.349650
185.942260	2182.967832
188.473887	2211.139161
191.002712	2241.141259
193.528738	2269.337762
196.054078	2294.455245
198.580843	2319.233566
201.104812	2323.304196
203.628096	2326.924476
206.150695	2330.612587
208.670501	2329.295804
211.189623	2330.698601
213.708064	2331.869231
216.227928	2338.173427
218.740791	2339.893007
221.257185	2335.006294
223.772897	2328.955944
226.283719	2323.288811
228.795966	2313.951748
231.305431	2294.051049
233.814216	2282.325175
236.322324	2280.191608
238.831856	2283.449650
241.336507	2287.200699
243.840482	2296.435664
246.345881	2295.690909
248.846405	2291.926573
251.350452	2406.074126
253.847529	2794.830769
256.348129	3458.735664
258.845957	4205.397902
261.343112	4842.791608
263.839594	5282.075524
266.331213	5487.438462
268.826352	5436.652448
271.318724	5137.039860
273.810426	4628.181818
276.299365	3975.848951
278.789727	3316.655245
281.277328	2843.451748
283.762169	2642.206993
286.250525	2619.254545
288.731941	2615.495105
291.216871	2553.066434
293.696956	2452.440559
296.180553	2336.216783
298.659307	2221.209091
301.139484	2114.425874
303.616910	2031.544056
306.093672	2008.049650
308.569770	2040.671329
311.043121	2112.776923
313.515809	2187.586713
315.987836	2260.967832
318.459202	2323.483916
320.927823	2362.650350
323.395785	2386.530769
325.865170	2386.066434
328.329732	2364.638462
330.797798	2313.957343
333.261044	2254.902098
335.723632	2206.226573
338.185564	2172.977622
340.646839	2156.291608
343.105380	2145.619580
345.565343	2136.467832
348.022573	2128.201399
350.479149	2125.555245
352.935071	2125.981818
355.388263	2116.719580
357.842878	2110.966434
360.292691	2104.808392
362.746000	2097.828671
365.194510	2082.258042
367.642370	2070.398601
370.091652	2054.093706
372.536140	2033.927972
374.982050	2018.237063
377.427310	2002.134965
379.869852	1986.076224
382.311746	1975.839860
384.752993	1971.658741
387.191524	1967.330769
389.631476	1966.494406
392.068715	1965.726573
394.503243	1964.116783
396.941258	1961.822378
399.374496	1964.610490
401.809155	1957.214685
404.239042	1961.384615
406.672414	1962.744755
409.101016	1970.070629
411.528976	1981.914685
413.958358	1990.179021
416.382974	1993.717483
418.809012	2003.151748
421.234409	2009.637762
423.659166	2014.943357
426.079165	2015.432168
428.500584	2018.076224
430.919308	2016.385315
433.339452	2018.928671
435.756901	2018.625175
438.175770	2021.125175
440.591946	2024.124476
443.003374	2021.847552
445.418279	2029.122378
447.830495	2037.751049
450.242076	2040.393706
452.653023	2041.695105
455.061284	2039.096503
457.468912	2034.883916
459.875908	2027.528671
462.282273	2013.513287
464.685955	1998.427972
467.089007	1988.698601
469.491429	1974.705594
471.893221	1966.002098
474.292335	1969.889510
476.692869	1972.374126
479.092774	1982.154545
481.487957	1989.946154
483.886606	1995.513287
486.280534	2001.216783
488.673837	1994.887413
491.066515	1988.653147
493.458567	1977.563636
495.852037	1958.483916
498.240795	1931.384615
500.626887	1900.872727
503.014399	1868.167133
505.401288	1833.866434
507.785513	1809.525874
510.171156	1777.225874
512.554138	1745.646154
514.934459	1715.078322
517.316199	1688.808392
519.695280	1673.862238
522.075779	1664.588112
524.453622	1657.781119
526.828808	1649.095804
529.203378	1637.979021
531.579365	1624.088112
533.952700	1613.340559
536.327452	1607.602098
538.697519	1588.578322
541.066970	1567.994406
543.437839	1543.278322
545.804027	1530.910490
548.171634	1514.044056
550.536596	1504.216783
552.900944	1496.025175
555.264679	1487.504196
557.629832	1489.083217
559.990313	1479.605594
562.352212	1480.397203
564.711470	1482.216084
567.068090	1474.167832
569.428156	1467.646853
571.781530	1456.133566
574.138349	1454.541958
576.492533	1440.990909
578.846108	1437.081119
581.199076	1430.816084
583.549411	1435.165734
585.901164	1436.318881
588.246240	1427.883217
590.596779	1429.537762
592.940646	1428.934965
595.289974	1425.740559
597.634653	1426.323776
599.976708	1428.185315
602.320180	1434.731469
604.661029	1433.166434
607.001275	1433.797203
609.338902	1429.828671
611.679963	1428.240559
614.016386	1419.480420
616.354226	1409.206993
618.689449	1402.918881
621.022056	1392.762937
623.356079	1387.176224
625.687488	1389.741958
628.018299	1389.986014
630.348513	1391.111189
632.678128	1391.384615
635.003120	1390.437762
637.333554	1391.144056
639.659367	1391.434965
641.982572	1396.247552
644.307194	1397.500000
646.629210	1397.724476
648.950632	1398.420979
651.269452	1397.834965
653.589687	1395.825874
655.909329	1394.807692
658.226370	1394.129371
660.542819	1394.543357
662.856670	1396.718881
665.171937	1394.960140
667.484607	1393.579720
669.798692	1400.151049
672.108177	1402.723077
674.419078	1400.900699
676.727386	1399.062238
679.035106	1385.569930
681.344240	1379.713986
683.648782	1372.031469
685.952738	1362.360839
688.256108	1353.290210
690.560892	1344.556643
692.861089	1332.826573
695.162702	1327.859441
697.463729	1324.320280
699.760175	1321.358042
702.058036	1311.006294
704.355313	1305.308392
706.652007	1299.453846
708.944125	1300.529371
711.239654	1296.552448
713.530609	1300.890210
715.822979	1301.720280
718.112774	1304.344056
720.401988	1306.993007
722.690623	1309.779720
724.976685	1303.670629
727.264162	1301.789510
729.549067	1289.732168
731.833395	1288.293007
734.115154	1284.257343
736.398327	1283.288811
738.680923	1279.225175
740.958963	1280.746154
743.238418	1278.813986
745.517296	1287.318881
747.795600	1291.485315
750.069354	1292.275524
752.344521	1291.444755
754.619115	1290.109790
756.891150	1284.453846
759.164598	1284.959441
761.435488	1281.760140
763.703822	1283.927273
765.973569	1283.645455
768.240761	1286.030769
770.507384	1294.897203
772.773436	1305.853846
775.036937	1309.209091
777.301851	1312.320979
779.566195	1315.833566
781.826010	1314.632168
784.087237	1311.610490
786.347897	1309.002797
788.606011	1300.835664
790.861580	1299.737762
793.120540	1288.381119
795.373000	1278.149650
797.630828	1274.077622
799.884137	1266.138462
802.134906	1263.577622
804.387087	1257.506993
806.636729	1256.291608
808.887784	1256.240559
811.134327	1256.767832
813.382282	1259.364336
815.627703	1249.804895
817.874535	1254.225874
820.120806	1249.248252
822.362572	1249.895105
824.607722	1244.712587
826.846399	1243.612587
829.088458	1236.316783
831.326019	1225.537762
833.564992	1222.791608
835.801438	1227.295105
838.039295	1231.639860
840.274627	1229.261538
842.507436	1225.750350
844.741656	1231.832867
846.973353	1225.963636
849.204496	1224.522378
851.435084	1217.124476
853.665118	1205.008392
855.894598	1195.420280
858.119596	1197.116084
860.347969	1197.101399
862.571862	1205.040559
864.797167	1204.139161
867.017996	1203.726573
869.242197	1206.370629
871.461925	1209.579720
873.683063	1210.334266
875.903651	1222.586713
878.121730	1229.013287
880.341218	1229.632168
882.556240	1233.879720
884.770714	1239.795105
886.984641	1234.990210
889.198021	1222.131469
891.410853	1206.284615
893.623139	1196.116084
895.832922	1182.539860
898.042160	1182.165035
900.250853	1175.213287
902.457046	1173.723077
904.664650	1177.562238
906.869755	1185.172028
909.074317	1177.792308
911.276384	1186.816084
913.479860	1188.821678
915.680842	1181.114685
917.881282	1190.349650
920.083131	1190.240559
922.278589	1199.298601
924.477406	1213.130769
926.671784	1214.427972
928.869520	1226.667133
931.062820	1252.533566
933.257529	1268.125874
935.449752	1266.009790
937.641436	1272.924476
939.832583	1262.212587
942.021247	1265.075524
944.209375	1272.728671
946.395022	1274.306993
948.584021	1272.534965
950.768597	1263.503497
952.952638	1257.840559
955.140029	1254.132168
957.319116	1256.105594
959.501554	1262.081818
961.683458	1256.256643
963.862887	1247.786713
966.039844	1255.790909
968.218209	1272.824476
970.397981	1314.652448
972.571404	1341.990909
974.748173	1360.816783
976.920535	1373.929371
979.094305	1368.777622
981.263671	1363.131469
983.436381	1360.688112
985.606626	1358.011888
987.776341	1337.620979
989.945529	1301.865734
992.110319	1275.462937
994.278450	1268.449650
996.442186	1287.130769
998.607330	1287.860140
1000.770014	1299.137762
1002.932173	1298.416783
1005.091875	1291.557343
1007.251052	1289.476224
1009.411636	1285.099301
1011.569765	1304.906294
1013.727371	1293.634965
1015.884453	1289.218182
1018.041011	1273.321678
1020.193190	1262.738462
1022.346776	1272.953147
1024.499840	1240.984615
1026.650455	1194.428671
1028.802477	1136.402797
1030.950125	1063.423077
1033.101105	988.098601
1035.247714	922.739860
1037.393804	864.075524
1039.539376	799.887413
1041.686353	758.059441
1043.827041	698.508392
1045.971059	671.223776
1048.112636	686.082517
1050.253697	651.541958
1052.396162	639.420280
1054.532347	616.412587
1056.671859	603.082517
1058.807016	610.279021
1060.945497	614.262238
1063.079624	624.500699
1065.213238	672.423776
1067.348256	696.791608
1069.478926	763.809091
1071.611000	820.942657
1073.740645	889.371329
1075.869778	934.606294
1077.998399	995.174126
1080.126509	1024.612587
1082.252193	1075.320280
1084.377367	1108.644056
1086.503945	1121.769231
1088.626185	1157.202098
1090.749830	1201.118182
1092.869140	1222.287413
1094.993679	1270.690210
1097.111974	1261.981818
1099.231673	1269.540559
1101.348953	1259.699301
1103.465726	1261.334965
1105.581994	1271.232168
1107.695845	1289.340559
1109.811101	1283.107692
1111.922033	1285.674825
1114.036278	1295.003497
1116.146202	1294.621678
1118.257530	1311.332867
1120.368353	1315.406294
1122.474860	1300.085315
1124.584676	1282.519580
1126.690179	1265.037063
1128.797084	1274.206294
1130.897774	1319.556643
1133.003676	1340.643357
1135.105269	1353.937762
1137.208265	1360.769231
1139.310760	1350.516783
1141.407048	1349.439161
1143.508543	1357.049650
1145.605736	1343.813986
1147.702431	1336.655245
1149.798627	1303.069231
1151.894325	1290.727972
1153.989526	1295.716783
1156.082330	1295.067832
1158.176536	1280.951748
1160.264551	1268.125874
1162.357765	1267.423077
1164.444790	1268.568531
1166.535114	1276.359441
1168.621150	1291.590909
1170.710485	1302.030070
1172.793638	1306.542657
1174.878193	1306.295804
1176.964150	1309.912587
1179.045825	1304.097203
1181.128901	1289.411189
1183.209592	1283.156643
1185.289792	1286.519580
1187.369500	1294.536364
1189.448717	1308.263636
1191.525552	1324.381119
1193.600005	1340.628671
1195.677751	1341.606993
1197.751227	1355.988112
1199.826103	1349.746853
1201.896712	1342.234965
1203.968722	1346.678322
1206.038357	1342.600699
1208.109391	1341.337063
1210.179939	1337.879720
1212.246225	1327.426573
1214.313912	1331.230769
1216.379227	1327.844755
1218.445942	1326.460140
1220.508401	1329.458741
1222.574145	1336.450350
1224.635635	1309.224476
1226.698526	1306.480420
1228.759049	1316.221678
1230.819088	1302.372028
1232.878644	1302.582517
1234.935836	1303.343357
1236.992546	1313.169231
1239.046892	1326.969231
1241.104520	1329.883217
1243.159785	1324.696503
1245.210809	1329.266434
1247.263233	1321.848951
1249.315177	1300.073427
1251.364763	1302.407692
1253.413870	1302.186014
1255.462498	1296.464336
1257.510648	1306.367133
1259.558320	1310.376224
1261.601761	1317.384615
1263.648478	1316.000000
1265.692841	1310.159441
1267.736728	1295.331469
1269.778263	1293.611888
1271.817449	1278.523776
1273.859908	1270.288811
1275.898144	1283.168531
1277.937779	1273.921678
1279.976939	1271.018182
1282.011880	1268.349650
1284.048220	1245.301399
1286.082216	1237.180420
1288.117609	1242.096503
1290.148790	1245.404895
1292.181368	1243.691608
1294.213475	1238.127972
1296.243241	1236.365035
1298.274404	1244.820979
1300.301361	1254.867832
1302.329715	1264.051748
1304.353864	1271.462937
1306.381279	1286.871329
1308.404491	1275.136364
1310.429101	1286.728671
1312.451377	1306.937063
1314.475049	1310.174126
1316.496389	1303.762937
1318.517262	1287.708392
1320.537667	1278.759441
1322.553879	1270.101399
1324.571488	1267.800699
1326.586769	1279.165734
1328.605309	1279.841259
1330.619660	1288.542657
1332.631684	1291.655944
1334.646967	1309.160839
1336.658064	1331.132168
1338.670558	1327.555944
1340.678869	1310.413287
1342.690435	1295.902797
1344.695963	1289.777622
1346.704746	1282.267133
1348.709351	1283.794406
1350.717210	1276.358741
1352.724607	1262.272028
1354.725973	1262.844755
1356.728735	1275.467133
1358.731038	1271.773427
1360.732881	1278.783916
1362.734264	1273.595105
1364.733334	1274.602098
1366.731945	1279.977622
1368.730097	1290.330070
1370.727792	1292.220280
1372.721324	1283.601399
1374.716251	1270.512587
1376.710722	1266.743357
1378.704736	1268.976923
1380.696443	1275.368531
1382.687694	1255.217483
1384.676640	1264.760140
1386.666982	1270.394406
1388.656868	1287.238462
1390.644450	1294.199301
1392.631579	1298.509790
1394.616406	1294.155944
1396.602628	1293.732168
1398.586549	1297.075524
1400.570018	1299.490210
1402.553035	1300.740559
1404.533754	1306.139161
1406.515867	1284.256643
1408.495684	1296.865035
1410.475049	1312.997902
1412.450276	1334.726573
1414.428741	1343.675524
1416.404913	1338.216783
1418.380635	1335.557343
1420.355909	1327.945455
1422.328891	1317.851049
1424.301425	1317.594406
1426.273511	1313.090909
1428.245150	1311.672727
1430.212660	1296.337762
1432.185244	1311.500699
1434.150022	1320.959441
1436.119873	1336.108392
1438.085600	1335.779021
1440.052719	1324.634965
1442.017555	1323.192308
1443.978271	1317.057343
1445.944055	1332.844755
1447.903884	1344.532168
1449.865107	1349.166434
1451.827721	1351.325874
1453.786221	1347.296503
1455.744279	1341.920280
1457.701895	1332.488811
1459.659068	1324.260839
1461.613966	1313.510490
1463.570257	1315.762238
1465.524273	1324.616084
1467.477848	1331.747552
1469.429151	1344.679720
1471.381846	1346.074825
1473.332270	1348.592308
1475.282255	1342.482517
1477.231801	1346.756643
1479.179078	1337.190210
1481.124087	1334.632168
1483.070489	1318.577622
1485.016453	1315.690909
1486.961980	1308.934266
1488.905241	1310.704895
1490.848067	1307.808392
1492.788628	1312.576224
1494.730582	1307.802797
1496.670273	1314.155944
1498.609529	1328.869930
1500.548351	1344.739161
1502.484913	1332.547552
1504.422866	1336.984615
1506.358560	1333.382517
1508.293821	1336.050350
1510.226825	1331.234266
1512.159398	1340.704895
1514.091538	1348.946853
1516.023246	1347.913287
1517.952700	1337.994406
1519.883545	1347.028671
1521.813958	1351.386713
1523.740299	1335.027972
1525.668030	1312.618182
1527.593512	1315.830769
1529.518564	1321.206993
1531.443187	1324.879720
1533.367380	1331.935664
1535.289327	1348.187413
1537.212664	1352.489510
1539.133754	1354.235664
1541.052600	1354.239161
1542.972836	1356.466434
1544.890829	1345.012587
1546.808394	1350.163636
1548.723719	1362.218182
1550.640433	1380.976923
1552.553092	1391.003497
1554.468955	1394.306993
1556.382578	1392.583217
1558.293963	1402.421678
1560.206738	1384.685315
1562.115463	1378.771329
1564.025577	1360.769930
1565.935268	1342.586014
1567.844536	1346.336364
1569.751570	1357.195105
1571.656371	1374.941259
1573.562561	1389.447552
1575.466519	1392.906294
1577.370056	1392.632168
1579.273173	1385.149650
1581.174060	1396.996503
1583.076336	1381.219580
1584.976384	1375.828671
1586.877819	1375.540559
1588.775221	1373.121678
1590.672204	1398.297203
1592.568769	1407.287413
1594.466721	1417.789510
1596.358839	1417.666434
1598.254151	1403.919580
1600.149045	1385.867133
1602.041717	1379.413287
1603.933972	1375.711189
1605.824008	1369.135664
1607.713628	1357.032168
1609.602833	1382.041958
1611.491623	1398.362238
1613.378195	1421.233566
1615.266155	1415.811888
1617.150098	1420.624476
1619.035428	1409.699301
1620.920345	1416.855944
1622.803048	1406.270629
1624.687138	1419.744056
1626.567216	1410.948951
1628.448682	1401.309091
1630.327937	1402.724476
1632.208578	1408.840559
1634.083415	1402.773427
1635.963233	1384.543357
1637.839047	1372.655944
1639.714450	1386.307692
1641.591239	1381.536364
1643.462232	1422.012587
1645.336406	1424.304895
1647.206581	1437.137063
1649.079937	1423.716783
1650.951090	1410.940559
1652.820042	1401.233566
1654.690378	1371.748252
1656.556722	1365.722378
1658.424451	1373.779720
1660.289981	1381.506294
1662.156897	1403.070629
1664.019823	1418.579021
1665.884136	1425.728671
1667.746252	1417.425874
1669.607963	1412.269231
1671.471060	1377.324476
1673.331961	1374.102797
1675.190670	1325.448951
1677.048975	1298.932168
1678.908664	1307.104895
1680.762587	1332.009790
1682.619683	1318.321678
1684.476375	1303.951049
1686.329092	1290.247552
1688.184980	1267.687413
1690.036894	1267.725175
1691.888407	1276.453846
1693.739519	1260.443357
1695.590230	1301.645455
1697.440541	1295.226573
1699.288668	1326.820280
1701.138179	1337.218182
1702.981940	1341.400000
1704.830652	1304.989510
1706.673617	1261.177622
1708.519749	1243.980420
1710.361918	1239.258042
1712.207253	1221.348252
1714.046847	1220.745455
1715.887825	1217.002098
1717.730186	1244.004895
1719.568591	1262.287413
1721.408379	1256.100699
1723.245991	1230.530769
1725.083209	1244.413986
1726.918253	1226.379021
1728.754680	1207.701399
1730.588935	1213.301399
1732.422795	1210.320979
1734.256261	1207.951748
1736.085782	1241.600000
1737.918461	1261.905594
1739.747196	1257.589510
1741.579088	1269.378322
1743.407038	1268.811189
1745.234596	1246.400000
1747.061763	1258.016783
1748.888538	1252.179021
1750.714921	1253.106294
1752.537368	1236.422378
1754.362970	1221.327273
1756.184637	1253.345455
1758.007686	1273.712587
1759.828573	1282.915385
1761.649072	1257.571329
1763.470951	1272.788811
1765.287132	1272.088811
1767.106464	1263.734266
1768.921868	1276.148252
1770.740424	1284.046853
1772.555054	1299.452448
1774.369297	1285.201399
1776.183154	1279.888811
1777.996624	1313.251748
1779.807941	1336.563636
1781.620638	1362.807692
1783.432950	1380.593706
1785.241343	1391.779720
1787.051118	1400.020280
1788.856978	1432.008392
1790.665983	1428.674126
1792.471075	1438.313287
1794.277548	1428.556643
1796.083637	1396.437762
1797.885815	1398.218881
1799.691138	1417.797902
1801.492552	1429.290210
1803.295346	1454.604895
1805.094234	1462.026573
1806.894503	1435.087413
1808.694390	1437.205594
1810.492135	1438.257343
1812.289500	1429.618881
1814.086484	1442.523077
1815.883089	1436.193007
1817.677554	1415.965734
1819.473398	1422.209790
1821.263587	1408.966434
1823.058673	1423.568531
1824.848106	1443.048252
1826.640677	1463.703497
1828.431112	1473.716783
1830.219413	1498.211888
1832.010849	1512.241259
1833.796639	1520.369231
1835.583809	1514.993007
1837.368847	1511.590909
1839.157019	1489.125175
1840.941305	1479.660839
1842.723461	1470.725874
1844.506997	1471.183916
1846.288404	1483.749650
1848.071190	1509.063636
1849.850095	1534.427972
1851.630379	1540.074126
1853.408538	1532.039161
1855.188075	1513.030769
1856.965486	1491.521678
1858.740775	1505.464336
1860.517441	1506.457343
1862.291985	1491.786014
1864.067907	1488.578322
1865.838208	1498.643357
1867.611637	1513.672727
1869.382946	1533.497902
1871.153884	1573.593706
1872.926200	1558.241259
1874.692902	1570.665035
1876.462729	1575.422378
1878.228693	1577.551748
1879.997781	1578.809091
1881.763007	1563.962937
1883.527865	1540.426573
1885.294100	1527.396503
1887.056476	1508.686014
1888.818484	1513.653846
1890.580126	1528.753846
1892.341401	1526.098601
1894.102308	1524.899301
1895.862849	1530.205594
1897.621280	1529.251748
1899.379345	1532.977622
1901.135303	1532.026573
1902.892637	1515.529371
1904.649606	1500.124476
1906.404468	1472.464336
1908.157226	1441.617483
1909.909619	1456.290210
1911.663389	1443.684615
1913.415055	1435.441259
1915.164619	1462.715385
1916.915558	1455.702098
1918.666135	1470.048951
1920.412872	1504.755944
1922.160986	1523.727972
1923.907000	1520.960839
1925.654389	1517.758042
1927.399681	1499.341958
1929.142875	1495.232867
1930.887444	1473.041958
1932.629917	1447.895804
1934.372031	1445.630769
1936.113784	1454.523776
1937.855177	1448.523077
1939.594477	1454.060140
1941.333418	1469.887413
1943.072000	1467.222378
1944.808491	1472.430769
1946.544624	1481.587413
1948.282131	1484.905594
1950.015816	1499.750350
1951.750876	1485.290909
1953.483847	1497.730070
1955.216462	1507.520979
1956.948721	1506.939161
1958.680623	1502.408392
1960.410439	1499.332168
1962.138170	1498.478322
1963.867276	1505.346154
1965.596026	1519.525874
1967.322694	1526.611888
1969.049007	1530.987413
1970.776693	1543.802797
1972.498843	1546.769930
1974.224094	1539.056643
1975.945538	1525.681818
1977.670082	1530.405594
1979.392547	1523.995804
1981.111209	1526.067133
1982.832969	1536.170629
1984.550927	1525.423077
1986.270258	1528.369930
1987.985790	1531.737762
1989.706142	1519.953846
1991.422696	1519.736364
1993.135453	1516.960839
1994.851306	1498.453846
1996.565087	1491.586014
1998.278518	1525.520280
1999.989878	1525.651049
2001.702610	1526.824476
2003.411552	1552.951748
2005.123586	1547.048252
2006.830111	1558.849650
2008.539729	1553.441958
2010.247279	1540.061538
2011.954482	1542.403497
2013.659619	1528.713986
2015.364410	1523.157343
2017.070572	1519.562937
2018.772952	1543.483217
2020.476703	1537.402797
2022.178392	1537.788112
2023.879735	1556.360140
2025.580734	1560.673427
2027.279671	1576.179720
2028.979980	1574.837762
2030.676513	1573.670629
2032.374418	1562.700000
2034.070265	1549.164336
2035.769197	1558.423776
2037.462643	1540.706294
2039.157460	1531.583916
2040.851935	1532.340559
2042.542641	1537.930070
2044.236431	1537.030769
2045.926454	1555.909790
2047.617848	1561.753147
2049.307189	1554.822378
2050.997900	1549.597902
2052.684848	1543.655245
2054.371457	1540.043357
2056.059435	1549.213986
2057.743654	1543.730769
2059.429244	1543.855944
2061.114494	1555.507692
2062.797695	1543.793706
2064.482267	1533.892308
2066.161375	1533.595105
2067.845270	1524.029371
2069.523703	1529.525874
2071.205214	1531.141958
2072.882973	1524.950350
2074.560396	1516.739161
2076.239188	1523.325874
2077.915938	1512.123776
2079.590645	1507.938462
2081.266723	1506.032867
2082.940759	1505.576224
2084.614461	1525.479021
2086.287827	1535.787413
2087.959154	1546.302098
2089.630147	1569.606993
2091.300806	1566.777622
2092.971131	1556.491608
2094.641122	1546.264336
2096.309077	1545.948252
2097.976698	1528.067133
2099.642286	1533.267133
2101.309242	1531.858741
2102.974165	1545.161538
2104.638756	1549.003497
2106.301315	1552.998601
2107.965242	1552.850350
2109.627138	1551.576923
2111.288704	1534.051049
2112.949938	1529.583916
2114.609144	1532.829371
2116.268019	1541.565734
2117.926565	1545.224476
2119.584780	1560.313986
2121.239273	1554.799301
2122.896830	1563.860839
2124.554057	1574.618182
2126.207564	1568.967133
2127.862438	1552.095105
2129.513593	1542.276224
2131.167811	1536.836364
2132.818311	1545.009790
2134.470179	1551.786713
2136.116638	1556.194406
2137.767852	1564.881119
2139.415352	1578.336364
2141.064219	1592.764336
2142.711067	1609.285315
2144.357590	1614.098601
2146.003787	1589.613986
2147.646276	1583.176923
2149.291823	1577.948951
2150.933663	1567.441259
2152.578560	1575.011189
2154.219751	1560.949650
2155.860620	1554.537762
2157.501164	1569.474126
2159.139696	1564.909091
2160.779594	1582.693007
2162.415792	1583.629371
2164.053356	1572.490210
2165.690598	1556.546154
2167.325830	1562.009091
2168.960740	1563.833566
2170.595329	1571.906294
2172.229597	1581.332867
2173.860171	1583.896503
2175.493797	1582.535664
2177.123731	1588.104196
2178.755030	1560.369231
2180.384324	1551.418182
2182.013299	1538.302797
2183.641954	1524.611888
2185.270290	1527.899301
2186.896624	1542.355944
2188.522639	1549.283217
2190.146652	1558.562937
2191.772031	1559.909091
2193.395409	1568.310490
2195.020152	1570.416783
2196.641214	1586.006993
2198.261959	1585.390210
2199.884068	1583.320979
2201.504180	1586.401399
2203.122296	1595.965734
2204.740096	1603.557343
2206.357581	1606.634266
2207.974750	1593.076224
2209.591604	1583.355245
2211.208142	1577.009790
2212.822688	1569.267832
2214.435241	1585.541259
2216.049158	1589.018182
2217.661084	1604.471329
2219.274373	1602.252448
2220.885672	1594.289510
2222.494981	1598.903497
2224.105654	1611.067133
2225.714338	1620.312587
2227.322709	1593.179720
2228.929094	1596.059441
2230.536841	1592.625874
2232.142603	1582.676923
2233.748053	1580.882517
2235.351518	1573.764336
2236.956346	1565.797203
2238.559190	1536.023077
2240.160051	1527.637762
2241.762275	1550.286014
2243.362517	1571.405594
2244.964121	1586.002098
2246.562072	1599.100000
2248.161386	1624.081119
2249.758720	1633.050350
2251.355746	1656.541259
2252.954134	1676.638462
2254.548873	1674.702797
2256.141635	1661.462937
2257.735760	1642.981818
2259.331246	1645.381119
2260.923087	1651.458042
2262.514622	1654.410490
2264.107519	1653.816084
2265.695106	1655.121678
2267.287389	1637.340559
2268.874366	1624.760140
2270.464370	1649.706294
2272.049070	1651.504895
2273.638464	1654.610490
2275.222556	1673.200699
2276.808008	1675.031469
2278.391492	1697.518182
2279.978001	1722.497203
2281.560877	1715.639161
2283.143450	1705.836713
2284.725719	1705.918182
2286.304358	1697.556294
2287.886022	1679.900000
2289.464057	1673.752098
2291.045115	1661.755245
2292.622546	1656.733916
2294.198014	1637.123077
2295.776504	1616.998252
2297.351370	1619.006294
2298.925935	1630.513636
2300.500199	1620.118182
2302.074164	1635.046503
2303.647827	1654.818182
2305.221191	1688.594406
2306.790936	1685.361538
2308.360382	1662.972028
2309.932846	1658.627273
2311.500036	1660.144755
2313.070244	1644.972028
2314.636837	1633.535664
2316.204790	1634.154545
2317.770787	1683.532168
2319.336487	1700.027972
2320.901889	1717.059441
2322.465338	1764.948951
2324.030146	1794.247552
2325.591346	1780.883217
2327.155560	1779.222378
2328.714512	1773.600699
2330.276478	1787.396503
2331.836494	1744.998601
2333.396215	1722.255944
2334.953986	1707.918881
2336.511462	1706.901399
2338.068644	1686.646154
2339.623878	1706.509790
2341.178819	1722.031469
2342.733465	1710.062937
2344.287818	1702.362937
2345.841877	1735.197203
2347.395643	1734.286713
2348.947464	1734.923776
2350.497343	1733.563636
2352.050229	1718.722378
2353.597872	1687.844755
2355.148524	1663.481119
2356.695584	1670.885315
2358.244002	1677.423776
2359.792129	1693.055944
2361.336667	1700.572727
2362.882563	1727.004895
2364.426521	1771.219580
2365.971835	1785.602797
2367.513566	1787.382517
2369.056653	1829.410490
2370.597804	1828.274825
2372.138666	1802.767832
2373.679239	1789.237063
2375.219523	1772.948252
2376.759518	1764.346853
2378.295935	1783.678322
2379.835353	1770.132168
2381.371193	1777.176224
2382.908391	1786.819580
2384.442013	1786.194406
2385.978635	1792.512587
2387.513327	1806.797902
2389.046089	1809.721678
2390.578564	1794.076224
2392.109111	1770.749650
2393.642656	1748.160839
2395.170990	1759.838462
2396.700680	1743.437063
2398.230085	1730.853147
2399.759205	1730.575524
2401.288039	1726.300699
2402.811669	1736.081818
2404.339934	1750.241259
2405.862997	1737.637063
2407.390693	1773.509091
2408.911550	1789.319580
2410.437039	1797.738462
2411.958969	1799.315385
2413.482253	1841.811888
2415.003617	1846.671329
2416.523061	1862.093706
2418.043860	1867.755944
2419.562740	1883.155944
2421.081339	1908.451049
2422.598020	1908.088112
2424.116055	1916.067133
2425.633809	1906.844056
2427.148011	1879.780420
2428.661934	1868.324476
2430.175576	1846.568531
2431.690573	1863.380420
2433.202021	1858.068531
2434.714823	1843.453846
2436.225713	1830.751748
2437.736324	1828.811189
2439.245023	1799.435664
2440.756708	1800.045455
2442.264850	1822.076923
2443.772714	1789.397902
2445.280299	1805.175524
2446.784345	1834.654545
2448.291375	1878.104895
2449.796497	1904.319580
2451.301342	1925.268531
2452.804280	1940.747552
2454.306942	1958.821678
2455.809327	1951.463636
2457.309807	1938.876224
2458.811640	1944.793007
2460.311568	1912.830769
2461.811221	1880.683916
2463.310599	1888.574825
2464.808074	1880.485315
2466.303647	1866.507692
2467.802200	1853.037762
2469.297225	1824.227273
2470.793602	1826.404196
2472.286453	1855.839161
2473.780657	1852.162238
2475.274587	1868.167832
2476.764993	1888.902098
2478.258377	1864.083916
2479.749863	1873.867133
2481.239452	1895.221678
2482.728769	1903.225175
2484.216190	1905.202797
2485.706587	1899.077622
2487.193466	1867.366434
2488.681696	1848.506993
2490.166409	1864.916084
2491.650853	1836.547552
2493.136647	1840.733566
2494.620550	1826.941958
2496.105803	1786.109091
2497.585923	1784.780420
2499.069016	1813.093706
2500.550218	1831.360839
2502.031151	1864.449650
2503.510195	1883.374825
2504.988970	1884.174825
2506.467477	1871.741958
2507.945716	1891.184615
2509.423686	1856.268531
2510.898151	1858.767832
2512.375586	1860.632168
2513.849517	1847.260839
2515.324798	1853.276923
2516.799812	1871.255944
2518.271325	1858.488112
2519.744189	1864.135664
2521.215170	1866.929371
2522.687501	1863.270629
2524.154718	1860.590909
2525.624902	1862.713287
2527.093205	1873.690210
2528.561243	1900.106993
2530.029016	1913.193706
2531.496524	1889.202098
2532.963767	1869.584615
2534.427518	1841.576923
2535.892619	1790.420979
2537.355843	1767.937063
2538.820416	1796.335664
2540.281501	1797.344056
2541.743935	1817.862937
2543.206106	1863.111189
2544.664791	1895.004196
2546.128047	1899.540559
2547.586208	1901.344056
2549.045717	1908.250350
2550.500132	1908.509790
2551.959118	1902.062937
2553.416232	1887.790909
2554.871474	1884.706993
2556.326456	1901.126573
2557.779569	1879.788112
2559.234029	1868.874126
2560.686621	1852.434965
2562.138953	1841.288811
2563.589418	1839.558042
2565.042838	1837.564336
2566.491176	1866.317483
2567.942469	1886.898601
2569.391897	1907.897902
2570.837852	1929.460839
2572.286762	1930.937063
2573.732202	1932.609790
2575.178989	1935.572727
2576.623913	1915.998601
2578.068580	1910.704196
2579.514594	1921.828671
2580.957142	1917.174825
2582.401037	1911.064336
2583.841466	1934.646154
2585.283244	1933.641259
2586.723162	1942.274126
2588.164427	1954.734965
2589.602230	1958.579021
2591.042983	1936.627273
2592.478674	1934.151748
2593.917314	1903.979021
2595.354096	1916.355245
2596.789023	1900.077622
2598.226897	1891.209091
2599.659714	1894.554545
2601.093878	1895.466434
2602.526188	1885.168531
2603.959844	1906.750350
2605.391647	1926.595804
2606.823196	1943.274126
2608.254493	1941.956643
2609.683937	1958.760140
2611.113129	1963.076923
2612.540471	1974.629371
2613.969158	1949.231469
2615.397594	1947.860839
2616.822582	1936.006294
2618.248917	1898.026573
2619.673403	1907.430070
2621.099235	1926.195105
2622.521623	1929.332168
2623.945357	1920.797203
2625.367244	1934.697902
2626.788882	1930.104196
2628.208674	1934.795804
2629.629812	1922.048252
2631.050700	1935.894406
2632.468149	1950.998601
2633.888539	1937.868531
2635.305491	1921.769231
2636.722194	1945.488811
2638.138649	1956.764336
2639.554856	1925.887413
2640.970815	1892.876224
2642.384933	1904.921678
2643.798803	1900.472727
2645.210834	1888.432168
2646.624210	1878.906993
2648.034156	1890.410490
2649.447038	1889.925175
2650.856491	1889.365035
2652.265698	1875.356643
2653.673069	1885.077622
2655.083374	1917.325175
2656.491844	1904.708392
2657.898478	1928.246154
2659.304867	1945.110490
2660.709422	1930.677622
2662.115321	1907.264336
2663.519387	1892.569231
2664.923208	1897.269231
2666.326785	1899.686014
2667.728531	1901.067832
2669.131620	1898.509790
2670.531291	1930.446853
2671.932306	1957.440559
2673.329905	1969.909790
2674.730433	2007.704196
2676.127547	1994.126573
2677.526004	1993.641259
2678.922634	1994.677622
2680.319021	1966.860839
2681.715166	1974.927972
2683.109485	1981.277622
2684.505147	1954.069930
2685.897400	1950.031469
2687.290995	1951.506993
2688.682766	1941.358741
2690.075880	1970.093007
2691.467170	1989.871329
2692.856637	1990.716084
2694.245864	2011.709091
2695.634852	2022.600000
2697.025181	2006.755944
2698.410527	2008.804895
2699.798796	1996.065734
2701.185245	1975.155245
2702.571455	1972.809091
2703.957426	1939.106294
2705.339999	1923.948252
2706.723914	1909.221678
2708.107591	1891.984615
2709.491029	1893.416783
2710.871072	1906.290909
2712.252457	1919.219580
2713.632027	1914.934266
2715.012937	1925.967133
2716.392033	1940.760839
2717.769315	1947.289510
2719.147938	1959.319580
2720.524747	1975.286713
2721.901321	2006.258042
2723.277659	1986.512587
2724.652186	1978.365734
2726.028053	1985.324476
2727.400533	1995.891608
2728.775929	1986.929371
2730.146365	1983.832168
2731.518142	1974.199301
2732.889684	1974.356643
2734.259418	1960.054545
2735.630493	1969.075524
2736.999759	1990.339860
2738.368792	2018.913287
2739.736019	2009.202797
2741.103012	2012.329371
2742.469773	2015.367832
2743.836301	2027.461538
2745.201025	2032.018881
2746.565516	2056.867133
2747.929776	2031.682517
2749.293803	2043.696503
2750.657599	2021.302098
2752.018021	2010.534965
2753.381353	2027.907692
2754.739743	2051.782517
2756.101043	2057.041259
2757.458973	2042.381818
2758.819811	2018.194406
2760.178850	2030.549650
2761.534520	2025.229371
2762.893098	2033.672028
2764.248309	1998.288112
2765.603291	2002.098601
2766.956476	1994.601399
2768.312568	2009.229371
2769.665296	2023.260140
2771.017796	2037.277622
2772.370067	2046.829371
2773.723676	2034.453147
2775.073925	2033.469930
2776.422379	2030.134266
2777.773738	2026.257343
2779.121739	2033.893007
2780.471077	2017.044755
2781.818623	2005.097203
2783.165943	1994.437762
2784.513036	1973.799301
2785.858337	1962.120280
2787.203413	1962.858741
2788.548263	1976.505594
2789.892887	1976.990909
2791.234159	1998.979021
2792.576769	2006.572727
2793.919153	2021.411189
2795.261312	2042.086014
2796.600122	2052.294406
2797.941832	2057.032168
2799.280193	2043.820280
2800.619892	2028.474825
2801.957806	2026.218182
2803.293934	2021.358042
2804.629840	2034.311189
2805.967083	2012.320280
2807.302542	2029.688112
2808.637778	2026.424476
2809.971231	1997.973427
2811.306021	2013.434266
2812.637471	2048.830070
2813.971816	2071.239860
2815.301263	2068.919580
2816.632046	2081.906294
2817.962609	2080.152448
2819.291392	2074.872028
2820.621511	2083.195804
2821.949852	2071.672727
2823.277972	2057.872028
2824.604314	2035.990909
2825.931993	1990.290909
2827.256338	1998.581818
2828.582020	2007.339860
2829.905926	2007.644755
2831.229612	1997.846154
2832.554635	2011.574126
2833.876327	2001.695105
2835.197801	2025.702098
2836.519056	2038.668531
2837.840092	2055.935664
2839.159355	2037.672727
2840.479954	2032.905594
2841.798782	2027.513287
2843.117391	2031.193706
2844.434229	2017.675524
2845.750850	2004.518182
2847.067254	1999.648252
2848.381888	2002.626573
2849.697858	1996.862937
2851.010507	2012.176224
2852.324491	2007.816783
2853.638259	2037.350350
2854.951810	2038.612587
2856.263595	2031.606294
2857.573613	2034.831469
2858.884966	2023.155245
2860.193004	2029.671329
2861.502376	2039.235664
2862.811534	2052.885315
2864.120476	2060.765035
2865.427654	2055.778322
2866.733070	2054.834965
2868.039819	2083.471329
2869.344807	2099.007692
2870.649580	2087.517483
2871.952593	2062.908392
2873.258486	2043.407692
2874.559525	2044.881818
2875.861898	2062.219580
2877.162511	2086.844755
2878.464458	2082.873427
2879.766191	2081.972727
2881.064621	2058.840559
2882.364384	2058.827273
2883.662390	2075.497902
2884.960184	2056.985315
2886.256222	2069.478322
2887.553593	2065.205594
2888.849208	2040.782517
2890.144612	2043.338462
2891.439805	2054.853147
2892.731701	2069.292308
2894.026473	2057.243357
2895.317948	2048.437762
2896.610756	2027.362238
2897.903354	2039.552448
2899.192658	2070.574825
2900.483294	2098.346154
2901.772179	2134.005594
2903.062396	2132.067832
2904.349322	2122.369930
2905.637580	2147.090210
2906.924089	2164.594406
2908.210389	2169.976923
2909.496482	2162.583217
2910.780826	2149.254545
2912.068041	2133.009091
2913.350430	2136.298601
2914.634151	2140.004895
2915.916126	2135.858741
2917.197893	2126.674126
2918.477915	2136.345455
2919.760808	2124.516084
2921.041955	2145.656643
2922.319820	2155.518881
2923.600554	2167.516084
2924.878007	2169.202797
2926.155254	2174.411189
2927.430759	2181.665734
2928.709132	2173.066434
2929.982691	2161.050350
2931.259117	2156.835664
2932.533802	2143.404196
2933.806746	2147.390909
2935.081022	2124.313986
2936.353558	2134.834965
2937.625889	2137.444056
2938.894948	2142.086713
2940.166872	2161.283916
2941.437058	2180.453846
2942.707040	2201.632867
2943.976819	2191.900000
2945.244862	2183.171329
2946.511168	2192.962937
2947.777273	2187.693706
2949.044707	2169.930769
2950.310406	2150.222378
2951.575904	2138.990210
2952.841199	2122.402098
2954.103229	2096.793007
2955.366589	2102.328671
2956.629748	2098.035664
2957.891175	2104.479720
2959.153931	2093.508392
2960.414955	2109.260839
2961.674249	2129.915385
2962.933343	2145.123077
2964.192236	2148.907692
2965.450929	2167.033566
2966.709422	2159.996503
2967.966186	2146.483916
2969.222750	2125.654545
2970.477586	2128.266434
2971.733752	2131.748951
2972.986663	2138.574825
2974.240902	2123.281119
2975.494943	2134.232867
2976.747258	2151.365035
2977.999375	2158.493007
2979.249767	2165.945455
2980.503014	2169.234965
2981.751484	2155.791608
2983.002809	2159.600000
2984.250884	2177.790210
2985.498762	2168.577622
2986.746444	2187.600699
2987.993928	2173.806993
2989.239691	2146.458042
2990.485258	2138.286014
2991.732152	2154.730769
2992.975802	2157.726573
2994.220780	2164.635664
2995.462514	2161.500699
2996.707100	2187.027972
2997.949967	2229.331469
2999.189593	2248.663636
3000.432069	2237.646154
3001.671305	2250.947552
3002.911869	2218.197203
3004.150716	2192.137063
3005.389369	2174.273427
3006.626306	2161.880420
3007.864571	2160.039161
3009.101120	2143.459441
3010.337476	2140.572028
3011.573638	2169.172028
3012.808086	2206.759441
3014.042342	2215.782517
3015.276404	2254.351049
3016.508753	2274.621678
3017.739392	2278.745455
3018.972876	2268.739161
3020.204648	2265.751049
3021.434710	2264.325874
3022.664579	2277.042657
3023.892739	2277.326573
3025.122226	2265.729371
3026.350003	2271.730769
3027.577589	2284.018182
3028.806501	2285.423077
3030.030671	2287.879021
3031.257685	2277.450350
3032.481474	2264.756643
3033.706590	2243.392308
3034.929999	2253.097902
3036.153218	2264.786014
3037.374732	2269.474825
3038.599087	2268.774825
3039.818707	2244.301399
3041.039653	2255.372727
3042.260410	2268.246154
3043.479463	2244.845455
3044.699841	2227.497203
3045.917003	2227.979720
3047.135491	2227.390909
3048.352276	2232.851748
3049.568874	2236.952448
3050.785283	2226.010490
3051.998479	2201.616084
3053.214514	2183.862937
3054.427336	2170.058042
3055.642994	2179.704895
3056.853931	2182.928671
3058.066192	2156.598601
3059.278266	2164.490210
3060.490154	2178.265734
3061.700345	2198.632168
3062.910349	2209.926923
3064.120167	2207.909091
3065.328289	2195.728322
3066.536226	2180.446853
3067.742467	2167.419231
3068.950033	2159.019580
3070.155904	2149.213636
3071.361590	2137.102098
3072.567092	2126.323427
3073.770900	2133.569231
3074.976032	2134.014336
3076.179471	2125.929371
3077.381219	2125.097552
3078.582782	2120.388112
3079.784162	2125.433566
3080.985358	2118.401399
3082.184864	2117.716783
3083.384187	2116.289510
3084.584833	2122.465035
3085.783789	2136.399301
3086.979551	2135.163636
3088.178142	2135.036364
3089.373539	2129.782517
3090.570259	2104.422378
3091.763787	2094.172028
3092.960143	2084.172727
3094.154812	2083.476923
3095.346291	2085.843357
3096.542102	2101.218881
3097.733218	2111.060140
3098.925658	2121.111189
3100.114910	2147.882517
3101.306987	2150.898601
3102.497381	2149.008392
3103.684589	2134.524476
3104.873119	2108.605594
3106.062972	2109.396503
3107.249641	2100.944056
3108.436129	2085.765035
3109.622439	2089.888112
3110.810070	2097.059441
3111.994519	2100.183217
3113.177289	2103.004196
3114.362881	2121.281818
3115.546794	2124.025175
3116.729028	2120.811189
3117.911083	2126.818182
3119.092960	2129.006993
3120.274659	2128.457343
3121.454681	2124.604196
3122.633026	2121.376224
3123.814191	2134.970629
3124.992181	2149.381119
3126.169994	2143.646853
3127.347630	2127.713986
3128.523592	2117.702797
3129.699376	2110.184615
3130.876482	2108.779720
3132.051913	2102.771329
3133.225671	2084.170629
3134.397756	2076.682517
3135.571163	2081.127972
3136.744393	2099.361538
3137.915952	2114.932867
3139.088831	2116.439161
3140.258543	2123.658741
3141.429576	2124.016783
3142.598939	2119.797203
3143.766631	2113.645455
3144.937139	2117.779021
3146.102989	2128.465734
3147.273147	2133.806993
3148.438649	2159.310490
3149.603976	2163.893706
3150.769130	2199.877622
3151.934111	2206.072028
3153.100411	2215.690210
3154.262059	2233.054545
3155.425026	2232.960140
3156.587821	2212.580420
3157.750443	2189.461538
3158.911399	2178.348252
3160.072184	2187.204895
3161.232796	2174.127273
3162.391744	2175.719580
3163.550521	2170.082517
3164.709125	2187.497203
3165.867558	2192.125175
3167.025820	2216.746853
3168.182419	2235.613986
3169.337357	2245.522378
3170.493614	2239.068531
3171.648210	2241.218182
3172.802636	2241.848252
3173.955402	2263.711888
3175.107997	2250.513287
3176.260423	2242.302797
3177.412679	2238.624476
3178.564764	2235.084615
3179.713703	2238.658042
3180.865450	2245.544056
3182.015538	2247.813287
3183.163970	2236.155245
3184.312232	2232.025874
3185.460326	2254.252448
3186.608251	2239.763636
3187.754520	2250.453846
3188.900621	2238.451049
3190.045068	2234.975524
3191.189347	2235.072727
3192.333458	2240.797203
3193.478886	2242.506993
3194.621176	2251.132867
3195.763299	2263.450350
3196.905254	2289.325874
3198.047042	2305.095105
3199.188663	2315.721678
3200.327149	2300.618182
3201.466952	2301.948252
3202.608072	2300.378322
3203.746059	2274.302797
3204.882396	2244.380420
3206.018567	2228.216084
3207.156055	2204.669930
3208.291895	2206.262238
3209.429052	2229.446853
3210.561596	2241.794406
3211.698422	2243.811189
3212.830636	2250.034965
3213.964167	2260.053147
3215.097534	2253.527972
3216.227773	2256.276224
3217.360810	2239.204895
3218.490721	2223.707692
3219.621948	2217.047552
3220.750051	2238.015385
3221.880950	2257.132168
3223.010205	2284.966434
3224.137817	2283.647552
3225.262306	2308.573427
3226.391071	2328.109091
3227.516714	2313.604895
3228.642195	2310.255245
3229.766033	2318.186014
3230.892667	2311.815385
3232.014703	2301.603497
3233.138055	2302.825874
3234.261245	2329.041958
3235.384272	2341.227972
3236.505661	2346.754545
3237.626887	2354.446853
3238.746476	2332.344056
3239.865903	2321.891608
3240.983692	2279.667832
3242.104273	2285.879021
3243.221741	2262.516783
3244.339048	2255.364336
3245.456195	2257.572727
3246.571705	2273.989510
3247.688531	2300.798601
3248.802247	2347.681119
3249.918752	2371.611888
3251.033623	2383.567832
3252.145384	2378.140559
3253.256987	2394.772727
3254.369905	2373.979021
3255.482663	2355.161538
3256.592315	2336.348252
3257.703282	2342.253846
3258.814090	2332.492308
3259.923266	2349.628671
3261.030811	2359.151049
3262.139671	2393.395105
3263.248373	2416.067133
3264.353972	2432.613986
3265.460885	2479.258741
3266.566169	2499.371329
3267.672767	2498.173427
3268.776265	2490.432168
3269.881077	2508.774825
3270.985732	2508.841958
3272.087289	2485.767133
3273.188689	2472.139161
3274.291403	2462.496503
3275.393961	2464.443357
3276.493422	2438.583916
3277.595667	2420.029371
3278.694816	2422.475524
3279.792341	2417.323077
3280.889710	2409.774126
3281.989861	2404.781119
3283.086920	2386.358741
3284.183823	2365.402098
3285.280571	2352.795105
3286.372760	2355.616084
3287.469199	2350.018881
3288.564015	2337.313287
3289.658677	2321.775524
3290.751717	2326.727972
3291.844602	2336.426573
3292.935867	2340.605594
3294.028445	2352.718182
3295.119403	2343.997203
3296.208741	2335.588112
3297.297926	2357.554545
3298.388424	2382.651748
3299.475837	2398.811888
3300.563097	2387.216783
3301.651670	2405.415385
3302.740090	2420.153846
3303.823964	2438.783916
3304.912079	2440.480420
3305.997112	2425.055245
3307.080530	2429.992308
3308.165260	2411.295105
3309.248374	2408.822378
3310.332801	2409.334266
3311.414149	2411.524476
3312.496809	2410.456643
3313.577855	2414.576224
3314.658750	2428.848951
3315.738031	2429.360839
3316.817162	2454.319580
3317.897605	2449.060140
3318.974973	2449.528671
3320.053653	2467.179720
3321.130721	2459.365035
3322.207640	2460.297902
3323.282947	2473.323077
3324.358105	2471.105594
3325.434574	2478.083916
3326.507973	2485.120979
3327.581222	2495.202098
3328.655783	2508.045455
3329.728735	2526.396503
3330.800078	2505.337063
3331.872732	2517.105594
3332.942320	2550.939161
3334.013218	2561.853846
3335.082509	2586.138462
3336.153111	2595.607692
3337.222106	2579.616783
3338.289495	2592.083916
3339.355279	2592.253846
3340.425289	2592.421678
3341.492236	2588.626573
3342.556121	2553.671329
3343.622773	2526.433566
3344.687822	2520.006993
3345.751267	2536.776224
3346.814566	2534.579720
3347.877718	2542.948951
3348.940724	2545.216783
3350.003584	2557.446853
3351.064842	2560.142657
3352.123043	2567.624476
3353.185464	2570.145455
3354.244830	2566.876224
3355.304050	2556.899301
3356.364579	2577.401399
3357.420600	2585.679021
3358.479384	2595.516783
3359.533661	2597.874126
3360.590702	2594.852448
3361.646144	2596.643357
3362.702896	2597.299301
3363.758049	2572.637063
3364.811605	2577.160839
3365.863565	2567.667832
3366.918286	2561.206294
3367.969958	2569.500699
3369.021487	2573.732867
3370.074324	2558.246853
3371.124114	2527.705594
3372.175213	2521.690909
3373.223266	2505.121678
3374.274078	2503.046853
3375.321846	2494.681818
3376.369470	2498.962937
3377.416953	2505.628671
3378.462843	2515.403497
3379.510041	2529.510490
3380.554197	2535.840559
3381.601111	2527.446853
3382.646433	2522.296503
3383.688714	2505.006993
3384.730854	2496.364336
3385.774303	2498.297902
3386.817610	2502.208392
3387.859327	2512.276923
3388.900904	2524.501399
3389.942339	2527.237762
3390.982186	2545.798601
3392.020444	2546.350350
3393.060010	2545.313287
3394.099436	2532.204895
3395.137274	2518.930070
3396.173525	2486.460839
3397.209637	2460.169231
3398.247056	2480.772727
3399.281442	2494.080420
3400.317135	2499.476923
3401.352689	2513.932867
3402.385212	2525.648252
3403.420487	2553.035664
3404.452733	2559.811189
3405.484840	2566.379021
3406.515363	2574.465734
3407.547193	2577.358042
3408.578885	2546.264336
3409.607549	2538.040559
3410.636076	2546.304196
3411.665909	2549.975524
3412.695605	2538.345455
3413.722275	2541.432168
3414.750251	2539.097902
3415.775204	2558.970629
3416.802906	2554.344755
3417.827585	2578.301399
3418.853570	2594.399301
3419.877975	2595.902797
3420.902244	2578.625874
3421.924934	2600.882517
3422.947488	2605.935664
3423.971348	2614.985315
3424.992188	2626.156643
3426.012892	2630.830170
3427.034903	2631.179096
3428.053895	2626.007792
3429.072751	2614.120629
3430.092914	2594.321978
3431.110060	2565.416209
